{
  "AcquisitionMatrixPE": 104,
  "AcquisitionNumber": 1,
  "AcquisitionTime": "13:08:44.652500",
  "BandwidthPerPixelPhaseEncode": 16.297,
  "BaseResolution": 104,
  "BodyPartExamined": "BRAIN",
  "ConsistencyInfo": "N4_VE11C_LATEST_20160120",
  "ConversionSoftware": "dcm2niix",
  "ConversionSoftwareVersion": "v1.0.20210317",
  "DerivedVendorReportedEchoSpacing": 0.000590009,
  "DeviceSerialNumber": "166018",
  "DwellTime": 2.1e-06,
  "EchoTime": 0.0376,
  "EchoTrainLength": 104,
  "EffectiveEchoSpacing": 0.000590009,
  "FlipAngle": 68,
  "ImageComments": "Unaliased MB6/PE3/LB",
  "ImageOrientationPatientDICOM": [0.992679, 0.106924, -0.0561704, -0.119952, 0.927158, -0.354949],
  "ImageType": [
    "ORIGINAL",
    "PRIMARY",
    "M",
    "MB",
    "ND",
    "MOSAIC"
],
  "ImagingFrequency": 123.197,
  "InPlanePhaseEncodingDirectionDICOM": "COL",
  "InstitutionAddress": "Washington Place 6,NYC,NYC,US,10003",
  "InstitutionName": "NYU - CBI",
  "InstitutionalDepartmentName": "Department",
  "MRAcquisitionType": "2D",
  "MagneticFieldStrength": 3,
  "Manufacturer": "Siemens",
  "ManufacturersModelName": "Prisma",
  "Modality": "MR",
  "MultibandAccelerationFactor": 6,
  "PartialFourier": 1,
  "PatientPosition": "HFS",
  "PercentPhaseFOV": 100,
  "PercentSampling": 100,
  "PhaseEncodingDirection": "j",
  "PhaseEncodingSteps": 104,
  "PhaseResolution": 1,
  "PixelBandwidth": 2290,
  "ProcedureStepDescription": "Investigators^Winawer",
  "ProtocolName": "cmrr_mbepi_s6_2mm_66sl_PA_task-wedgering2",
  "PulseSequenceDetails": "%CustomerSeq%\\cmrr_mbep2d_bold",
  "ReceiveCoilActiveElements": "HC1-7",
  "ReceiveCoilName": "HeadNeck_64",
  "ReconMatrixPE": 104,
  "RepetitionTime": 1,
  "SAR": 0.085959,
  "ScanOptions": "FS",
  "ScanningSequence": "EP",
  "SequenceName": "epfid2d1_104",
  "SequenceVariant": "SK\\SS",
  "SeriesDescription": "cmrr_mbepi_s6_2mm_66sl_PA_task-wedgering2",
  "SeriesNumber": 14,
  "ShimSetting": [281, -12619, -8465, 287, 10, -66, -170, 93],
  "SliceThickness": 2,
  "SliceTiming": [0, 0.535, 0.09, 0.625, 0.18, 0.7125, 0.2675, 0.8025, 0.3575, 0.8925, 0.4475, 0, 0.535, 0.09, 0.625, 0.18, 0.7125, 0.2675, 0.8025, 0.3575, 0.8925, 0.4475, 0, 0.535, 0.09, 0.625, 0.18, 0.7125, 0.2675, 0.8025, 0.3575, 0.8925, 0.4475, 0, 0.535, 0.09, 0.625, 0.18, 0.7125, 0.2675, 0.8025, 0.3575, 0.8925, 0.4475, 0, 0.535, 0.09, 0.625, 0.18, 0.7125, 0.2675, 0.8025, 0.3575, 0.8925, 0.4475, 0, 0.535, 0.09, 0.625, 0.18, 0.7125, 0.2675, 0.8025, 0.3575, 0.8925, 0.4475],
  "SoftwareVersions": "syngo MR E11",
  "SpacingBetweenSlices": 2,
  "StationName": "AWP166018",
  "TaskName": "wedgering2",
  "TotalReadoutTime": 0.060771,
  "TxRefAmp": 237.072,
  "VendorReportedEchoSpacing": 0.00059,
  "WipMemBlock": "cad607ce-34de-4f6b-a45f-ffe1f92d1cfd||Sequence: R016 ve11c/master r/8780670; Nov 27 2017 15:05:12 by eja",
  "dcmmeta_affine": [
    [-1.985358476638794, -0.23990318179130554, -0.02825227752327919, 118.57012176513672],
    [-0.21384871006011963, 1.8543167114257812, -0.7181769013404846, -46.655208587646484],
    [-0.11234080046415329, 0.7098984718322754, 1.8663933277130127, -63.47893142700195],
    [0.0, 0.0, 0.0, 1.0]
],
  "dcmmeta_reorient_transform": [
    [0.0, -1.0, 0.0, 103.0],
    [1.0, 0.0, 0.0, 0.0],
    [0.0, 0.0, 1.0, 0.0],
    [0.0, 0.0, 0.0, 1.0]
],
  "dcmmeta_shape": [104, 104, 66, 300],
  "dcmmeta_slice_dim": 2,
  "dcmmeta_version": 0.6,
  "global": {
    "const": {
      "AccessionNumber": "Lep9m76j",
      "AcquisitionMatrix": [104, 0, 0, 104],
      "AngioFlag": "N",
      "BitsAllocated": 16,
      "BitsStored": 16,
      "BodyPartExamined": "BRAIN",
      "Columns": 936,
      "EchoNumbers": 1,
      "EchoTime": 37.6,
      "EchoTrainLength": 104,
      "FlipAngle": 68.0,
      "HighBit": 15,
      "ImageOrientationPatient": [0.99267923716399, 0.10692435809413, -0.0561703992303, -0.1199515915464, 0.92715838134908, -0.3549492239457],
      "ImagePositionPatient": [-819.96949205623, -1004.6962553676, 351.69213401022],
      "ImageType": [
        "ORIGINAL",
        "PRIMARY",
        "M",
        "MB",
        "ND",
        "MOSAIC"
],
      "ImagedNucleus": "1H",
      "ImagingFrequency": 123.196806,
      "InPlanePhaseEncodingDirection": "COL",
      "MRAcquisitionType": "2D",
      "MagneticFieldStrength": 3.0,
      "Manufacturer": "SIEMENS",
      "ManufacturerModelName": "Prisma",
      "Modality": "MR",
      "NumberOfAverages": 1.0,
      "NumberOfPhaseEncodingSteps": 104,
      "PercentPhaseFieldOfView": 100.0,
      "PercentSampling": 100.0,
      "PerformedProcedureStepStartTime": "123454.739000",
      "PhotometricInterpretation": "MONOCHROME2",
      "PixelBandwidth": 2290.0,
      "PixelRepresentation": 0,
      "PixelSpacing": [2.0, 2.0],
      "ProtocolName": "cmrr_mbepi_s6_2mm_66sl_PA_task-wedgering2",
      "RepetitionTime": 1000.0,
      "Rows": 936,
      "SAR": 0.08595903136871,
      "SamplesPerPixel": 1,
      "ScanOptions": "FS",
      "ScanningSequence": "EP",
      "SequenceName": "epfid2d1_104",
      "SequenceVariant": [
        "SK",
        "SS"
],
      "SeriesDescription": "cmrr_mbepi_s6_2mm_66sl_PA_task-wedgering2",
      "SeriesNumber": 14,
      "SeriesTime": "131000.825000",
      "SliceLocation": -44.159916013839,
      "SliceThickness": 2.0,
      "SmallestImagePixelValue": 0,
      "SoftwareVersions": "syngo MR E11",
      "SpacingBetweenSlices": 2.0000000372749,
      "SpecificCharacterSet": "ISO_IR 100",
      "StudyID": "1",
      "StudyTime": "123454.580000",
      "TransmitCoilName": "Body",
      "VariableFlipAngleFlag": "N",
      "WindowCenterWidthExplanation": "Algo1",
      "dBdt": 0.0},
    "slices": {}
  },
  "time": {
    "samples": {
      "AcquisitionNumber": [1, 2, 3, 4, 5, 6, 7, 8, 9, 10, 11, 12, 13, 14, 15, 16, 17, 18, 19, 20, 21, 22, 23, 24, 25, 26, 27, 28, 29, 30, 31, 32, 33, 34, 35, 36, 37, 38, 39, 40, 41, 42, 43, 44, 45, 46, 47, 48, 49, 50, 51, 52, 53, 54, 55, 56, 57, 58, 59, 60, 61, 62, 63, 64, 65, 66, 67, 68, 69, 70, 71, 72, 73, 74, 75, 76, 77, 78, 79, 80, 81, 82, 83, 84, 85, 86, 87, 88, 89, 90, 91, 92, 93, 94, 95, 96, 97, 98, 99, 100, 101, 102, 103, 104, 105, 106, 107, 108, 109, 110, 111, 112, 113, 114, 115, 116, 117, 118, 119, 120, 121, 122, 123, 124, 125, 126, 127, 128, 129, 130, 131, 132, 133, 134, 135, 136, 137, 138, 139, 140, 141, 142, 143, 144, 145, 146, 147, 148, 149, 150, 151, 152, 153, 154, 155, 156, 157, 158, 159, 160, 161, 162, 163, 164, 165, 166, 167, 168, 169, 170, 171, 172, 173, 174, 175, 176, 177, 178, 179, 180, 181, 182, 183, 184, 185, 186, 187, 188, 189, 190, 191, 192, 193, 194, 195, 196, 197, 198, 199, 200, 201, 202, 203, 204, 205, 206, 207, 208, 209, 210, 211, 212, 213, 214, 215, 216, 217, 218, 219, 220, 221, 222, 223, 224, 225, 226, 227, 228, 229, 230, 231, 232, 233, 234, 235, 236, 237, 238, 239, 240, 241, 242, 243, 244, 245, 246, 247, 248, 249, 250, 251, 252, 253, 254, 255, 256, 257, 258, 259, 260, 261, 262, 263, 264, 265, 266, 267, 268, 269, 270, 271, 272, 273, 274, 275, 276, 277, 278, 279, 280, 281, 282, 283, 284, 285, 286, 287, 288, 289, 290, 291, 292, 293, 294, 295, 296, 297, 298, 299, 300],
      "AcquisitionTime": ["130844.652500", "130845.652500", "130846.652500", "130847.652500", "130848.652500", "130849.652500", "130850.652500", "130851.652500", "130852.652500", "130853.652500", "130854.652500", "130855.652500", "130856.652500", "130857.652500", "130858.652500", "130859.652500", "130900.652500", "130901.652500", "130902.652500", "130903.652500", "130904.652500", "130905.652500", "130906.652500", "130907.652500", "130908.652500", "130909.652500", "130910.652500", "130911.652500", "130912.652500", "130913.652500", "130914.652500", "130915.652500", "130916.652500", "130917.652500", "130918.652500", "130919.652500", "130920.652500", "130921.652500", "130922.652500", "130923.652500", "130924.652500", "130925.652500", "130926.652500", "130927.652500", "130928.652500", "130929.652500", "130930.652500", "130931.652500", "130932.652500", "130933.652500", "130934.652500", "130935.652500", "130936.652500", "130937.652500", "130938.652500", "130939.652500", "130940.652500", "130941.652500", "130942.652500", "130943.652500", "130944.652500", "130945.652500", "130946.652500", "130947.652500", "130948.652500", "130949.652500", "130950.652500", "130951.652500", "130952.652500", "130953.652500", "130954.652500", "130955.652500", "130956.652500", "130957.652500", "130958.652500", "130959.652500", "131000.652500", "131001.652500", "131002.652500", "131003.652500", "131004.652500", "131005.652500", "131006.652500", "131007.652500", "131008.652500", "131009.652500", "131010.652500", "131011.652500", "131012.652500", "131013.652500", "131014.652500", "131015.652500", "131016.652500", "131017.652500", "131018.652500", "131019.652500", "131020.652500", "131021.652500", "131022.652500", "131023.652500", "131024.652500", "131025.652500", "131026.652500", "131027.652500", "131028.652500", "131029.652500", "131030.652500", "131031.652500", "131032.652500", "131033.652500", "131034.652500", "131035.652500", "131036.652500", "131037.652500", "131038.652500", "131039.652500", "131040.652500", "131041.652500", "131042.652500", "131043.652500", "131044.652500", "131045.652500", "131046.652500", "131047.652500", "131048.652500", "131049.652500", "131050.652500", "131051.652500", "131052.652500", "131053.652500", "131054.652500", "131055.652500", "131056.652500", "131057.652500", "131058.652500", "131059.652500", "131100.652500", "131101.652500", "131102.652500", "131103.652500", "131104.652500", "131105.652500", "131106.652500", "131107.652500", "131108.652500", "131109.652500", "131110.652500", "131111.652500", "131112.652500", "131113.652500", "131114.652500", "131115.652500", "131116.652500", "131117.652500", "131118.652500", "131119.652500", "131120.652500", "131121.652500", "131122.652500", "131123.652500", "131124.652500", "131125.652500", "131126.652500", "131127.652500", "131128.652500", "131129.652500", "131130.652500", "131131.652500", "131132.652500", "131133.652500", "131134.652500", "131135.652500", "131136.652500", "131137.652500", "131138.652500", "131139.652500", "131140.652500", "131141.652500", "131142.652500", "131143.652500", "131144.652500", "131145.652500", "131146.652500", "131147.652500", "131148.652500", "131149.652500", "131150.652500", "131151.652500", "131152.652500", "131153.652500", "131154.652500", "131155.652500", "131156.652500", "131157.652500", "131158.652500", "131159.652500", "131200.652500", "131201.652500", "131202.652500", "131203.652500", "131204.652500", "131205.652500", "131206.652500", "131207.652500", "131208.652500", "131209.652500", "131210.652500", "131211.652500", "131212.652500", "131213.652500", "131214.652500", "131215.652500", "131216.652500", "131217.652500", "131218.652500", "131219.652500", "131220.652500", "131221.652500", "131222.652500", "131223.652500", "131224.652500", "131225.652500", "131226.652500", "131227.652500", "131228.652500", "131229.652500", "131230.652500", "131231.652500", "131232.652500", "131233.652500", "131234.652500", "131235.652500", "131236.652500", "131237.652500", "131238.652500", "131239.652500", "131240.652500", "131241.652500", "131242.652500", "131243.652500", "131244.652500", "131245.652500", "131246.652500", "131247.652500", "131248.652500", "131249.652500", "131250.652500", "131251.652500", "131252.652500", "131253.652500", "131254.652500", "131255.652500", "131256.652500", "131257.652500", "131258.652500", "131259.652500", "131300.652500", "131301.652500", "131302.652500", "131303.652500", "131304.652500", "131305.652500", "131306.652500", "131307.652500", "131308.652500", "131309.652500", "131310.652500", "131311.652500", "131312.652500", "131313.652500", "131314.652500", "131315.652500", "131316.652500", "131317.652500", "131318.652500", "131319.652500", "131320.652500", "131321.652500", "131322.652500", "131323.652500", "131324.652500", "131325.652500", "131326.652500", "131327.652500", "131328.652500", "131329.652500", "131330.652500", "131331.652500", "131332.652500", "131333.652500", "131334.652500", "131335.652500", "131336.652500", "131337.652500", "131338.652500", "131339.652500", "131340.652500", "131341.652500", "131342.652500", "131343.652500"],
      "ContentTime": ["131000.827000", "131000.831000", "131000.834000", "131000.837000", "131000.840000", "131000.843000", "131000.846000", "131000.849000", "131000.852000", "131000.856000", "131000.859000", "131000.862000", "131000.874000", "131000.877000", "131000.880000", "131000.883000", "131000.886000", "131000.889000", "131000.892000", "131000.895000", "131000.904000", "131000.907000", "131000.911000", "131000.914000", "131000.917000", "131000.920000", "131000.925000", "131000.928000", "131000.931000", "131000.934000", "131000.937000", "131000.940000", "131000.944000", "131000.947000", "131000.950000", "131000.953000", "131020.792000", "131020.795000", "131020.798000", "131020.801000", "131020.804000", "131020.807000", "131020.810000", "131020.813000", "131020.816000", "131020.819000", "131020.823000", "131020.826000", "131020.829000", "131020.832000", "131020.835000", "131020.838000", "131020.841000", "131020.844000", "131020.847000", "131020.850000", "131020.853000", "131020.856000", "131020.859000", "131020.862000", "131020.865000", "131020.868000", "131020.871000", "131020.874000", "131020.877000", "131040.792000", "131040.795000", "131040.798000", "131040.801000", "131040.804000", "131040.807000", "131040.826000", "131040.829000", "131040.832000", "131040.835000", "131040.838000", "131040.841000", "131040.844000", "131040.847000", "131040.850000", "131040.853000", "131040.856000", "131040.859000", "131040.862000", "131040.865000", "131040.868000", "131040.871000", "131040.875000", "131040.878000", "131040.881000", "131040.884000", "131040.887000", "131040.890000", "131100.792000", "131100.795000", "131100.798000", "131100.802000", "131100.805000", "131100.808000", "131100.811000", "131100.814000", "131100.817000", "131100.820000", "131100.823000", "131100.826000", "131100.829000", "131100.832000", "131100.835000", "131100.839000", "131100.842000", "131100.845000", "131100.848000", "131100.851000", "131100.854000", "131100.857000", "131100.860000", "131100.863000", "131100.866000", "131100.869000", "131100.872000", "131100.875000", "131120.791000", "131120.794000", "131120.797000", "131120.800000", "131120.803000", "131120.806000", "131120.810000", "131120.813000", "131120.816000", "131120.819000", "131120.822000", "131120.825000", "131120.828000", "131120.831000", "131120.834000", "131120.837000", "131120.840000", "131120.843000", "131120.846000", "131120.849000", "131120.852000", "131120.855000", "131120.858000", "131120.861000", "131120.865000", "131120.868000", "131120.871000", "131120.874000", "131120.877000", "131140.791000", "131140.794000", "131140.797000", "131140.800000", "131140.804000", "131140.807000", "131140.810000", "131140.813000", "131140.816000", "131140.819000", "131140.828000", "131140.831000", "131140.834000", "131140.837000", "131140.841000", "131140.844000", "131140.847000", "131140.850000", "131140.853000", "131140.856000", "131140.859000", "131140.862000", "131140.865000", "131140.868000", "131140.871000", "131200.791000", "131200.794000", "131200.797000", "131200.800000", "131200.803000", "131200.806000", "131200.810000", "131200.813000", "131200.816000", "131200.819000", "131200.822000", "131200.825000", "131200.828000", "131200.832000", "131200.835000", "131200.838000", "131200.841000", "131200.844000", "131200.847000", "131200.850000", "131220.791000", "131220.794000", "131220.797000", "131220.800000", "131220.803000", "131220.807000", "131220.810000", "131220.813000", "131220.819000", "131220.822000", "131220.826000", "131220.829000", "131220.832000", "131220.835000", "131220.838000", "131220.841000", "131220.844000", "131220.847000", "131220.850000", "131220.853000", "131240.792000", "131240.795000", "131240.798000", "131240.801000", "131240.804000", "131240.807000", "131240.811000", "131240.814000", "131240.817000", "131240.820000", "131240.823000", "131240.826000", "131240.829000", "131240.832000", "131240.835000", "131240.838000", "131240.841000", "131240.844000", "131240.848000", "131240.851000", "131300.792000", "131300.795000", "131300.798000", "131300.801000", "131300.804000", "131300.807000", "131300.810000", "131300.814000", "131300.817000", "131300.820000", "131300.823000", "131300.826000", "131300.829000", "131300.832000", "131300.835000", "131300.838000", "131300.841000", "131300.845000", "131300.848000", "131300.871000", "131320.792000", "131320.795000", "131320.798000", "131320.801000", "131320.804000", "131320.807000", "131320.810000", "131320.814000", "131320.817000", "131320.820000", "131320.823000", "131320.826000", "131320.829000", "131320.832000", "131320.835000", "131320.838000", "131320.841000", "131320.844000", "131320.847000", "131320.850000", "131340.791000", "131340.794000", "131340.797000", "131340.800000", "131340.803000", "131340.806000", "131340.809000", "131340.813000", "131340.816000", "131340.819000", "131340.822000", "131340.825000", "131340.828000", "131340.831000", "131340.834000", "131340.838000", "131340.841000", "131340.844000", "131340.847000", "131340.850000", "131345.537000", "131345.540000", "131345.543000", "131345.546000", "131345.550000"],
      "InstanceCreationTime": ["131000.827000", "131000.831000", "131000.834000", "131000.837000", "131000.840000", "131000.843000", "131000.846000", "131000.849000", "131000.852000", "131000.856000", "131000.859000", "131000.862000", "131000.874000", "131000.877000", "131000.880000", "131000.883000", "131000.886000", "131000.889000", "131000.892000", "131000.895000", "131000.904000", "131000.907000", "131000.911000", "131000.914000", "131000.917000", "131000.920000", "131000.925000", "131000.928000", "131000.931000", "131000.934000", "131000.937000", "131000.940000", "131000.944000", "131000.947000", "131000.950000", "131000.953000", "131020.792000", "131020.795000", "131020.798000", "131020.801000", "131020.804000", "131020.807000", "131020.810000", "131020.813000", "131020.816000", "131020.819000", "131020.823000", "131020.826000", "131020.829000", "131020.832000", "131020.835000", "131020.838000", "131020.841000", "131020.844000", "131020.847000", "131020.850000", "131020.853000", "131020.856000", "131020.859000", "131020.862000", "131020.865000", "131020.868000", "131020.871000", "131020.874000", "131020.877000", "131040.792000", "131040.795000", "131040.798000", "131040.801000", "131040.804000", "131040.807000", "131040.826000", "131040.829000", "131040.832000", "131040.835000", "131040.838000", "131040.841000", "131040.844000", "131040.847000", "131040.850000", "131040.853000", "131040.856000", "131040.859000", "131040.862000", "131040.865000", "131040.868000", "131040.871000", "131040.875000", "131040.878000", "131040.881000", "131040.884000", "131040.887000", "131040.890000", "131100.792000", "131100.795000", "131100.798000", "131100.802000", "131100.805000", "131100.808000", "131100.811000", "131100.814000", "131100.817000", "131100.820000", "131100.823000", "131100.826000", "131100.829000", "131100.832000", "131100.835000", "131100.839000", "131100.842000", "131100.845000", "131100.848000", "131100.851000", "131100.854000", "131100.857000", "131100.860000", "131100.863000", "131100.866000", "131100.869000", "131100.872000", "131100.875000", "131120.791000", "131120.794000", "131120.797000", "131120.800000", "131120.803000", "131120.806000", "131120.810000", "131120.813000", "131120.816000", "131120.819000", "131120.822000", "131120.825000", "131120.828000", "131120.831000", "131120.834000", "131120.837000", "131120.840000", "131120.843000", "131120.846000", "131120.849000", "131120.852000", "131120.855000", "131120.858000", "131120.861000", "131120.865000", "131120.868000", "131120.871000", "131120.874000", "131120.877000", "131140.791000", "131140.794000", "131140.797000", "131140.800000", "131140.804000", "131140.807000", "131140.810000", "131140.813000", "131140.816000", "131140.819000", "131140.828000", "131140.831000", "131140.834000", "131140.837000", "131140.841000", "131140.844000", "131140.847000", "131140.850000", "131140.853000", "131140.856000", "131140.859000", "131140.862000", "131140.865000", "131140.868000", "131140.871000", "131200.791000", "131200.794000", "131200.797000", "131200.800000", "131200.803000", "131200.806000", "131200.810000", "131200.813000", "131200.816000", "131200.819000", "131200.822000", "131200.825000", "131200.828000", "131200.832000", "131200.835000", "131200.838000", "131200.841000", "131200.844000", "131200.847000", "131200.850000", "131220.791000", "131220.794000", "131220.797000", "131220.800000", "131220.803000", "131220.807000", "131220.810000", "131220.813000", "131220.819000", "131220.822000", "131220.826000", "131220.829000", "131220.832000", "131220.835000", "131220.838000", "131220.841000", "131220.844000", "131220.847000", "131220.850000", "131220.853000", "131240.792000", "131240.795000", "131240.798000", "131240.801000", "131240.804000", "131240.807000", "131240.811000", "131240.814000", "131240.817000", "131240.820000", "131240.823000", "131240.826000", "131240.829000", "131240.832000", "131240.835000", "131240.838000", "131240.841000", "131240.844000", "131240.848000", "131240.851000", "131300.792000", "131300.795000", "131300.798000", "131300.801000", "131300.804000", "131300.807000", "131300.810000", "131300.814000", "131300.817000", "131300.820000", "131300.823000", "131300.826000", "131300.829000", "131300.832000", "131300.835000", "131300.838000", "131300.841000", "131300.845000", "131300.848000", "131300.871000", "131320.792000", "131320.795000", "131320.798000", "131320.801000", "131320.804000", "131320.807000", "131320.810000", "131320.814000", "131320.817000", "131320.820000", "131320.823000", "131320.826000", "131320.829000", "131320.832000", "131320.835000", "131320.838000", "131320.841000", "131320.844000", "131320.847000", "131320.850000", "131340.791000", "131340.794000", "131340.797000", "131340.800000", "131340.803000", "131340.806000", "131340.809000", "131340.813000", "131340.816000", "131340.819000", "131340.822000", "131340.825000", "131340.828000", "131340.831000", "131340.834000", "131340.838000", "131340.841000", "131340.844000", "131340.847000", "131340.850000", "131345.537000", "131345.540000", "131345.543000", "131345.546000", "131345.550000"],
      "InstanceNumber": [1, 2, 3, 4, 5, 6, 7, 8, 9, 10, 11, 12, 13, 14, 15, 16, 17, 18, 19, 20, 21, 22, 23, 24, 25, 26, 27, 28, 29, 30, 31, 32, 33, 34, 35, 36, 37, 38, 39, 40, 41, 42, 43, 44, 45, 46, 47, 48, 49, 50, 51, 52, 53, 54, 55, 56, 57, 58, 59, 60, 61, 62, 63, 64, 65, 66, 67, 68, 69, 70, 71, 72, 73, 74, 75, 76, 77, 78, 79, 80, 81, 82, 83, 84, 85, 86, 87, 88, 89, 90, 91, 92, 93, 94, 95, 96, 97, 98, 99, 100, 101, 102, 103, 104, 105, 106, 107, 108, 109, 110, 111, 112, 113, 114, 115, 116, 117, 118, 119, 120, 121, 122, 123, 124, 125, 126, 127, 128, 129, 130, 131, 132, 133, 134, 135, 136, 137, 138, 139, 140, 141, 142, 143, 144, 145, 146, 147, 148, 149, 150, 151, 152, 153, 154, 155, 156, 157, 158, 159, 160, 161, 162, 163, 164, 165, 166, 167, 168, 169, 170, 171, 172, 173, 174, 175, 176, 177, 178, 179, 180, 181, 182, 183, 184, 185, 186, 187, 188, 189, 190, 191, 192, 193, 194, 195, 196, 197, 198, 199, 200, 201, 202, 203, 204, 205, 206, 207, 208, 209, 210, 211, 212, 213, 214, 215, 216, 217, 218, 219, 220, 221, 222, 223, 224, 225, 226, 227, 228, 229, 230, 231, 232, 233, 234, 235, 236, 237, 238, 239, 240, 241, 242, 243, 244, 245, 246, 247, 248, 249, 250, 251, 252, 253, 254, 255, 256, 257, 258, 259, 260, 261, 262, 263, 264, 265, 266, 267, 268, 269, 270, 271, 272, 273, 274, 275, 276, 277, 278, 279, 280, 281, 282, 283, 284, 285, 286, 287, 288, 289, 290, 291, 292, 293, 294, 295, 296, 297, 298, 299, 300],
      "LargestImagePixelValue": [37277, 35924, 35356, 35127, 34777, 34391, 34801, 34716, 34500, 34584, 34707, 34498, 34181, 34403, 34534, 33950, 34402, 34222, 34282, 34346, 34322, 34134, 34113, 34027, 34058, 33936, 34225, 34257, 34510, 34399, 34369, 34571, 34699, 34308, 34513, 34588, 34343, 34065, 34584, 34096, 34664, 34012, 34343, 34742, 34616, 34409, 34442, 34331, 34245, 34215, 34471, 34029, 34207, 34493, 34013, 34046, 34168, 34140, 34069, 34159, 33965, 34451, 34105, 34333, 34453, 34265, 34329, 33988, 34153, 34187, 34624, 34241, 34380, 34560, 34354, 34242, 34119, 34307, 34107, 34649, 34181, 34222, 34448, 34220, 34173, 34360, 33790, 33818, 34286, 34017, 34088, 34471, 34389, 34220, 34387, 34484, 34349, 34346, 34190, 34250, 34177, 34116, 34208, 34244, 34437, 34208, 34160, 34240, 34481, 34308, 34369, 34269, 34523, 34307, 34139, 34446, 34115, 34454, 34520, 34500, 34335, 34166, 34336, 34242, 34192, 33899, 34674, 34016, 34431, 34310, 34267, 34472, 34197, 34401, 34251, 34484, 34428, 34419, 33899, 34583, 34135, 34282, 34304, 34098, 34391, 33921, 33874, 33910, 34612, 34010, 34078, 34264, 34129, 34025, 34399, 34233, 34426, 34394, 34741, 34198, 33850, 33344, 33521, 34020, 33591, 33818, 34082, 34079, 33825, 34069, 34354, 33728, 33770, 34354, 34423, 33534, 33649, 34323, 33829, 33888, 33878, 34232, 34241, 34192, 34555, 34078, 33716, 34504, 33771, 33747, 34258, 34033, 34163, 34231, 34584, 33520, 34367, 34699, 34154, 33745, 33364, 34061, 33967, 34621, 34411, 34215, 34194, 33996, 33765, 33717, 33697, 34384, 33586, 33371, 34288, 34230, 34148, 33747, 34263, 34129, 34124, 34137, 34297, 34025, 34059, 34365, 34231, 34060, 34105, 34003, 34104, 34164, 34070, 34281, 33905, 34054, 34348, 33901, 33747, 34106, 34092, 34063, 34346, 34286, 34171, 33940, 33903, 33913, 33672, 34035, 33937, 34050, 33809, 33904, 34131, 33887, 33503, 33882, 34102, 34071, 34167, 34115, 34061, 34198, 34117, 33974, 34176, 34535, 33757, 33838, 34259, 33962, 33864, 33964, 33928, 34161, 33934, 34209, 33636, 33780, 33899, 33522, 33597, 34007, 34207, 34047, 33764, 33929, 33987, 33733, 33502, 33774, 33533, 33804, 34392, 34171, 33523, 34151, 34137, 33654],
      "WindowCenter": [10073.0, 10013.0, 9976.0, 9962.0, 9959.0, 9953.0, 9964.0, 9961.0, 9961.0, 9953.0, 9944.0, 9942.0, 9936.0, 9940.0, 9948.0, 9936.0, 9948.0, 9942.0, 9936.0, 9933.0, 9932.0, 9934.0, 9941.0, 9943.0, 9944.0, 9937.0, 9941.0, 9941.0, 9942.0, 9940.0, 9933.0, 9933.0, 9931.0, 9931.0, 9938.0, 9939.0, 9941.0, 9945.0, 9955.0, 9942.0, 9939.0, 9925.0, 9923.0, 9927.0, 9919.0, 9920.0, 9928.0, 9929.0, 9925.0, 9924.0, 9921.0, 9916.0, 9924.0, 9937.0, 9932.0, 9925.0, 9924.0, 9917.0, 9907.0, 9912.0, 9906.0, 9912.0, 9908.0, 9913.0, 9919.0, 9914.0, 9915.0, 9909.0, 9913.0, 9915.0, 9921.0, 9914.0, 9913.0, 9905.0, 9904.0, 9905.0, 9915.0, 9923.0, 9922.0, 9923.0, 9915.0, 9909.0, 9919.0, 9915.0, 9917.0, 9922.0, 9911.0, 9908.0, 9905.0, 9891.0, 9896.0, 9899.0, 9888.0, 9895.0, 9896.0, 9908.0, 9911.0, 9912.0, 9905.0, 9905.0, 9912.0, 9912.0, 9906.0, 9913.0, 9913.0, 9907.0, 9912.0, 9915.0, 9928.0, 9931.0, 9932.0, 9926.0, 9930.0, 9923.0, 9916.0, 9921.0, 9923.0, 9932.0, 9940.0, 9941.0, 9936.0, 9922.0, 9920.0, 9919.0, 9916.0, 9911.0, 9923.0, 9918.0, 9923.0, 9916.0, 9916.0, 9920.0, 9913.0, 9912.0, 9905.0, 9911.0, 9919.0, 9922.0, 9918.0, 9922.0, 9909.0, 9909.0, 9908.0, 9908.0, 9916.0, 9911.0, 9910.0, 9910.0, 9916.0, 9910.0, 9902.0, 9907.0, 9900.0, 9892.0, 9898.0, 9905.0, 9919.0, 9922.0, 9942.0, 9936.0, 9945.0, 9937.0, 9937.0, 9935.0, 9927.0, 9922.0, 9912.0, 9911.0, 9912.0, 9920.0, 9934.0, 9937.0, 9945.0, 9945.0, 9945.0, 9933.0, 9924.0, 9928.0, 9922.0, 9920.0, 9914.0, 9925.0, 9925.0, 9940.0, 9956.0, 9948.0, 9941.0, 9943.0, 9922.0, 9907.0, 9908.0, 9893.0, 9891.0, 9896.0, 9910.0, 9916.0, 9938.0, 9941.0, 9935.0, 9914.0, 9904.0, 9908.0, 9902.0, 9912.0, 9905.0, 9892.0, 9895.0, 9889.0, 9892.0, 9901.0, 9903.0, 9908.0, 9903.0, 9890.0, 9906.0, 9907.0, 9906.0, 9901.0, 9907.0, 9914.0, 9907.0, 9907.0, 9916.0, 9924.0, 9918.0, 9923.0, 9917.0, 9909.0, 9906.0, 9899.0, 9905.0, 9912.0, 9901.0, 9914.0, 9916.0, 9910.0, 9907.0, 9900.0, 9889.0, 9898.0, 9898.0, 9892.0, 9897.0, 9897.0, 9900.0, 9901.0, 9903.0, 9908.0, 9898.0, 9909.0, 9902.0, 9903.0, 9902.0, 9903.0, 9915.0, 9918.0, 9914.0, 9912.0, 9909.0, 9902.0, 9900.0, 9907.0, 9901.0, 9901.0, 9908.0, 9910.0, 9915.0, 9921.0, 9911.0, 9911.0, 9915.0, 9909.0, 9909.0, 9915.0, 9916.0, 9918.0, 9913.0, 9923.0, 9905.0, 9902.0, 9901.0, 9902.0, 9895.0, 9894.0, 9899.0, 9894.0, 9893.0, 9899.0, 9908.0, 9912.0, 9905.0, 9903.0, 9888.0, 9885.0, 9889.0, 9888.0, 9877.0, 9896.0, 9907.0, 9913.0],
