{
  "AcquisitionMatrixPE": 104,
  "AcquisitionNumber": 1,
  "AcquisitionTime": "10:31:31.370000",
  "BandwidthPerPixelPhaseEncode": 16.297,
  "BaseResolution": 104,
  "BodyPartExamined": "BRAIN",
  "ConsistencyInfo": "N4_VE11C_LATEST_20160120",
  "ConversionSoftware": "dcm2niix",
  "ConversionSoftwareVersion": "v1.0.20210317",
  "DerivedVendorReportedEchoSpacing": 0.000590009,
  "DeviceSerialNumber": "166018",
  "DwellTime": 2.1e-06,
  "EchoTime": 0.0376,
  "EchoTrainLength": 104,
  "EffectiveEchoSpacing": 0.000590009,
  "FlipAngle": 68,
  "ImageComments": "Unaliased MB6/PE3/LB",
  "ImageOrientationPatientDICOM": [0.996675, 0.04704, 0.0665357, -0.034108, 0.982404, -0.183626],
  "ImageType": [
    "ORIGINAL",
    "PRIMARY",
    "M",
    "MB",
    "ND",
    "MOSAIC"
],
  "ImagingFrequency": 123.197,
  "InPlanePhaseEncodingDirectionDICOM": "COL",
  "InstitutionAddress": "Washington Place 6,NYC,NYC,US,10003",
  "InstitutionName": "NYU - CBI",
  "InstitutionalDepartmentName": "Department",
  "MRAcquisitionType": "2D",
  "MagneticFieldStrength": 3,
  "Manufacturer": "Siemens",
  "ManufacturersModelName": "Prisma",
  "Modality": "MR",
  "MultibandAccelerationFactor": 6,
  "PartialFourier": 1,
  "PatientPosition": "HFS",
  "PercentPhaseFOV": 100,
  "PercentSampling": 100,
  "PhaseEncodingDirection": "j",
  "PhaseEncodingSteps": 104,
  "PhaseResolution": 1,
  "PixelBandwidth": 2290,
  "ProcedureStepDescription": "Investigators^Winawer",
  "ProtocolName": "cmrr_mbepi_s6_2mm_66sl_PA_task-wedgering2",
  "PulseSequenceDetails": "%CustomerSeq%\\cmrr_mbep2d_bold",
  "ReceiveCoilActiveElements": "HC1-7",
  "ReceiveCoilName": "HeadNeck_64",
  "ReconMatrixPE": 104,
  "RepetitionTime": 1,
  "SAR": 0.0807159,
  "ScanOptions": "FS",
  "ScanningSequence": "EP",
  "SequenceName": "epfid2d1_104",
  "SequenceVariant": "SK\\SS",
  "SeriesDescription": "cmrr_mbepi_s6_2mm_66sl_PA_task-wedgering2",
  "SeriesNumber": 14,
  "ShimSetting": [301, -12662, -8531, 236, 6, -174, -108, 17],
  "SliceThickness": 2,
  "SliceTiming": [0, 0.5325, 0.0875, 0.6225, 0.1775, 0.7125, 0.265, 0.8, 0.355, 0.89, 0.445, 0, 0.5325, 0.0875, 0.6225, 0.1775, 0.7125, 0.265, 0.8, 0.355, 0.89, 0.445, 0, 0.5325, 0.0875, 0.6225, 0.1775, 0.7125, 0.265, 0.8, 0.355, 0.89, 0.445, 0, 0.5325, 0.0875, 0.6225, 0.1775, 0.7125, 0.265, 0.8, 0.355, 0.89, 0.445, 0, 0.5325, 0.0875, 0.6225, 0.1775, 0.7125, 0.265, 0.8, 0.355, 0.89, 0.445, 0, 0.5325, 0.0875, 0.6225, 0.1775, 0.7125, 0.265, 0.8, 0.355, 0.89, 0.445],
  "SoftwareVersions": "syngo MR E11",
  "SpacingBetweenSlices": 2,
  "StationName": "AWP166018",
  "TaskName": "wedgering2",
  "TotalReadoutTime": 0.060771,
  "TxRefAmp": 212.876,
  "VendorReportedEchoSpacing": 0.00059,
  "WipMemBlock": "9aeaf75c-9c4e-4037-a54c-b4a1a5ed6fba||Sequence: R016 ve11c/master r/8780670; Nov 27 2017 15:05:12 by eja",
  "dcmmeta_affine": [
    [-1.9933491945266724, -0.06821606308221817, 0.14800551533699036, 108.71761322021484],
    [-0.09408003091812134, 1.964808464050293, -0.3614922761917114, -71.12004089355469],
    [0.13307145237922668, 0.367252379655838, 1.9614834785461426, -56.41318130493164],
    [0.0, 0.0, 0.0, 1.0]
],
  "dcmmeta_reorient_transform": [
    [0.0, -1.0, 0.0, 103.0],
    [1.0, 0.0, 0.0, 0.0],
    [0.0, 0.0, 1.0, 0.0],
    [0.0, 0.0, 0.0, 1.0]
],
  "dcmmeta_shape": [104, 104, 66, 300],
  "dcmmeta_slice_dim": 2,
  "dcmmeta_version": 0.6,
  "global": {
    "const": {
      "AccessionNumber": "Lf73u5oL",
      "AcquisitionMatrix": [104, 0, 0, 104],
      "AngioFlag": "N",
      "BitsAllocated": 16,
      "BitsStored": 16,
      "BodyPartExamined": "BRAIN",
      "Columns": 936,
      "EchoNumbers": 1,
      "EchoTime": 37.6,
      "EchoTrainLength": 104,
      "FlipAngle": 68.0,
      "HighBit": 15,
      "ImageOrientationPatient": [0.99667458779889, 0.04704001506101, 0.06653572738743, -0.0341080311943, 0.98240422772995, -0.1836261842613],
      "ImagePositionPatient": [-902.54673232564, -987.75284065602, 78.833073960262],
      "ImageType": [
        "ORIGINAL",
        "PRIMARY",
        "M",
        "MB",
        "ND",
        "MOSAIC"
],
      "ImagedNucleus": "1H",
      "ImagingFrequency": 123.196823,
      "InPlanePhaseEncodingDirection": "COL",
      "MRAcquisitionType": "2D",
      "MagneticFieldStrength": 3.0,
      "Manufacturer": "SIEMENS",
      "ManufacturerModelName": "Prisma",
      "Modality": "MR",
      "NumberOfAverages": 1.0,
      "NumberOfPhaseEncodingSteps": 104,
      "PercentPhaseFieldOfView": 100.0,
      "PercentSampling": 100.0,
      "PerformedProcedureStepStartTime": "095717.433000",
      "PhotometricInterpretation": "MONOCHROME2",
      "PixelBandwidth": 2290.0,
      "PixelRepresentation": 0,
      "PixelSpacing": [2.0, 2.0],
      "ProtocolName": "cmrr_mbepi_s6_2mm_66sl_PA_task-wedgering2",
      "RepetitionTime": 1000.0,
      "Rows": 936,
      "SAR": 0.08071586686958,
      "SamplesPerPixel": 1,
      "ScanOptions": "FS",
      "ScanningSequence": "EP",
      "SequenceName": "epfid2d1_104",
      "SequenceVariant": [
        "SK",
        "SS"
],
      "SeriesDescription": "cmrr_mbepi_s6_2mm_66sl_PA_task-wedgering2",
      "SeriesNumber": 14,
      "SeriesTime": "103253.435000",
      "SliceLocation": -34.426685650345,
      "SliceThickness": 2.0,
      "SmallestImagePixelValue": 0,
      "SoftwareVersions": "syngo MR E11",
      "SpacingBetweenSlices": 1.9999999584751,
      "SpecificCharacterSet": "ISO_IR 100",
      "StudyID": "1",
      "StudyTime": "095717.380000",
      "TransmitCoilName": "Body",
      "VariableFlipAngleFlag": "N",
      "WindowCenterWidthExplanation": "Algo1",
      "dBdt": 0.0},
    "slices": {}
  },
  "time": {
    "samples": {
      "AcquisitionNumber": [1, 2, 3, 4, 5, 6, 7, 8, 9, 10, 11, 12, 13, 14, 15, 16, 17, 18, 19, 20, 21, 22, 23, 24, 25, 26, 27, 28, 29, 30, 31, 32, 33, 34, 35, 36, 37, 38, 39, 40, 41, 42, 43, 44, 45, 46, 47, 48, 49, 50, 51, 52, 53, 54, 55, 56, 57, 58, 59, 60, 61, 62, 63, 64, 65, 66, 67, 68, 69, 70, 71, 72, 73, 74, 75, 76, 77, 78, 79, 80, 81, 82, 83, 84, 85, 86, 87, 88, 89, 90, 91, 92, 93, 94, 95, 96, 97, 98, 99, 100, 101, 102, 103, 104, 105, 106, 107, 108, 109, 110, 111, 112, 113, 114, 115, 116, 117, 118, 119, 120, 121, 122, 123, 124, 125, 126, 127, 128, 129, 130, 131, 132, 133, 134, 135, 136, 137, 138, 139, 140, 141, 142, 143, 144, 145, 146, 147, 148, 149, 150, 151, 152, 153, 154, 155, 156, 157, 158, 159, 160, 161, 162, 163, 164, 165, 166, 167, 168, 169, 170, 171, 172, 173, 174, 175, 176, 177, 178, 179, 180, 181, 182, 183, 184, 185, 186, 187, 188, 189, 190, 191, 192, 193, 194, 195, 196, 197, 198, 199, 200, 201, 202, 203, 204, 205, 206, 207, 208, 209, 210, 211, 212, 213, 214, 215, 216, 217, 218, 219, 220, 221, 222, 223, 224, 225, 226, 227, 228, 229, 230, 231, 232, 233, 234, 235, 236, 237, 238, 239, 240, 241, 242, 243, 244, 245, 246, 247, 248, 249, 250, 251, 252, 253, 254, 255, 256, 257, 258, 259, 260, 261, 262, 263, 264, 265, 266, 267, 268, 269, 270, 271, 272, 273, 274, 275, 276, 277, 278, 279, 280, 281, 282, 283, 284, 285, 286, 287, 288, 289, 290, 291, 292, 293, 294, 295, 296, 297, 298, 299, 300],
      "AcquisitionTime": ["103131.370000", "103132.370000", "103133.370000", "103134.370000", "103135.370000", "103136.370000", "103137.370000", "103138.370000", "103139.370000", "103140.370000", "103141.370000", "103142.370000", "103143.370000", "103144.370000", "103145.370000", "103146.370000", "103147.370000", "103148.370000", "103149.370000", "103150.370000", "103151.370000", "103152.370000", "103153.370000", "103154.370000", "103155.370000", "103156.370000", "103157.370000", "103158.370000", "103159.370000", "103200.370000", "103201.370000", "103202.370000", "103203.370000", "103204.370000", "103205.370000", "103206.370000", "103207.370000", "103208.370000", "103209.370000", "103210.370000", "103211.370000", "103212.370000", "103213.370000", "103214.370000", "103215.370000", "103216.370000", "103217.370000", "103218.370000", "103219.370000", "103220.370000", "103221.370000", "103222.370000", "103223.370000", "103224.370000", "103225.370000", "103226.370000", "103227.370000", "103228.370000", "103229.370000", "103230.370000", "103231.370000", "103232.370000", "103233.370000", "103234.370000", "103235.370000", "103236.370000", "103237.370000", "103238.370000", "103239.370000", "103240.370000", "103241.370000", "103242.370000", "103243.370000", "103244.370000", "103245.370000", "103246.370000", "103247.370000", "103248.370000", "103249.370000", "103250.370000", "103251.370000", "103252.370000", "103253.370000", "103254.370000", "103255.370000", "103256.370000", "103257.370000", "103258.370000", "103259.370000", "103300.370000", "103301.370000", "103302.370000", "103303.370000", "103304.370000", "103305.370000", "103306.370000", "103307.370000", "103308.370000", "103309.370000", "103310.370000", "103311.370000", "103312.370000", "103313.370000", "103314.370000", "103315.370000", "103316.370000", "103317.370000", "103318.370000", "103319.370000", "103320.370000", "103321.370000", "103322.370000", "103323.370000", "103324.370000", "103325.370000", "103326.370000", "103327.370000", "103328.370000", "103329.370000", "103330.370000", "103331.370000", "103332.370000", "103333.370000", "103334.370000", "103335.370000", "103336.370000", "103337.370000", "103338.370000", "103339.370000", "103340.370000", "103341.370000", "103342.370000", "103343.370000", "103344.370000", "103345.370000", "103346.370000", "103347.370000", "103348.370000", "103349.370000", "103350.370000", "103351.370000", "103352.370000", "103353.370000", "103354.370000", "103355.370000", "103356.370000", "103357.370000", "103358.370000", "103359.370000", "103400.370000", "103401.370000", "103402.370000", "103403.370000", "103404.370000", "103405.370000", "103406.370000", "103407.370000", "103408.370000", "103409.370000", "103410.370000", "103411.370000", "103412.370000", "103413.370000", "103414.370000", "103415.370000", "103416.370000", "103417.370000", "103418.370000", "103419.370000", "103420.370000", "103421.370000", "103422.370000", "103423.370000", "103424.370000", "103425.370000", "103426.370000", "103427.370000", "103428.370000", "103429.370000", "103430.370000", "103431.370000", "103432.370000", "103433.370000", "103434.370000", "103435.370000", "103436.370000", "103437.370000", "103438.370000", "103439.370000", "103440.370000", "103441.370000", "103442.370000", "103443.370000", "103444.370000", "103445.370000", "103446.370000", "103447.370000", "103448.370000", "103449.370000", "103450.370000", "103451.370000", "103452.370000", "103453.370000", "103454.370000", "103455.370000", "103456.370000", "103457.370000", "103458.370000", "103459.370000", "103500.370000", "103501.370000", "103502.370000", "103503.370000", "103504.370000", "103505.370000", "103506.370000", "103507.370000", "103508.370000", "103509.370000", "103510.370000", "103511.370000", "103512.370000", "103513.370000", "103514.370000", "103515.370000", "103516.370000", "103517.370000", "103518.370000", "103519.370000", "103520.370000", "103521.370000", "103522.370000", "103523.370000", "103524.370000", "103525.370000", "103526.370000", "103527.370000", "103528.370000", "103529.370000", "103530.370000", "103531.370000", "103532.370000", "103533.370000", "103534.370000", "103535.370000", "103536.370000", "103537.370000", "103538.370000", "103539.370000", "103540.370000", "103541.370000", "103542.370000", "103543.370000", "103544.370000", "103545.370000", "103546.370000", "103547.370000", "103548.370000", "103549.370000", "103550.370000", "103551.370000", "103552.370000", "103553.370000", "103554.370000", "103555.370000", "103556.370000", "103557.370000", "103558.370000", "103559.370000", "103600.370000", "103601.370000", "103602.370000", "103603.370000", "103604.370000", "103605.370000", "103606.370000", "103607.370000", "103608.370000", "103609.370000", "103610.370000", "103611.370000", "103612.370000", "103613.370000", "103614.370000", "103615.370000", "103616.370000", "103617.370000", "103618.370000", "103619.370000", "103620.370000", "103621.370000", "103622.370000", "103623.370000", "103624.370000", "103625.370000", "103626.370000", "103627.370000", "103628.370000", "103629.370000", "103630.370000"],
      "ContentTime": ["103253.438000", "103253.441000", "103253.444000", "103253.448000", "103253.451000", "103253.454000", "103253.457000", "103253.460000", "103253.463000", "103253.473000", "103253.476000", "103253.480000", "103253.483000", "103253.486000", "103253.489000", "103253.492000", "103253.495000", "103253.498000", "103253.501000", "103253.504000", "103253.507000", "103253.510000", "103253.513000", "103253.516000", "103253.519000", "103253.522000", "103253.525000", "103253.529000", "103253.532000", "103253.535000", "103253.538000", "103253.541000", "103253.544000", "103253.547000", "103253.550000", "103253.553000", "103253.556000", "103253.559000", "103253.562000", "103253.565000", "103253.568000", "103253.571000", "103253.574000", "103253.577000", "103313.386000", "103313.389000", "103313.392000", "103313.395000", "103313.398000", "103313.401000", "103313.404000", "103313.408000", "103313.411000", "103313.414000", "103313.417000", "103313.420000", "103313.434000", "103313.437000", "103313.440000", "103313.443000", "103313.446000", "103313.449000", "103313.452000", "103313.455000", "103313.458000", "103313.461000", "103313.464000", "103313.468000", "103313.471000", "103313.474000", "103313.477000", "103313.480000", "103333.386000", "103333.396000", "103333.399000", "103333.403000", "103333.406000", "103333.409000", "103333.412000", "103333.415000", "103333.419000", "103333.422000", "103333.425000", "103333.428000", "103333.431000", "103333.434000", "103333.437000", "103333.440000", "103333.443000", "103333.446000", "103333.449000", "103333.452000", "103333.455000", "103333.459000", "103333.462000", "103333.465000", "103333.468000", "103333.471000", "103333.474000", "103333.477000", "103353.386000", "103353.389000", "103353.392000", "103353.395000", "103353.398000", "103353.401000", "103353.404000", "103353.408000", "103353.411000", "103353.414000", "103353.417000", "103353.420000", "103353.423000", "103353.426000", "103353.429000", "103353.432000", "103353.435000", "103353.438000", "103353.441000", "103353.444000", "103353.447000", "103353.450000", "103353.453000", "103353.456000", "103353.459000", "103353.462000", "103353.465000", "103353.468000", "103353.471000", "103413.385000", "103413.388000", "103413.391000", "103413.394000", "103413.398000", "103413.401000", "103413.404000", "103413.407000", "103413.410000", "103413.413000", "103413.416000", "103413.419000", "103413.422000", "103413.425000", "103413.428000", "103413.431000", "103413.434000", "103413.437000", "103413.440000", "103413.443000", "103413.446000", "103413.449000", "103413.452000", "103413.455000", "103413.458000", "103413.461000", "103413.464000", "103413.467000", "103433.385000", "103433.388000", "103433.391000", "103433.394000", "103433.397000", "103433.400000", "103433.403000", "103433.406000", "103433.410000", "103433.413000", "103433.416000", "103433.419000", "103433.422000", "103433.425000", "103433.428000", "103433.432000", "103433.435000", "103433.438000", "103433.441000", "103433.444000", "103433.447000", "103433.450000", "103433.453000", "103433.456000", "103453.396000", "103453.399000", "103453.402000", "103453.405000", "103453.408000", "103453.411000", "103453.415000", "103453.418000", "103453.421000", "103453.424000", "103453.427000", "103453.430000", "103453.433000", "103453.436000", "103453.439000", "103453.442000", "103453.445000", "103453.448000", "103453.451000", "103453.454000", "103513.385000", "103513.388000", "103513.391000", "103513.394000", "103513.397000", "103513.400000", "103513.403000", "103513.406000", "103513.410000", "103513.413000", "103513.416000", "103513.419000", "103513.422000", "103513.425000", "103513.428000", "103513.431000", "103513.434000", "103513.437000", "103513.440000", "103513.443000", "103533.386000", "103533.389000", "103533.392000", "103533.395000", "103533.398000", "103533.401000", "103533.404000", "103533.407000", "103533.411000", "103533.414000", "103533.417000", "103533.420000", "103533.423000", "103533.426000", "103533.429000", "103533.432000", "103533.435000", "103533.438000", "103533.441000", "103533.444000", "103553.386000", "103553.389000", "103553.392000", "103553.395000", "103553.398000", "103553.401000", "103553.404000", "103553.407000", "103553.411000", "103553.414000", "103553.417000", "103553.420000", "103553.423000", "103553.426000", "103553.429000", "103553.432000", "103553.435000", "103553.438000", "103553.441000", "103553.444000", "103613.386000", "103613.389000", "103613.392000", "103613.395000", "103613.398000", "103613.401000", "103613.405000", "103613.408000", "103613.411000", "103613.414000", "103613.417000", "103613.420000", "103613.423000", "103613.426000", "103613.429000", "103613.432000", "103613.435000", "103613.439000", "103613.442000", "103613.445000", "103632.034000", "103632.037000", "103632.040000", "103632.043000", "103632.046000", "103632.049000", "103632.052000", "103632.056000", "103632.059000", "103632.062000", "103632.065000", "103632.068000", "103632.071000", "103632.074000", "103632.077000", "103632.080000", "103632.083000", "103632.086000", "103632.090000"],
      "InstanceCreationTime": ["103253.438000", "103253.441000", "103253.444000", "103253.448000", "103253.451000", "103253.454000", "103253.457000", "103253.460000", "103253.463000", "103253.473000", "103253.476000", "103253.480000", "103253.483000", "103253.486000", "103253.489000", "103253.492000", "103253.495000", "103253.498000", "103253.501000", "103253.504000", "103253.507000", "103253.510000", "103253.513000", "103253.516000", "103253.519000", "103253.522000", "103253.525000", "103253.529000", "103253.532000", "103253.535000", "103253.538000", "103253.541000", "103253.544000", "103253.547000", "103253.550000", "103253.553000", "103253.556000", "103253.559000", "103253.562000", "103253.565000", "103253.568000", "103253.571000", "103253.574000", "103253.577000", "103313.386000", "103313.389000", "103313.392000", "103313.395000", "103313.398000", "103313.401000", "103313.404000", "103313.408000", "103313.411000", "103313.414000", "103313.417000", "103313.420000", "103313.434000", "103313.437000", "103313.440000", "103313.443000", "103313.446000", "103313.449000", "103313.452000", "103313.455000", "103313.458000", "103313.461000", "103313.464000", "103313.468000", "103313.471000", "103313.474000", "103313.477000", "103313.480000", "103333.386000", "103333.396000", "103333.399000", "103333.403000", "103333.406000", "103333.409000", "103333.412000", "103333.415000", "103333.419000", "103333.422000", "103333.425000", "103333.428000", "103333.431000", "103333.434000", "103333.437000", "103333.440000", "103333.443000", "103333.446000", "103333.449000", "103333.452000", "103333.455000", "103333.459000", "103333.462000", "103333.465000", "103333.468000", "103333.471000", "103333.474000", "103333.477000", "103353.386000", "103353.389000", "103353.392000", "103353.395000", "103353.398000", "103353.401000", "103353.404000", "103353.408000", "103353.411000", "103353.414000", "103353.417000", "103353.420000", "103353.423000", "103353.426000", "103353.429000", "103353.432000", "103353.435000", "103353.438000", "103353.441000", "103353.444000", "103353.447000", "103353.450000", "103353.453000", "103353.456000", "103353.459000", "103353.462000", "103353.465000", "103353.468000", "103353.471000", "103413.385000", "103413.388000", "103413.391000", "103413.394000", "103413.398000", "103413.401000", "103413.404000", "103413.407000", "103413.410000", "103413.413000", "103413.416000", "103413.419000", "103413.422000", "103413.425000", "103413.428000", "103413.431000", "103413.434000", "103413.437000", "103413.440000", "103413.443000", "103413.446000", "103413.449000", "103413.452000", "103413.455000", "103413.458000", "103413.461000", "103413.464000", "103413.467000", "103433.385000", "103433.388000", "103433.391000", "103433.394000", "103433.397000", "103433.400000", "103433.403000", "103433.406000", "103433.410000", "103433.413000", "103433.416000", "103433.419000", "103433.422000", "103433.425000", "103433.428000", "103433.432000", "103433.435000", "103433.438000", "103433.441000", "103433.444000", "103433.447000", "103433.450000", "103433.453000", "103433.456000", "103453.396000", "103453.399000", "103453.402000", "103453.405000", "103453.408000", "103453.411000", "103453.415000", "103453.418000", "103453.421000", "103453.424000", "103453.427000", "103453.430000", "103453.433000", "103453.436000", "103453.439000", "103453.442000", "103453.445000", "103453.448000", "103453.451000", "103453.454000", "103513.385000", "103513.388000", "103513.391000", "103513.394000", "103513.397000", "103513.400000", "103513.403000", "103513.406000", "103513.410000", "103513.413000", "103513.416000", "103513.419000", "103513.422000", "103513.425000", "103513.428000", "103513.431000", "103513.434000", "103513.437000", "103513.440000", "103513.443000", "103533.386000", "103533.389000", "103533.392000", "103533.395000", "103533.398000", "103533.401000", "103533.404000", "103533.407000", "103533.411000", "103533.414000", "103533.417000", "103533.420000", "103533.423000", "103533.426000", "103533.429000", "103533.432000", "103533.435000", "103533.438000", "103533.441000", "103533.444000", "103553.386000", "103553.389000", "103553.392000", "103553.395000", "103553.398000", "103553.401000", "103553.404000", "103553.407000", "103553.411000", "103553.414000", "103553.417000", "103553.420000", "103553.423000", "103553.426000", "103553.429000", "103553.432000", "103553.435000", "103553.438000", "103553.441000", "103553.444000", "103613.386000", "103613.389000", "103613.392000", "103613.395000", "103613.398000", "103613.401000", "103613.405000", "103613.408000", "103613.411000", "103613.414000", "103613.417000", "103613.420000", "103613.423000", "103613.426000", "103613.429000", "103613.432000", "103613.435000", "103613.439000", "103613.442000", "103613.445000", "103632.034000", "103632.037000", "103632.040000", "103632.043000", "103632.046000", "103632.049000", "103632.052000", "103632.056000", "103632.059000", "103632.062000", "103632.065000", "103632.068000", "103632.071000", "103632.074000", "103632.077000", "103632.080000", "103632.083000", "103632.086000", "103632.090000"],
      "InstanceNumber": [1, 2, 3, 4, 5, 6, 7, 8, 9, 10, 11, 12, 13, 14, 15, 16, 17, 18, 19, 20, 21, 22, 23, 24, 25, 26, 27, 28, 29, 30, 31, 32, 33, 34, 35, 36, 37, 38, 39, 40, 41, 42, 43, 44, 45, 46, 47, 48, 49, 50, 51, 52, 53, 54, 55, 56, 57, 58, 59, 60, 61, 62, 63, 64, 65, 66, 67, 68, 69, 70, 71, 72, 73, 74, 75, 76, 77, 78, 79, 80, 81, 82, 83, 84, 85, 86, 87, 88, 89, 90, 91, 92, 93, 94, 95, 96, 97, 98, 99, 100, 101, 102, 103, 104, 105, 106, 107, 108, 109, 110, 111, 112, 113, 114, 115, 116, 117, 118, 119, 120, 121, 122, 123, 124, 125, 126, 127, 128, 129, 130, 131, 132, 133, 134, 135, 136, 137, 138, 139, 140, 141, 142, 143, 144, 145, 146, 147, 148, 149, 150, 151, 152, 153, 154, 155, 156, 157, 158, 159, 160, 161, 162, 163, 164, 165, 166, 167, 168, 169, 170, 171, 172, 173, 174, 175, 176, 177, 178, 179, 180, 181, 182, 183, 184, 185, 186, 187, 188, 189, 190, 191, 192, 193, 194, 195, 196, 197, 198, 199, 200, 201, 202, 203, 204, 205, 206, 207, 208, 209, 210, 211, 212, 213, 214, 215, 216, 217, 218, 219, 220, 221, 222, 223, 224, 225, 226, 227, 228, 229, 230, 231, 232, 233, 234, 235, 236, 237, 238, 239, 240, 241, 242, 243, 244, 245, 246, 247, 248, 249, 250, 251, 252, 253, 254, 255, 256, 257, 258, 259, 260, 261, 262, 263, 264, 265, 266, 267, 268, 269, 270, 271, 272, 273, 274, 275, 276, 277, 278, 279, 280, 281, 282, 283, 284, 285, 286, 287, 288, 289, 290, 291, 292, 293, 294, 295, 296, 297, 298, 299, 300],
      "LargestImagePixelValue": [43238, 42985, 42469, 41986, 40789, 40282, 40069, 38653, 39056, 38793, 38982, 39172, 38785, 39050, 38859, 38612, 37805, 38665, 36599, 36301, 37352, 36770, 37324, 38337, 38136, 38265, 38593, 37839, 37714, 38776, 38304, 37972, 39054, 38077, 36112, 39598, 38891, 37509, 38402, 37367, 37263, 37405, 37817, 36975, 36322, 35654, 34988, 36250, 36285, 36140, 35733, 35930, 35819, 35966, 36356, 36272, 36045, 36426, 36104, 37375, 36640, 35990, 36633, 36975, 37840, 36648, 36429, 36462, 37668, 38721, 38101, 38357, 37083, 37720, 37763, 37308, 37276, 38531, 37468, 37601, 38670, 38089, 38190, 38154, 38607, 37906, 36886, 37987, 38064, 39102, 38339, 37724, 37549, 38345, 37277, 37210, 38221, 37424, 36577, 37638, 36468, 35354, 36749, 35801, 34526, 35772, 35532, 34548, 34443, 34636, 35061, 35369, 35375, 36306, 36226, 37128, 36506, 35480, 37408, 35755, 36231, 36450, 37123, 36003, 36880, 37130, 35507, 35384, 36416, 36177, 36036, 35874, 36510, 35760, 36324, 36550, 36010, 36765, 37548, 36855, 37670, 40388, 40564, 39206, 38752, 39130, 38326, 37958, 37188, 37352, 35701, 34926, 34171, 34642, 34406, 35014, 34050, 34054, 34011, 33383, 33819, 33879, 34492, 34032, 34326, 34131, 34259, 34031, 34362, 34135, 35088, 35798, 35423, 36131, 35355, 35366, 35725, 35164, 35330, 35461, 35160, 35526, 36197, 35137, 36103, 35373, 35168, 36658, 35705, 35479, 35647, 35328, 35022, 35742, 35360, 34274, 34649, 34453, 33874, 34846, 35404, 34715, 34717, 34570, 35008, 34560, 35180, 35695, 35019, 35878, 35780, 35617, 35099, 34486, 33857, 34501, 33989, 34214, 34445, 34448, 34740, 34337, 34377, 34908, 34883, 34671, 35123, 34499, 34276, 35360, 34790, 34324, 34655, 35449, 34773, 34611, 34998, 33915, 33850, 34154, 33165, 32904, 33780, 32775, 32975, 33248, 32865, 32862, 32645, 32393, 32197, 33000, 32494, 32523, 32191, 33635, 32062, 31765, 32748, 31872, 31868, 32510, 32004, 31944, 31986, 32436, 32163, 32179, 32198, 31998, 33159, 32571, 32476, 31918, 32612, 32477, 31908, 32680, 32783, 32196, 32565, 32434, 32113, 32255, 32574, 32427, 32280, 32657, 31953, 32080, 32709, 32397, 32145, 32029, 32221, 32003, 31858, 32201, 32425, 31918],
      "WindowCenter": [9794.0, 9764.0, 9748.0, 9730.0, 9702.0, 9694.0, 9696.0, 9688.0, 9708.0, 9704.0, 9702.0, 9704.0, 9689.0, 9685.0, 9675.0, 9669.0, 9655.0, 9650.0, 9616.0, 9630.0, 9669.0, 9675.0, 9691.0, 9707.0, 9703.0, 9707.0, 9715.0, 9705.0, 9705.0, 9724.0, 9718.0, 9711.0, 9712.0, 9686.0, 9649.0, 9688.0, 9691.0, 9675.0, 9691.0, 9672.0, 9641.0, 9632.0, 9630.0, 9617.0, 9613.0, 9595.0, 9585.0, 9592.0, 9584.0, 9588.0, 9592.0, 9581.0, 9587.0, 9589.0, 9604.0, 9597.0, 9607.0, 9622.0, 9625.0, 9643.0, 9637.0, 9627.0, 9634.0, 9647.0, 9658.0, 9649.0, 9655.0, 9656.0, 9673.0, 9692.0, 9691.0, 9696.0, 9681.0, 9686.0, 9685.0, 9680.0, 9681.0, 9696.0, 9686.0, 9699.0, 9712.0, 9717.0, 9724.0, 9726.0, 9730.0, 9718.0, 9700.0, 9700.0, 9699.0, 9700.0, 9702.0, 9700.0, 9693.0, 9703.0, 9687.0, 9695.0, 9707.0, 9690.0, 9672.0, 9684.0, 9669.0, 9651.0, 9660.0, 9645.0, 9613.0, 9611.0, 9597.0, 9586.0, 9593.0, 9601.0, 9616.0, 9632.0, 9638.0, 9644.0, 9642.0, 9648.0, 9642.0, 9633.0, 9660.0, 9651.0, 9668.0, 9676.0, 9695.0, 9688.0, 9694.0, 9699.0, 9676.0, 9675.0, 9670.0, 9661.0, 9660.0, 9656.0, 9674.0, 9673.0, 9686.0, 9687.0, 9683.0, 9684.0, 9695.0, 9675.0, 9687.0, 9732.0, 9743.0, 9723.0, 9715.0, 9705.0, 9669.0, 9645.0, 9608.0, 9606.0, 9573.0, 9547.0, 9525.0, 9529.0, 9530.0, 9534.0, 9511.0, 9514.0, 9515.0, 9525.0, 9538.0, 9549.0, 9564.0, 9560.0, 9569.0, 9576.0, 9582.0, 9594.0, 9611.0, 9618.0, 9638.0, 9645.0, 9648.0, 9666.0, 9667.0, 9670.0, 9677.0, 9681.0, 9675.0, 9688.0, 9673.0, 9664.0, 9677.0, 9667.0, 9675.0, 9676.0, 9672.0, 9692.0, 9686.0, 9681.0, 9686.0, 9685.0, 9672.0, 9684.0, 9666.0, 9641.0, 9655.0, 9652.0, 9633.0, 9649.0, 9654.0, 9643.0, 9647.0, 9654.0, 9667.0, 9669.0, 9683.0, 9681.0, 9668.0, 9672.0, 9663.0, 9660.0, 9651.0, 9644.0, 9631.0, 9637.0, 9613.0, 9621.0, 9629.0, 9628.0, 9640.0, 9640.0, 9646.0, 9660.0, 9664.0, 9662.0, 9667.0, 9663.0, 9657.0, 9674.0, 9660.0, 9648.0, 9652.0, 9663.0, 9646.0, 9643.0, 9633.0, 9624.0, 9640.0, 9658.0, 9650.0, 9640.0, 9654.0, 9631.0, 9621.0, 9622.0, 9604.0, 9592.0, 9586.0, 9580.0, 9576.0, 9599.0, 9601.0, 9604.0, 9604.0, 9619.0, 9591.0, 9584.0, 9591.0, 9582.0, 9580.0, 9587.0, 9580.0, 9582.0, 9589.0, 9595.0, 9588.0, 9591.0, 9588.0, 9578.0, 9596.0, 9585.0, 9583.0, 9579.0, 9593.0, 9592.0, 9585.0, 9594.0, 9602.0, 9603.0, 9618.0, 9611.0, 9607.0, 9606.0, 9604.0, 9604.0, 9590.0, 9594.0, 9587.0, 9587.0, 9595.0, 9589.0, 9597.0, 9590.0, 9603.0, 9591.0, 9583.0, 9586.0, 9579.0, 9572.0],
