{
  "AcquisitionMatrixPE": 104,
  "AcquisitionNumber": 1,
  "AcquisitionTime": "10:18:29.047500",
  "BandwidthPerPixelPhaseEncode": 16.297,
  "BaseResolution": 104,
  "BodyPartExamined": "BRAIN",
  "ConsistencyInfo": "N4_VE11C_LATEST_20160120",
  "ConversionSoftware": "dcm2niix",
  "ConversionSoftwareVersion": "v1.0.20210317",
  "DerivedVendorReportedEchoSpacing": 0.000590009,
  "DeviceSerialNumber": "166018",
  "DwellTime": 2.1e-06,
  "EchoTime": 0.0376,
  "EchoTrainLength": 104,
  "EffectiveEchoSpacing": 0.000590009,
  "FlipAngle": 68,
  "ImageComments": "Unaliased MB6/PE3/LB",
  "ImageOrientationPatientDICOM": [0.996675, 0.04704, 0.0665357, -0.034108, 0.982404, -0.183626],
  "ImageType": [
    "ORIGINAL",
    "PRIMARY",
    "M",
    "MB",
    "ND",
    "MOSAIC"
],
  "ImagingFrequency": 123.197,
  "InPlanePhaseEncodingDirectionDICOM": "COL",
  "InstitutionAddress": "Washington Place 6,NYC,NYC,US,10003",
  "InstitutionName": "NYU - CBI",
  "InstitutionalDepartmentName": "Department",
  "MRAcquisitionType": "2D",
  "MagneticFieldStrength": 3,
  "Manufacturer": "Siemens",
  "ManufacturersModelName": "Prisma",
  "Modality": "MR",
  "MultibandAccelerationFactor": 6,
  "PartialFourier": 1,
  "PatientPosition": "HFS",
  "PercentPhaseFOV": 100,
  "PercentSampling": 100,
  "PhaseEncodingDirection": "j",
  "PhaseEncodingSteps": 104,
  "PhaseResolution": 1,
  "PixelBandwidth": 2290,
  "ProcedureStepDescription": "Investigators^Winawer",
  "ProtocolName": "cmrr_mbepi_s6_2mm_66sl_PA_task-wedgering1",
  "PulseSequenceDetails": "%CustomerSeq%\\cmrr_mbep2d_bold",
  "ReceiveCoilActiveElements": "HC1-7",
  "ReceiveCoilName": "HeadNeck_64",
  "ReconMatrixPE": 104,
  "RepetitionTime": 1,
  "SAR": 0.0807159,
  "ScanOptions": "FS",
  "ScanningSequence": "EP",
  "SequenceName": "epfid2d1_104",
  "SequenceVariant": "SK\\SS",
  "SeriesDescription": "cmrr_mbepi_s6_2mm_66sl_PA_task-wedgering1",
  "SeriesNumber": 10,
  "ShimSetting": [301, -12662, -8531, 236, 6, -174, -108, 17],
  "SliceThickness": 2,
  "SliceTiming": [0, 0.535, 0.0875, 0.6225, 0.1775, 0.7125, 0.2675, 0.8, 0.355, 0.89, 0.445, 0, 0.535, 0.0875, 0.6225, 0.1775, 0.7125, 0.2675, 0.8, 0.355, 0.89, 0.445, 0, 0.535, 0.0875, 0.6225, 0.1775, 0.7125, 0.2675, 0.8, 0.355, 0.89, 0.445, 0, 0.535, 0.0875, 0.6225, 0.1775, 0.7125, 0.2675, 0.8, 0.355, 0.89, 0.445, 0, 0.535, 0.0875, 0.6225, 0.1775, 0.7125, 0.2675, 0.8, 0.355, 0.89, 0.445, 0, 0.535, 0.0875, 0.6225, 0.1775, 0.7125, 0.2675, 0.8, 0.355, 0.89, 0.445],
  "SoftwareVersions": "syngo MR E11",
  "SpacingBetweenSlices": 2,
  "StationName": "AWP166018",
  "TaskName": "wedgering1",
  "TotalReadoutTime": 0.060771,
  "TxRefAmp": 212.876,
  "VendorReportedEchoSpacing": 0.00059,
  "WipMemBlock": "e3cc58f8-24b0-41bd-8301-ee78264517f5||Sequence: R016 ve11c/master r/8780670; Nov 27 2017 15:05:12 by eja",
  "dcmmeta_affine": [
    [-1.9933491945266724, -0.06821606308221817, 0.14800551533699036, 108.71761322021484],
    [-0.09408003091812134, 1.964808464050293, -0.3614922761917114, -71.12004089355469],
    [0.13307145237922668, 0.367252379655838, 1.9614834785461426, -56.41318130493164],
    [0.0, 0.0, 0.0, 1.0]
],
  "dcmmeta_reorient_transform": [
    [0.0, -1.0, 0.0, 103.0],
    [1.0, 0.0, 0.0, 0.0],
    [0.0, 0.0, 1.0, 0.0],
    [0.0, 0.0, 0.0, 1.0]
],
  "dcmmeta_shape": [104, 104, 66, 300],
  "dcmmeta_slice_dim": 2,
  "dcmmeta_version": 0.6,
  "global": {
    "const": {
      "AccessionNumber": "Lf73u5oL",
      "AcquisitionMatrix": [104, 0, 0, 104],
      "AngioFlag": "N",
      "BitsAllocated": 16,
      "BitsStored": 16,
      "BodyPartExamined": "BRAIN",
      "Columns": 936,
      "EchoNumbers": 1,
      "EchoTime": 37.6,
      "EchoTrainLength": 104,
      "FlipAngle": 68.0,
      "HighBit": 15,
      "ImageOrientationPatient": [0.99667458779889, 0.04704001506101, 0.06653572738743, -0.0341080311943, 0.98240422772995, -0.1836261842613],
      "ImagePositionPatient": [-902.54673232564, -987.75284065602, 78.833073960262],
      "ImageType": [
        "ORIGINAL",
        "PRIMARY",
        "M",
        "MB",
        "ND",
        "MOSAIC"
],
      "ImagedNucleus": "1H",
      "ImagingFrequency": 123.196817,
      "InPlanePhaseEncodingDirection": "COL",
      "MRAcquisitionType": "2D",
      "MagneticFieldStrength": 3.0,
      "Manufacturer": "SIEMENS",
      "ManufacturerModelName": "Prisma",
      "Modality": "MR",
      "NumberOfAverages": 1.0,
      "NumberOfPhaseEncodingSteps": 104,
      "PercentPhaseFieldOfView": 100.0,
      "PercentSampling": 100.0,
      "PerformedProcedureStepStartTime": "095717.433000",
      "PhotometricInterpretation": "MONOCHROME2",
      "PixelBandwidth": 2290.0,
      "PixelRepresentation": 0,
      "PixelSpacing": [2.0, 2.0],
      "ProtocolName": "cmrr_mbepi_s6_2mm_66sl_PA_task-wedgering1",
      "RepetitionTime": 1000.0,
      "Rows": 936,
      "SAR": 0.08071586686958,
      "SamplesPerPixel": 1,
      "ScanOptions": "FS",
      "ScanningSequence": "EP",
      "SequenceName": "epfid2d1_104",
      "SequenceVariant": [
        "SK",
        "SS"
],
      "SeriesDescription": "cmrr_mbepi_s6_2mm_66sl_PA_task-wedgering1",
      "SeriesNumber": 10,
      "SeriesTime": "101953.484000",
      "SliceLocation": -34.426685650345,
      "SliceThickness": 2.0,
      "SmallestImagePixelValue": 0,
      "SoftwareVersions": "syngo MR E11",
      "SpacingBetweenSlices": 1.9999999584751,
      "SpecificCharacterSet": "ISO_IR 100",
      "StudyID": "1",
      "StudyTime": "095717.380000",
      "TransmitCoilName": "Body",
      "VariableFlipAngleFlag": "N",
      "WindowCenterWidthExplanation": "Algo1",
      "dBdt": 0.0},
    "slices": {}
  },
  "time": {
    "samples": {
      "AcquisitionNumber": [1, 2, 3, 4, 5, 6, 7, 8, 9, 10, 11, 12, 13, 14, 15, 16, 17, 18, 19, 20, 21, 22, 23, 24, 25, 26, 27, 28, 29, 30, 31, 32, 33, 34, 35, 36, 37, 38, 39, 40, 41, 42, 43, 44, 45, 46, 47, 48, 49, 50, 51, 52, 53, 54, 55, 56, 57, 58, 59, 60, 61, 62, 63, 64, 65, 66, 67, 68, 69, 70, 71, 72, 73, 74, 75, 76, 77, 78, 79, 80, 81, 82, 83, 84, 85, 86, 87, 88, 89, 90, 91, 92, 93, 94, 95, 96, 97, 98, 99, 100, 101, 102, 103, 104, 105, 106, 107, 108, 109, 110, 111, 112, 113, 114, 115, 116, 117, 118, 119, 120, 121, 122, 123, 124, 125, 126, 127, 128, 129, 130, 131, 132, 133, 134, 135, 136, 137, 138, 139, 140, 141, 142, 143, 144, 145, 146, 147, 148, 149, 150, 151, 152, 153, 154, 155, 156, 157, 158, 159, 160, 161, 162, 163, 164, 165, 166, 167, 168, 169, 170, 171, 172, 173, 174, 175, 176, 177, 178, 179, 180, 181, 182, 183, 184, 185, 186, 187, 188, 189, 190, 191, 192, 193, 194, 195, 196, 197, 198, 199, 200, 201, 202, 203, 204, 205, 206, 207, 208, 209, 210, 211, 212, 213, 214, 215, 216, 217, 218, 219, 220, 221, 222, 223, 224, 225, 226, 227, 228, 229, 230, 231, 232, 233, 234, 235, 236, 237, 238, 239, 240, 241, 242, 243, 244, 245, 246, 247, 248, 249, 250, 251, 252, 253, 254, 255, 256, 257, 258, 259, 260, 261, 262, 263, 264, 265, 266, 267, 268, 269, 270, 271, 272, 273, 274, 275, 276, 277, 278, 279, 280, 281, 282, 283, 284, 285, 286, 287, 288, 289, 290, 291, 292, 293, 294, 295, 296, 297, 298, 299, 300],
      "AcquisitionTime": ["101829.047500", "101830.047500", "101831.047500", "101832.047500", "101833.047500", "101834.047500", "101835.047500", "101836.047500", "101837.047500", "101838.047500", "101839.047500", "101840.047500", "101841.047500", "101842.047500", "101843.047500", "101844.047500", "101845.047500", "101846.047500", "101847.047500", "101848.047500", "101849.047500", "101850.047500", "101851.047500", "101852.047500", "101853.047500", "101854.047500", "101855.047500", "101856.047500", "101857.047500", "101858.047500", "101859.047500", "101900.047500", "101901.047500", "101902.047500", "101903.047500", "101904.047500", "101905.047500", "101906.047500", "101907.047500", "101908.047500", "101909.047500", "101910.047500", "101911.047500", "101912.047500", "101913.047500", "101914.047500", "101915.047500", "101916.047500", "101917.047500", "101918.047500", "101919.047500", "101920.047500", "101921.047500", "101922.047500", "101923.047500", "101924.047500", "101925.047500", "101926.047500", "101927.047500", "101928.047500", "101929.047500", "101930.047500", "101931.047500", "101932.047500", "101933.047500", "101934.047500", "101935.047500", "101936.047500", "101937.047500", "101938.047500", "101939.047500", "101940.047500", "101941.047500", "101942.047500", "101943.047500", "101944.047500", "101945.047500", "101946.047500", "101947.047500", "101948.047500", "101949.047500", "101950.047500", "101951.047500", "101952.047500", "101953.047500", "101954.047500", "101955.047500", "101956.047500", "101957.047500", "101958.047500", "101959.047500", "102000.047500", "102001.047500", "102002.047500", "102003.047500", "102004.047500", "102005.047500", "102006.047500", "102007.047500", "102008.047500", "102009.047500", "102010.047500", "102011.047500", "102012.047500", "102013.047500", "102014.047500", "102015.047500", "102016.047500", "102017.047500", "102018.047500", "102019.047500", "102020.047500", "102021.047500", "102022.047500", "102023.047500", "102024.047500", "102025.047500", "102026.047500", "102027.047500", "102028.047500", "102029.047500", "102030.047500", "102031.047500", "102032.047500", "102033.047500", "102034.047500", "102035.047500", "102036.047500", "102037.047500", "102038.047500", "102039.047500", "102040.047500", "102041.047500", "102042.047500", "102043.047500", "102044.047500", "102045.047500", "102046.047500", "102047.047500", "102048.047500", "102049.047500", "102050.047500", "102051.047500", "102052.047500", "102053.047500", "102054.047500", "102055.047500", "102056.047500", "102057.047500", "102058.047500", "102059.047500", "102100.047500", "102101.047500", "102102.047500", "102103.047500", "102104.047500", "102105.047500", "102106.047500", "102107.047500", "102108.047500", "102109.047500", "102110.047500", "102111.047500", "102112.047500", "102113.047500", "102114.047500", "102115.047500", "102116.047500", "102117.047500", "102118.047500", "102119.047500", "102120.047500", "102121.047500", "102122.047500", "102123.047500", "102124.047500", "102125.047500", "102126.047500", "102127.047500", "102128.047500", "102129.047500", "102130.047500", "102131.047500", "102132.047500", "102133.047500", "102134.047500", "102135.047500", "102136.047500", "102137.047500", "102138.047500", "102139.047500", "102140.047500", "102141.047500", "102142.047500", "102143.047500", "102144.047500", "102145.047500", "102146.047500", "102147.047500", "102148.047500", "102149.047500", "102150.047500", "102151.047500", "102152.047500", "102153.047500", "102154.047500", "102155.047500", "102156.047500", "102157.047500", "102158.047500", "102159.047500", "102200.047500", "102201.047500", "102202.047500", "102203.047500", "102204.047500", "102205.047500", "102206.047500", "102207.047500", "102208.047500", "102209.047500", "102210.047500", "102211.047500", "102212.047500", "102213.047500", "102214.047500", "102215.047500", "102216.047500", "102217.047500", "102218.047500", "102219.047500", "102220.047500", "102221.047500", "102222.047500", "102223.047500", "102224.047500", "102225.047500", "102226.047500", "102227.047500", "102228.047500", "102229.047500", "102230.047500", "102231.047500", "102232.047500", "102233.047500", "102234.047500", "102235.047500", "102236.047500", "102237.047500", "102238.047500", "102239.047500", "102240.047500", "102241.047500", "102242.047500", "102243.047500", "102244.047500", "102245.047500", "102246.047500", "102247.047500", "102248.047500", "102249.047500", "102250.047500", "102251.047500", "102252.047500", "102253.047500", "102254.047500", "102255.047500", "102256.047500", "102257.047500", "102258.047500", "102259.047500", "102300.047500", "102301.047500", "102302.047500", "102303.047500", "102304.047500", "102305.047500", "102306.047500", "102307.047500", "102308.047500", "102309.047500", "102310.047500", "102311.047500", "102312.047500", "102313.047500", "102314.047500", "102315.047500", "102316.047500", "102317.047500", "102318.047500", "102319.047500", "102320.047500", "102321.047500", "102322.047500", "102323.047500", "102324.047500", "102325.047500", "102326.047500", "102327.047500", "102328.047500"],
      "ContentTime": ["101953.487000", "101953.490000", "101953.493000", "101953.496000", "101953.499000", "101953.502000", "101953.516000", "101953.519000", "101953.522000", "101953.525000", "101953.528000", "101953.531000", "101953.534000", "101953.538000", "101953.540000", "101953.543000", "101953.547000", "101953.550000", "101953.553000", "101953.557000", "101953.560000", "101953.563000", "101953.566000", "101953.569000", "101953.572000", "101953.575000", "101953.578000", "101953.581000", "101953.585000", "101953.588000", "101953.591000", "101953.594000", "101953.597000", "101953.600000", "101953.603000", "101953.606000", "101953.610000", "101953.613000", "101953.616000", "101953.619000", "102013.459000", "102013.462000", "102013.465000", "102013.468000", "102013.471000", "102013.474000", "102013.477000", "102013.481000", "102013.484000", "102013.487000", "102013.490000", "102013.493000", "102013.496000", "102013.499000", "102013.502000", "102013.506000", "102013.509000", "102013.513000", "102013.517000", "102013.520000", "102013.523000", "102013.546000", "102013.549000", "102013.552000", "102013.555000", "102013.558000", "102013.561000", "102013.564000", "102033.458000", "102033.461000", "102033.464000", "102033.467000", "102033.470000", "102033.474000", "102033.477000", "102033.480000", "102033.483000", "102033.486000", "102033.489000", "102033.492000", "102033.495000", "102033.498000", "102033.501000", "102033.504000", "102033.507000", "102033.510000", "102033.513000", "102033.516000", "102033.519000", "102033.522000", "102033.525000", "102033.528000", "102033.532000", "102033.535000", "102033.538000", "102033.541000", "102033.554000", "102053.458000", "102053.461000", "102053.464000", "102053.467000", "102053.470000", "102053.473000", "102053.476000", "102053.479000", "102053.483000", "102053.486000", "102053.489000", "102053.492000", "102053.495000", "102053.498000", "102053.501000", "102053.504000", "102053.507000", "102053.510000", "102053.513000", "102053.516000", "102053.520000", "102053.523000", "102053.525000", "102053.529000", "102053.532000", "102053.535000", "102053.538000", "102053.541000", "102113.458000", "102113.461000", "102113.464000", "102113.467000", "102113.471000", "102113.474000", "102113.477000", "102113.480000", "102113.483000", "102113.486000", "102113.489000", "102113.492000", "102113.495000", "102113.498000", "102113.501000", "102113.504000", "102113.507000", "102113.510000", "102113.513000", "102113.517000", "102113.520000", "102113.523000", "102113.526000", "102113.529000", "102113.532000", "102113.535000", "102113.538000", "102113.541000", "102133.459000", "102133.462000", "102133.465000", "102133.468000", "102133.471000", "102133.475000", "102133.477000", "102133.480000", "102133.484000", "102133.487000", "102133.490000", "102133.493000", "102133.496000", "102133.499000", "102133.502000", "102133.505000", "102133.508000", "102133.511000", "102133.514000", "102133.517000", "102133.520000", "102133.523000", "102133.526000", "102133.529000", "102133.533000", "102133.536000", "102133.538000", "102133.542000", "102153.459000", "102153.462000", "102153.465000", "102153.468000", "102153.471000", "102153.474000", "102153.478000", "102153.481000", "102153.484000", "102153.487000", "102153.490000", "102153.493000", "102153.496000", "102153.499000", "102153.502000", "102153.505000", "102153.508000", "102153.511000", "102153.514000", "102153.517000", "102153.520000", "102153.523000", "102153.527000", "102213.459000", "102213.462000", "102213.465000", "102213.469000", "102213.472000", "102213.475000", "102213.478000", "102213.481000", "102213.484000", "102213.487000", "102213.490000", "102213.493000", "102213.496000", "102213.499000", "102213.502000", "102213.505000", "102213.508000", "102213.511000", "102213.514000", "102213.518000", "102233.459000", "102233.462000", "102233.465000", "102233.468000", "102233.471000", "102233.474000", "102233.478000", "102233.481000", "102233.484000", "102233.487000", "102233.490000", "102233.493000", "102233.496000", "102233.499000", "102233.502000", "102233.505000", "102233.508000", "102233.511000", "102233.514000", "102233.518000", "102253.458000", "102253.461000", "102253.464000", "102253.467000", "102253.471000", "102253.474000", "102253.476000", "102253.480000", "102253.483000", "102253.486000", "102253.489000", "102253.492000", "102253.495000", "102253.498000", "102253.501000", "102253.504000", "102253.507000", "102253.510000", "102253.513000", "102253.517000", "102313.458000", "102313.461000", "102313.464000", "102313.467000", "102313.470000", "102313.473000", "102313.477000", "102313.480000", "102313.483000", "102313.486000", "102313.489000", "102313.492000", "102313.495000", "102313.498000", "102313.512000", "102313.516000", "102313.519000", "102313.522000", "102313.525000", "102313.528000", "102329.322000", "102329.325000", "102329.328000", "102329.331000", "102329.334000", "102329.337000", "102329.340000", "102329.344000", "102329.347000", "102329.350000", "102329.353000", "102329.356000", "102329.359000", "102329.362000", "102329.365000", "102329.368000"],
      "InstanceCreationTime": ["101953.487000", "101953.490000", "101953.493000", "101953.496000", "101953.499000", "101953.502000", "101953.516000", "101953.519000", "101953.522000", "101953.525000", "101953.528000", "101953.531000", "101953.534000", "101953.538000", "101953.540000", "101953.543000", "101953.547000", "101953.550000", "101953.553000", "101953.557000", "101953.560000", "101953.563000", "101953.566000", "101953.569000", "101953.572000", "101953.575000", "101953.578000", "101953.581000", "101953.585000", "101953.588000", "101953.591000", "101953.594000", "101953.597000", "101953.600000", "101953.603000", "101953.606000", "101953.610000", "101953.613000", "101953.616000", "101953.619000", "102013.459000", "102013.462000", "102013.465000", "102013.468000", "102013.471000", "102013.474000", "102013.477000", "102013.481000", "102013.484000", "102013.487000", "102013.490000", "102013.493000", "102013.496000", "102013.499000", "102013.502000", "102013.506000", "102013.509000", "102013.513000", "102013.517000", "102013.520000", "102013.523000", "102013.546000", "102013.549000", "102013.552000", "102013.555000", "102013.558000", "102013.561000", "102013.564000", "102033.458000", "102033.461000", "102033.464000", "102033.467000", "102033.470000", "102033.474000", "102033.477000", "102033.480000", "102033.483000", "102033.486000", "102033.489000", "102033.492000", "102033.495000", "102033.498000", "102033.501000", "102033.504000", "102033.507000", "102033.510000", "102033.513000", "102033.516000", "102033.519000", "102033.522000", "102033.525000", "102033.528000", "102033.532000", "102033.535000", "102033.538000", "102033.541000", "102033.554000", "102053.458000", "102053.461000", "102053.464000", "102053.467000", "102053.470000", "102053.473000", "102053.476000", "102053.479000", "102053.483000", "102053.486000", "102053.489000", "102053.492000", "102053.495000", "102053.498000", "102053.501000", "102053.504000", "102053.507000", "102053.510000", "102053.513000", "102053.516000", "102053.520000", "102053.523000", "102053.525000", "102053.529000", "102053.532000", "102053.535000", "102053.538000", "102053.541000", "102113.458000", "102113.461000", "102113.464000", "102113.467000", "102113.471000", "102113.474000", "102113.477000", "102113.480000", "102113.483000", "102113.486000", "102113.489000", "102113.492000", "102113.495000", "102113.498000", "102113.501000", "102113.504000", "102113.507000", "102113.510000", "102113.513000", "102113.517000", "102113.520000", "102113.523000", "102113.526000", "102113.529000", "102113.532000", "102113.535000", "102113.538000", "102113.541000", "102133.459000", "102133.462000", "102133.465000", "102133.468000", "102133.471000", "102133.475000", "102133.477000", "102133.480000", "102133.484000", "102133.487000", "102133.490000", "102133.493000", "102133.496000", "102133.499000", "102133.502000", "102133.505000", "102133.508000", "102133.511000", "102133.514000", "102133.517000", "102133.520000", "102133.523000", "102133.526000", "102133.529000", "102133.533000", "102133.536000", "102133.538000", "102133.542000", "102153.459000", "102153.462000", "102153.465000", "102153.468000", "102153.471000", "102153.474000", "102153.478000", "102153.481000", "102153.484000", "102153.487000", "102153.490000", "102153.493000", "102153.496000", "102153.499000", "102153.502000", "102153.505000", "102153.508000", "102153.511000", "102153.514000", "102153.517000", "102153.520000", "102153.523000", "102153.527000", "102213.459000", "102213.462000", "102213.465000", "102213.469000", "102213.472000", "102213.475000", "102213.478000", "102213.481000", "102213.484000", "102213.487000", "102213.490000", "102213.493000", "102213.496000", "102213.499000", "102213.502000", "102213.505000", "102213.508000", "102213.511000", "102213.514000", "102213.518000", "102233.459000", "102233.462000", "102233.465000", "102233.468000", "102233.471000", "102233.474000", "102233.478000", "102233.481000", "102233.484000", "102233.487000", "102233.490000", "102233.493000", "102233.496000", "102233.499000", "102233.502000", "102233.505000", "102233.508000", "102233.511000", "102233.514000", "102233.518000", "102253.458000", "102253.461000", "102253.464000", "102253.467000", "102253.471000", "102253.474000", "102253.476000", "102253.480000", "102253.483000", "102253.486000", "102253.489000", "102253.492000", "102253.495000", "102253.498000", "102253.501000", "102253.504000", "102253.507000", "102253.510000", "102253.513000", "102253.517000", "102313.458000", "102313.461000", "102313.464000", "102313.467000", "102313.470000", "102313.473000", "102313.477000", "102313.480000", "102313.483000", "102313.486000", "102313.489000", "102313.492000", "102313.495000", "102313.498000", "102313.512000", "102313.516000", "102313.519000", "102313.522000", "102313.525000", "102313.528000", "102329.322000", "102329.325000", "102329.328000", "102329.331000", "102329.334000", "102329.337000", "102329.340000", "102329.344000", "102329.347000", "102329.350000", "102329.353000", "102329.356000", "102329.359000", "102329.362000", "102329.365000", "102329.368000"],
      "InstanceNumber": [1, 2, 3, 4, 5, 6, 7, 8, 9, 10, 11, 12, 13, 14, 15, 16, 17, 18, 19, 20, 21, 22, 23, 24, 25, 26, 27, 28, 29, 30, 31, 32, 33, 34, 35, 36, 37, 38, 39, 40, 41, 42, 43, 44, 45, 46, 47, 48, 49, 50, 51, 52, 53, 54, 55, 56, 57, 58, 59, 60, 61, 62, 63, 64, 65, 66, 67, 68, 69, 70, 71, 72, 73, 74, 75, 76, 77, 78, 79, 80, 81, 82, 83, 84, 85, 86, 87, 88, 89, 90, 91, 92, 93, 94, 95, 96, 97, 98, 99, 100, 101, 102, 103, 104, 105, 106, 107, 108, 109, 110, 111, 112, 113, 114, 115, 116, 117, 118, 119, 120, 121, 122, 123, 124, 125, 126, 127, 128, 129, 130, 131, 132, 133, 134, 135, 136, 137, 138, 139, 140, 141, 142, 143, 144, 145, 146, 147, 148, 149, 150, 151, 152, 153, 154, 155, 156, 157, 158, 159, 160, 161, 162, 163, 164, 165, 166, 167, 168, 169, 170, 171, 172, 173, 174, 175, 176, 177, 178, 179, 180, 181, 182, 183, 184, 185, 186, 187, 188, 189, 190, 191, 192, 193, 194, 195, 196, 197, 198, 199, 200, 201, 202, 203, 204, 205, 206, 207, 208, 209, 210, 211, 212, 213, 214, 215, 216, 217, 218, 219, 220, 221, 222, 223, 224, 225, 226, 227, 228, 229, 230, 231, 232, 233, 234, 235, 236, 237, 238, 239, 240, 241, 242, 243, 244, 245, 246, 247, 248, 249, 250, 251, 252, 253, 254, 255, 256, 257, 258, 259, 260, 261, 262, 263, 264, 265, 266, 267, 268, 269, 270, 271, 272, 273, 274, 275, 276, 277, 278, 279, 280, 281, 282, 283, 284, 285, 286, 287, 288, 289, 290, 291, 292, 293, 294, 295, 296, 297, 298, 299, 300],
      "LargestImagePixelValue": [35772, 35183, 35034, 34161, 34008, 33646, 34171, 33735, 33488, 34015, 33772, 34347, 33844, 33497, 33641, 33200, 34004, 34039, 34105, 33943, 34006, 33607, 34016, 34031, 33918, 33688, 33859, 34004, 33868, 33299, 33828, 34009, 33306, 34137, 34394, 33402, 33886, 34131, 33972, 34114, 33649, 34636, 34487, 34067, 34525, 34216, 33872, 34309, 34176, 34164, 33950, 33894, 33752, 34079, 33697, 34025, 33824, 34091, 33769, 32950, 34414, 33791, 33759, 33997, 33725, 33594, 33284, 32613, 32867, 32789, 32785, 33102, 32697, 33117, 33085, 33108, 33093, 33233, 33361, 33322, 33545, 33383, 33424, 33507, 33384, 33934, 33774, 33259, 34476, 33901, 33343, 33623, 33836, 33648, 34049, 33596, 33635, 33542, 34194, 33751, 34291, 34557, 34301, 34434, 34113, 34596, 33829, 34325, 34502, 34120, 34547, 34256, 34161, 34173, 34064, 34173, 34255, 34077, 34336, 34461, 33809, 34104, 33175, 33734, 34070, 33777, 34157, 34114, 34158, 34056, 33988, 33969, 33988, 33350, 33300, 33112, 33660, 34151, 33797, 33756, 34125, 34053, 33787, 33912, 34120, 34391, 34254, 33848, 33964, 33863, 34028, 34309, 33841, 33772, 33717, 33707, 33988, 34118, 34079, 33572, 34015, 34248, 33663, 34124, 34425, 34195, 34444, 34157, 34345, 34444, 34646, 34321, 34142, 33944, 33624, 33806, 34005, 33534, 33723, 33509, 36444, 37544, 35527, 36864, 36402, 36925, 36536, 36225, 35574, 34297, 33655, 32572, 32155, 32091, 32557, 32262, 32641, 33082, 32840, 33325, 33410, 33387, 33840, 34021, 35018, 35350, 34505, 34864, 35058, 34856, 34550, 35699, 34336, 34520, 35303, 34788, 34882, 35255, 34997, 35071, 35405, 35306, 35677, 34479, 35144, 35942, 35154, 35147, 35214, 34824, 34333, 34140, 33909, 34331, 34537, 33552, 34198, 34262, 33703, 34023, 33659, 33759, 33617, 33332, 33486, 34213, 33368, 35356, 33599, 33707, 33648, 33902, 33686, 33769, 33512, 33691, 33763, 33615, 34806, 34204, 34082, 34244, 33830, 33731, 34625, 34332, 33617, 34107, 34763, 33863, 33797, 35423, 34017, 34074, 34578, 34956, 34113, 34750, 34847, 34847, 34376, 34458, 33892, 33877, 34047, 34086, 35476, 34602, 33942, 34617, 34675, 35158, 35210, 34622, 34318, 34904, 34574, 33805, 35300, 33941],
      "WindowCenter": [9687.0, 9651.0, 9625.0, 9615.0, 9607.0, 9609.0, 9612.0, 9608.0, 9602.0, 9608.0, 9618.0, 9613.0, 9606.0, 9601.0, 9602.0, 9597.0, 9599.0, 9591.0, 9589.0, 9597.0, 9600.0, 9624.0, 9633.0, 9634.0, 9636.0, 9620.0, 9623.0, 9622.0, 9608.0, 9602.0, 9623.0, 9632.0, 9629.0, 9647.0, 9650.0, 9631.0, 9642.0, 9654.0, 9650.0, 9665.0, 9670.0, 9682.0, 9681.0, 9661.0, 9658.0, 9652.0, 9650.0, 9649.0, 9650.0, 9653.0, 9641.0, 9634.0, 9628.0, 9618.0, 9611.0, 9606.0, 9592.0, 9607.0, 9613.0, 9618.0, 9634.0, 9618.0, 9589.0, 9576.0, 9550.0, 9534.0, 9521.0, 9522.0, 9537.0, 9539.0, 9540.0, 9539.0, 9541.0, 9547.0, 9547.0, 9554.0, 9563.0, 9570.0, 9571.0, 9573.0, 9584.0, 9579.0, 9586.0, 9594.0, 9589.0, 9607.0, 9600.0, 9589.0, 9604.0, 9591.0, 9587.0, 9602.0, 9601.0, 9605.0, 9625.0, 9632.0, 9645.0, 9647.0, 9661.0, 9655.0, 9660.0, 9665.0, 9658.0, 9662.0, 9651.0, 9664.0, 9644.0, 9650.0, 9638.0, 9631.0, 9638.0, 9623.0, 9623.0, 9630.0, 9640.0, 9641.0, 9634.0, 9627.0, 9619.0, 9614.0, 9594.0, 9599.0, 9595.0, 9612.0, 9635.0, 9651.0, 9662.0, 9652.0, 9644.0, 9630.0, 9628.0, 9612.0, 9605.0, 9591.0, 9589.0, 9592.0, 9612.0, 9618.0, 9619.0, 9619.0, 9627.0, 9618.0, 9620.0, 9627.0, 9624.0, 9624.0, 9618.0, 9618.0, 9618.0, 9612.0, 9610.0, 9607.0, 9594.0, 9593.0, 9595.0, 9610.0, 9612.0, 9624.0, 9635.0, 9631.0, 9644.0, 9640.0, 9622.0, 9657.0, 9648.0, 9644.0, 9650.0, 9627.0, 9619.0, 9615.0, 9600.0, 9593.0, 9592.0, 9578.0, 9585.0, 9586.0, 9586.0, 9595.0, 9597.0, 9605.0, 9640.0, 9678.0, 9626.0, 9734.0, 9700.0, 9681.0, 9642.0, 9609.0, 9572.0, 9534.0, 9513.0, 9493.0, 9495.0, 9503.0, 9522.0, 9519.0, 9535.0, 9550.0, 9558.0, 9560.0, 9568.0, 9585.0, 9614.0, 9624.0, 9635.0, 9640.0, 9636.0, 9635.0, 9641.0, 9642.0, 9642.0, 9654.0, 9639.0, 9648.0, 9657.0, 9658.0, 9667.0, 9667.0, 9675.0, 9675.0, 9674.0, 9666.0, 9665.0, 9661.0, 9666.0, 9679.0, 9674.0, 9680.0, 9672.0, 9658.0, 9669.0, 9663.0, 9672.0, 9671.0, 9677.0, 9651.0, 9651.0, 9638.0, 9632.0, 9632.0, 9625.0, 9631.0, 9639.0, 9636.0, 9642.0, 9659.0, 9645.0, 9672.0, 9649.0, 9648.0, 9642.0, 9633.0, 9632.0, 9626.0, 9626.0, 9639.0, 9655.0, 9667.0, 9698.0, 9696.0, 9695.0, 9680.0, 9667.0, 9650.0, 9650.0, 9637.0, 9625.0, 9621.0, 9630.0, 9613.0, 9613.0, 9642.0, 9623.0, 9630.0, 9634.0, 9635.0, 9628.0, 9641.0, 9647.0, 9642.0, 9646.0, 9648.0, 9633.0, 9631.0, 9624.0, 9628.0, 9641.0, 9636.0, 9640.0, 9654.0, 9653.0, 9666.0, 9660.0, 9647.0, 9640.0, 9642.0, 9631.0, 9617.0, 9648.0, 9639.0],
