{
  "AcquisitionMatrixPE": 104,
  "AcquisitionNumber": 1,
  "AcquisitionTime": "10:45:4.845000",
  "BandwidthPerPixelPhaseEncode": 16.297,
  "BaseResolution": 104,
  "BodyPartExamined": "BRAIN",
  "ConsistencyInfo": "N4_VE11C_LATEST_20160120",
  "ConversionSoftware": "dcm2niix",
  "ConversionSoftwareVersion": "v1.0.20210317",
  "DerivedVendorReportedEchoSpacing": 0.000590009,
  "DeviceSerialNumber": "166018",
  "DwellTime": 2.1e-06,
  "EchoTime": 0.0376,
  "EchoTrainLength": 104,
  "EffectiveEchoSpacing": 0.000590009,
  "FlipAngle": 68,
  "ImageComments": "Unaliased MB6/PE3/LB",
  "ImageOrientationPatientDICOM": [0.996675, 0.04704, 0.0665357, -0.034108, 0.982404, -0.183626],
  "ImageType": [
    "ORIGINAL",
    "PRIMARY",
    "M",
    "MB",
    "ND",
    "MOSAIC"
],
  "ImagingFrequency": 123.197,
  "InPlanePhaseEncodingDirectionDICOM": "COL",
  "InstitutionAddress": "Washington Place 6,NYC,NYC,US,10003",
  "InstitutionName": "NYU - CBI",
  "InstitutionalDepartmentName": "Department",
  "MRAcquisitionType": "2D",
  "MagneticFieldStrength": 3,
  "Manufacturer": "Siemens",
  "ManufacturersModelName": "Prisma",
  "Modality": "MR",
  "MultibandAccelerationFactor": 6,
  "PartialFourier": 1,
  "PatientPosition": "HFS",
  "PercentPhaseFOV": 100,
  "PercentSampling": 100,
  "PhaseEncodingDirection": "j",
  "PhaseEncodingSteps": 104,
  "PhaseResolution": 1,
  "PixelBandwidth": 2290,
  "ProcedureStepDescription": "Investigators^Winawer",
  "ProtocolName": "cmrr_mbepi_s6_2mm_66sl_PA_task-wedgering3",
  "PulseSequenceDetails": "%CustomerSeq%\\cmrr_mbep2d_bold",
  "ReceiveCoilActiveElements": "HC1-7",
  "ReceiveCoilName": "HeadNeck_64",
  "ReconMatrixPE": 104,
  "RepetitionTime": 1,
  "SAR": 0.0807159,
  "ScanOptions": "FS",
  "ScanningSequence": "EP",
  "SequenceName": "epfid2d1_104",
  "SequenceVariant": "SK\\SS",
  "SeriesDescription": "cmrr_mbepi_s6_2mm_66sl_PA_task-wedgering3",
  "SeriesNumber": 18,
  "ShimSetting": [301, -12662, -8531, 236, 6, -174, -108, 17],
  "SliceThickness": 2,
  "SliceTiming": [0, 0.535, 0.09, 0.6225, 0.1775, 0.7125, 0.2675, 0.8025, 0.355, 0.89, 0.445, 0, 0.535, 0.09, 0.6225, 0.1775, 0.7125, 0.2675, 0.8025, 0.355, 0.89, 0.445, 0, 0.535, 0.09, 0.6225, 0.1775, 0.7125, 0.2675, 0.8025, 0.355, 0.89, 0.445, 0, 0.535, 0.09, 0.6225, 0.1775, 0.7125, 0.2675, 0.8025, 0.355, 0.89, 0.445, 0, 0.535, 0.09, 0.6225, 0.1775, 0.7125, 0.2675, 0.8025, 0.355, 0.89, 0.445, 0, 0.535, 0.09, 0.6225, 0.1775, 0.7125, 0.2675, 0.8025, 0.355, 0.89, 0.445],
  "SoftwareVersions": "syngo MR E11",
  "SpacingBetweenSlices": 2,
  "StationName": "AWP166018",
  "TaskName": "wedgering3",
  "TotalReadoutTime": 0.060771,
  "TxRefAmp": 212.876,
  "VendorReportedEchoSpacing": 0.00059,
  "WipMemBlock": "70206a6f-96bd-46fe-8072-f1bec6c8603f||Sequence: R016 ve11c/master r/8780670; Nov 27 2017 15:05:12 by eja",
  "dcmmeta_affine": [
    [-1.9933491945266724, -0.06821606308221817, 0.14800551533699036, 108.71761322021484],
    [-0.09408003091812134, 1.964808464050293, -0.3614922761917114, -71.12004089355469],
    [0.13307145237922668, 0.367252379655838, 1.9614834785461426, -56.41318130493164],
    [0.0, 0.0, 0.0, 1.0]
],
  "dcmmeta_reorient_transform": [
    [0.0, -1.0, 0.0, 103.0],
    [1.0, 0.0, 0.0, 0.0],
    [0.0, 0.0, 1.0, 0.0],
    [0.0, 0.0, 0.0, 1.0]
],
  "dcmmeta_shape": [104, 104, 66, 300],
  "dcmmeta_slice_dim": 2,
  "dcmmeta_version": 0.6,
  "global": {
    "const": {
      "AccessionNumber": "Lf73u5oL",
      "AcquisitionMatrix": [104, 0, 0, 104],
      "AngioFlag": "N",
      "BitsAllocated": 16,
      "BitsStored": 16,
      "BodyPartExamined": "BRAIN",
      "Columns": 936,
      "EchoNumbers": 1,
      "EchoTime": 37.6,
      "EchoTrainLength": 104,
      "FlipAngle": 68.0,
      "HighBit": 15,
      "ImageOrientationPatient": [0.99667458779889, 0.04704001506101, 0.06653572738743, -0.0341080311943, 0.98240422772995, -0.1836261842613],
      "ImagePositionPatient": [-902.54673232564, -987.75284065602, 78.833073960262],
      "ImageType": [
        "ORIGINAL",
        "PRIMARY",
        "M",
        "MB",
        "ND",
        "MOSAIC"
],
      "ImagedNucleus": "1H",
      "ImagingFrequency": 123.196828,
      "InPlanePhaseEncodingDirection": "COL",
      "MRAcquisitionType": "2D",
      "MagneticFieldStrength": 3.0,
      "Manufacturer": "SIEMENS",
      "ManufacturerModelName": "Prisma",
      "Modality": "MR",
      "NumberOfAverages": 1.0,
      "NumberOfPhaseEncodingSteps": 104,
      "PercentPhaseFieldOfView": 100.0,
      "PercentSampling": 100.0,
      "PerformedProcedureStepStartTime": "095717.433000",
      "PhotometricInterpretation": "MONOCHROME2",
      "PixelBandwidth": 2290.0,
      "PixelRepresentation": 0,
      "PixelSpacing": [2.0, 2.0],
      "ProtocolName": "cmrr_mbepi_s6_2mm_66sl_PA_task-wedgering3",
      "RepetitionTime": 1000.0,
      "Rows": 936,
      "SAR": 0.08071586686958,
      "SamplesPerPixel": 1,
      "ScanOptions": "FS",
      "ScanningSequence": "EP",
      "SequenceName": "epfid2d1_104",
      "SequenceVariant": [
        "SK",
        "SS"
],
      "SeriesDescription": "cmrr_mbepi_s6_2mm_66sl_PA_task-wedgering3",
      "SeriesNumber": 18,
      "SeriesTime": "104633.345000",
      "SliceLocation": -34.426685650345,
      "SliceThickness": 2.0,
      "SmallestImagePixelValue": 0,
      "SoftwareVersions": "syngo MR E11",
      "SpacingBetweenSlices": 1.9999999584751,
      "SpecificCharacterSet": "ISO_IR 100",
      "StudyID": "1",
      "StudyTime": "095717.380000",
      "TransmitCoilName": "Body",
      "VariableFlipAngleFlag": "N",
      "WindowCenterWidthExplanation": "Algo1",
      "dBdt": 0.0},
    "slices": {}
  },
  "time": {
    "samples": {
      "AcquisitionNumber": [1, 2, 3, 4, 5, 6, 7, 8, 9, 10, 11, 12, 13, 14, 15, 16, 17, 18, 19, 20, 21, 22, 23, 24, 25, 26, 27, 28, 29, 30, 31, 32, 33, 34, 35, 36, 37, 38, 39, 40, 41, 42, 43, 44, 45, 46, 47, 48, 49, 50, 51, 52, 53, 54, 55, 56, 57, 58, 59, 60, 61, 62, 63, 64, 65, 66, 67, 68, 69, 70, 71, 72, 73, 74, 75, 76, 77, 78, 79, 80, 81, 82, 83, 84, 85, 86, 87, 88, 89, 90, 91, 92, 93, 94, 95, 96, 97, 98, 99, 100, 101, 102, 103, 104, 105, 106, 107, 108, 109, 110, 111, 112, 113, 114, 115, 116, 117, 118, 119, 120, 121, 122, 123, 124, 125, 126, 127, 128, 129, 130, 131, 132, 133, 134, 135, 136, 137, 138, 139, 140, 141, 142, 143, 144, 145, 146, 147, 148, 149, 150, 151, 152, 153, 154, 155, 156, 157, 158, 159, 160, 161, 162, 163, 164, 165, 166, 167, 168, 169, 170, 171, 172, 173, 174, 175, 176, 177, 178, 179, 180, 181, 182, 183, 184, 185, 186, 187, 188, 189, 190, 191, 192, 193, 194, 195, 196, 197, 198, 199, 200, 201, 202, 203, 204, 205, 206, 207, 208, 209, 210, 211, 212, 213, 214, 215, 216, 217, 218, 219, 220, 221, 222, 223, 224, 225, 226, 227, 228, 229, 230, 231, 232, 233, 234, 235, 236, 237, 238, 239, 240, 241, 242, 243, 244, 245, 246, 247, 248, 249, 250, 251, 252, 253, 254, 255, 256, 257, 258, 259, 260, 261, 262, 263, 264, 265, 266, 267, 268, 269, 270, 271, 272, 273, 274, 275, 276, 277, 278, 279, 280, 281, 282, 283, 284, 285, 286, 287, 288, 289, 290, 291, 292, 293, 294, 295, 296, 297, 298, 299, 300],
      "AcquisitionTime": ["104504.845000", "104505.845000", "104506.845000", "104507.845000", "104508.845000", "104509.845000", "104510.845000", "104511.845000", "104512.845000", "104513.845000", "104514.845000", "104515.845000", "104516.845000", "104517.845000", "104518.845000", "104519.845000", "104520.845000", "104521.845000", "104522.845000", "104523.845000", "104524.845000", "104525.845000", "104526.845000", "104527.845000", "104528.845000", "104529.845000", "104530.845000", "104531.845000", "104532.845000", "104533.845000", "104534.845000", "104535.845000", "104536.845000", "104537.845000", "104538.845000", "104539.845000", "104540.845000", "104541.845000", "104542.845000", "104543.845000", "104544.845000", "104545.845000", "104546.845000", "104547.845000", "104548.845000", "104549.845000", "104550.845000", "104551.845000", "104552.845000", "104553.845000", "104554.845000", "104555.845000", "104556.845000", "104557.845000", "104558.845000", "104559.845000", "104600.845000", "104601.845000", "104602.845000", "104603.845000", "104604.845000", "104605.845000", "104606.845000", "104607.845000", "104608.845000", "104609.845000", "104610.845000", "104611.845000", "104612.845000", "104613.845000", "104614.845000", "104615.845000", "104616.845000", "104617.845000", "104618.845000", "104619.845000", "104620.845000", "104621.845000", "104622.845000", "104623.845000", "104624.845000", "104625.845000", "104626.845000", "104627.845000", "104628.845000", "104629.845000", "104630.845000", "104631.845000", "104632.845000", "104633.845000", "104634.845000", "104635.845000", "104636.845000", "104637.845000", "104638.845000", "104639.845000", "104640.845000", "104641.845000", "104642.845000", "104643.845000", "104644.845000", "104645.845000", "104646.845000", "104647.845000", "104648.845000", "104649.845000", "104650.845000", "104651.845000", "104652.845000", "104653.845000", "104654.845000", "104655.845000", "104656.845000", "104657.845000", "104658.845000", "104659.845000", "104700.845000", "104701.845000", "104702.845000", "104703.845000", "104704.845000", "104705.845000", "104706.845000", "104707.845000", "104708.845000", "104709.845000", "104710.845000", "104711.845000", "104712.845000", "104713.845000", "104714.845000", "104715.845000", "104716.845000", "104717.845000", "104718.845000", "104719.845000", "104720.845000", "104721.845000", "104722.845000", "104723.845000", "104724.845000", "104725.845000", "104726.845000", "104727.845000", "104728.845000", "104729.845000", "104730.845000", "104731.845000", "104732.845000", "104733.845000", "104734.845000", "104735.845000", "104736.845000", "104737.845000", "104738.845000", "104739.845000", "104740.845000", "104741.845000", "104742.845000", "104743.845000", "104744.845000", "104745.845000", "104746.845000", "104747.845000", "104748.845000", "104749.845000", "104750.845000", "104751.845000", "104752.845000", "104753.845000", "104754.845000", "104755.845000", "104756.845000", "104757.845000", "104758.845000", "104759.845000", "104800.845000", "104801.845000", "104802.845000", "104803.845000", "104804.845000", "104805.845000", "104806.845000", "104807.845000", "104808.845000", "104809.845000", "104810.845000", "104811.845000", "104812.845000", "104813.845000", "104814.845000", "104815.845000", "104816.845000", "104817.845000", "104818.845000", "104819.845000", "104820.845000", "104821.845000", "104822.845000", "104823.845000", "104824.845000", "104825.845000", "104826.845000", "104827.845000", "104828.845000", "104829.845000", "104830.845000", "104831.845000", "104832.845000", "104833.845000", "104834.845000", "104835.845000", "104836.845000", "104837.845000", "104838.845000", "104839.845000", "104840.845000", "104841.845000", "104842.845000", "104843.845000", "104844.845000", "104845.845000", "104846.845000", "104847.845000", "104848.845000", "104849.845000", "104850.845000", "104851.845000", "104852.845000", "104853.845000", "104854.845000", "104855.845000", "104856.845000", "104857.845000", "104858.845000", "104859.845000", "104900.845000", "104901.845000", "104902.845000", "104903.845000", "104904.845000", "104905.845000", "104906.845000", "104907.845000", "104908.845000", "104909.845000", "104910.845000", "104911.845000", "104912.845000", "104913.845000", "104914.845000", "104915.845000", "104916.845000", "104917.845000", "104918.845000", "104919.845000", "104920.845000", "104921.845000", "104922.845000", "104923.845000", "104924.845000", "104925.845000", "104926.845000", "104927.845000", "104928.845000", "104929.845000", "104930.845000", "104931.845000", "104932.845000", "104933.845000", "104934.845000", "104935.845000", "104936.845000", "104937.845000", "104938.845000", "104939.845000", "104940.845000", "104941.845000", "104942.845000", "104943.845000", "104944.845000", "104945.845000", "104946.845000", "104947.845000", "104948.845000", "104949.845000", "104950.845000", "104951.845000", "104952.845000", "104953.845000", "104954.845000", "104955.845000", "104956.845000", "104957.845000", "104958.845000", "104959.845000", "105000.845000", "105001.845000", "105002.845000", "105003.845000"],
      "ContentTime": ["104633.348000", "104633.351000", "104633.354000", "104633.357000", "104633.361000", "104633.364000", "104633.367000", "104633.370000", "104633.373000", "104633.376000", "104633.379000", "104633.382000", "104633.385000", "104633.388000", "104633.391000", "104633.394000", "104633.397000", "104633.400000", "104633.403000", "104633.411000", "104633.415000", "104633.418000", "104633.421000", "104633.424000", "104633.427000", "104633.430000", "104633.433000", "104633.436000", "104633.439000", "104633.442000", "104633.445000", "104633.448000", "104633.452000", "104633.455000", "104633.464000", "104633.467000", "104633.470000", "104633.473000", "104633.477000", "104633.480000", "104633.483000", "104633.486000", "104633.489000", "104633.492000", "104633.495000", "104633.498000", "104653.313000", "104653.316000", "104653.319000", "104653.323000", "104653.326000", "104653.329000", "104653.332000", "104653.335000", "104653.338000", "104653.341000", "104653.344000", "104653.347000", "104653.350000", "104653.353000", "104653.356000", "104653.359000", "104653.371000", "104653.374000", "104653.377000", "104653.380000", "104653.383000", "104653.386000", "104653.389000", "104653.392000", "104653.395000", "104653.409000", "104653.412000", "104653.415000", "104653.418000", "104713.314000", "104713.317000", "104713.320000", "104713.323000", "104713.326000", "104713.329000", "104713.333000", "104713.336000", "104713.339000", "104713.342000", "104713.345000", "104713.348000", "104713.351000", "104713.354000", "104713.357000", "104713.360000", "104713.363000", "104713.366000", "104713.369000", "104713.373000", "104713.376000", "104713.379000", "104713.382000", "104713.385000", "104713.388000", "104713.391000", "104713.394000", "104713.397000", "104733.314000", "104733.317000", "104733.320000", "104733.323000", "104733.326000", "104733.330000", "104733.333000", "104733.336000", "104733.339000", "104733.342000", "104733.345000", "104733.348000", "104733.351000", "104733.354000", "104733.357000", "104733.360000", "104733.363000", "104733.366000", "104733.369000", "104733.372000", "104733.375000", "104733.378000", "104733.382000", "104733.385000", "104733.388000", "104733.391000", "104733.394000", "104733.410000", "104753.314000", "104753.317000", "104753.320000", "104753.323000", "104753.327000", "104753.330000", "104753.333000", "104753.336000", "104753.339000", "104753.342000", "104753.345000", "104753.348000", "104753.351000", "104753.354000", "104753.357000", "104753.360000", "104753.363000", "104753.366000", "104753.369000", "104753.372000", "104753.376000", "104753.379000", "104753.382000", "104753.385000", "104753.388000", "104753.391000", "104753.394000", "104753.397000", "104753.400000", "104813.313000", "104813.316000", "104813.320000", "104813.323000", "104813.326000", "104813.329000", "104813.332000", "104813.335000", "104813.338000", "104813.341000", "104813.344000", "104813.347000", "104813.350000", "104813.353000", "104813.357000", "104813.360000", "104813.363000", "104813.366000", "104813.369000", "104813.372000", "104813.375000", "104813.378000", "104813.381000", "104813.384000", "104813.387000", "104813.390000", "104813.393000", "104833.313000", "104833.316000", "104833.320000", "104833.323000", "104833.326000", "104833.329000", "104833.332000", "104833.335000", "104833.338000", "104833.341000", "104833.344000", "104833.347000", "104833.350000", "104833.353000", "104833.356000", "104833.359000", "104833.363000", "104833.366000", "104833.369000", "104833.372000", "104853.313000", "104853.316000", "104853.320000", "104853.323000", "104853.326000", "104853.329000", "104853.332000", "104853.335000", "104853.338000", "104853.341000", "104853.344000", "104853.347000", "104853.350000", "104853.353000", "104853.362000", "104853.365000", "104853.368000", "104853.371000", "104853.374000", "104853.377000", "104913.313000", "104913.316000", "104913.320000", "104913.323000", "104913.326000", "104913.329000", "104913.332000", "104913.335000", "104913.338000", "104913.341000", "104913.344000", "104913.347000", "104913.350000", "104913.353000", "104913.357000", "104913.360000", "104913.364000", "104913.367000", "104913.370000", "104913.373000", "104933.314000", "104933.317000", "104933.321000", "104933.324000", "104933.327000", "104933.330000", "104933.333000", "104933.336000", "104933.339000", "104933.342000", "104933.345000", "104933.348000", "104933.351000", "104933.354000", "104933.357000", "104933.361000", "104933.364000", "104933.367000", "104933.370000", "104933.386000", "104953.314000", "104953.317000", "104953.321000", "104953.324000", "104953.327000", "104953.330000", "104953.333000", "104953.336000", "104953.339000", "104953.342000", "104953.345000", "104953.348000", "104953.352000", "104953.355000", "104953.358000", "104953.361000", "104953.364000", "104953.367000", "104953.370000", "104953.373000", "105006.016000", "105006.019000", "105006.022000", "105006.026000", "105006.039000", "105006.042000", "105006.045000", "105006.048000", "105006.051000", "105006.054000", "105006.057000", "105006.060000", "105006.063000"],
      "InstanceCreationTime": ["104633.348000", "104633.351000", "104633.354000", "104633.357000", "104633.361000", "104633.364000", "104633.367000", "104633.370000", "104633.373000", "104633.376000", "104633.379000", "104633.382000", "104633.385000", "104633.388000", "104633.391000", "104633.394000", "104633.397000", "104633.400000", "104633.403000", "104633.411000", "104633.415000", "104633.418000", "104633.421000", "104633.424000", "104633.427000", "104633.430000", "104633.433000", "104633.436000", "104633.439000", "104633.442000", "104633.445000", "104633.448000", "104633.452000", "104633.455000", "104633.464000", "104633.467000", "104633.470000", "104633.473000", "104633.477000", "104633.480000", "104633.483000", "104633.486000", "104633.489000", "104633.492000", "104633.495000", "104633.498000", "104653.313000", "104653.316000", "104653.319000", "104653.323000", "104653.326000", "104653.329000", "104653.332000", "104653.335000", "104653.338000", "104653.341000", "104653.344000", "104653.347000", "104653.350000", "104653.353000", "104653.356000", "104653.359000", "104653.371000", "104653.374000", "104653.377000", "104653.380000", "104653.383000", "104653.386000", "104653.389000", "104653.392000", "104653.395000", "104653.409000", "104653.412000", "104653.415000", "104653.418000", "104713.314000", "104713.317000", "104713.320000", "104713.323000", "104713.326000", "104713.329000", "104713.333000", "104713.336000", "104713.339000", "104713.342000", "104713.345000", "104713.348000", "104713.351000", "104713.354000", "104713.357000", "104713.360000", "104713.363000", "104713.366000", "104713.369000", "104713.373000", "104713.376000", "104713.379000", "104713.382000", "104713.385000", "104713.388000", "104713.391000", "104713.394000", "104713.397000", "104733.314000", "104733.317000", "104733.320000", "104733.323000", "104733.326000", "104733.330000", "104733.333000", "104733.336000", "104733.339000", "104733.342000", "104733.345000", "104733.348000", "104733.351000", "104733.354000", "104733.357000", "104733.360000", "104733.363000", "104733.366000", "104733.369000", "104733.372000", "104733.375000", "104733.378000", "104733.382000", "104733.385000", "104733.388000", "104733.391000", "104733.394000", "104733.410000", "104753.314000", "104753.317000", "104753.320000", "104753.323000", "104753.327000", "104753.330000", "104753.333000", "104753.336000", "104753.339000", "104753.342000", "104753.345000", "104753.348000", "104753.351000", "104753.354000", "104753.357000", "104753.360000", "104753.363000", "104753.366000", "104753.369000", "104753.372000", "104753.376000", "104753.379000", "104753.382000", "104753.385000", "104753.388000", "104753.391000", "104753.394000", "104753.397000", "104753.400000", "104813.313000", "104813.316000", "104813.320000", "104813.323000", "104813.326000", "104813.329000", "104813.332000", "104813.335000", "104813.338000", "104813.341000", "104813.344000", "104813.347000", "104813.350000", "104813.353000", "104813.357000", "104813.360000", "104813.363000", "104813.366000", "104813.369000", "104813.372000", "104813.375000", "104813.378000", "104813.381000", "104813.384000", "104813.387000", "104813.390000", "104813.393000", "104833.313000", "104833.316000", "104833.320000", "104833.323000", "104833.326000", "104833.329000", "104833.332000", "104833.335000", "104833.338000", "104833.341000", "104833.344000", "104833.347000", "104833.350000", "104833.353000", "104833.356000", "104833.359000", "104833.363000", "104833.366000", "104833.369000", "104833.372000", "104853.313000", "104853.316000", "104853.320000", "104853.323000", "104853.326000", "104853.329000", "104853.332000", "104853.335000", "104853.338000", "104853.341000", "104853.344000", "104853.347000", "104853.350000", "104853.353000", "104853.362000", "104853.365000", "104853.368000", "104853.371000", "104853.374000", "104853.377000", "104913.313000", "104913.316000", "104913.320000", "104913.323000", "104913.326000", "104913.329000", "104913.332000", "104913.335000", "104913.338000", "104913.341000", "104913.344000", "104913.347000", "104913.350000", "104913.353000", "104913.357000", "104913.360000", "104913.364000", "104913.367000", "104913.370000", "104913.373000", "104933.314000", "104933.317000", "104933.321000", "104933.324000", "104933.327000", "104933.330000", "104933.333000", "104933.336000", "104933.339000", "104933.342000", "104933.345000", "104933.348000", "104933.351000", "104933.354000", "104933.357000", "104933.361000", "104933.364000", "104933.367000", "104933.370000", "104933.386000", "104953.314000", "104953.317000", "104953.321000", "104953.324000", "104953.327000", "104953.330000", "104953.333000", "104953.336000", "104953.339000", "104953.342000", "104953.345000", "104953.348000", "104953.352000", "104953.355000", "104953.358000", "104953.361000", "104953.364000", "104953.367000", "104953.370000", "104953.373000", "105006.016000", "105006.019000", "105006.022000", "105006.026000", "105006.039000", "105006.042000", "105006.045000", "105006.048000", "105006.051000", "105006.054000", "105006.057000", "105006.060000", "105006.063000"],
      "InstanceNumber": [1, 2, 3, 4, 5, 6, 7, 8, 9, 10, 11, 12, 13, 14, 15, 16, 17, 18, 19, 20, 21, 22, 23, 24, 25, 26, 27, 28, 29, 30, 31, 32, 33, 34, 35, 36, 37, 38, 39, 40, 41, 42, 43, 44, 45, 46, 47, 48, 49, 50, 51, 52, 53, 54, 55, 56, 57, 58, 59, 60, 61, 62, 63, 64, 65, 66, 67, 68, 69, 70, 71, 72, 73, 74, 75, 76, 77, 78, 79, 80, 81, 82, 83, 84, 85, 86, 87, 88, 89, 90, 91, 92, 93, 94, 95, 96, 97, 98, 99, 100, 101, 102, 103, 104, 105, 106, 107, 108, 109, 110, 111, 112, 113, 114, 115, 116, 117, 118, 119, 120, 121, 122, 123, 124, 125, 126, 127, 128, 129, 130, 131, 132, 133, 134, 135, 136, 137, 138, 139, 140, 141, 142, 143, 144, 145, 146, 147, 148, 149, 150, 151, 152, 153, 154, 155, 156, 157, 158, 159, 160, 161, 162, 163, 164, 165, 166, 167, 168, 169, 170, 171, 172, 173, 174, 175, 176, 177, 178, 179, 180, 181, 182, 183, 184, 185, 186, 187, 188, 189, 190, 191, 192, 193, 194, 195, 196, 197, 198, 199, 200, 201, 202, 203, 204, 205, 206, 207, 208, 209, 210, 211, 212, 213, 214, 215, 216, 217, 218, 219, 220, 221, 222, 223, 224, 225, 226, 227, 228, 229, 230, 231, 232, 233, 234, 235, 236, 237, 238, 239, 240, 241, 242, 243, 244, 245, 246, 247, 248, 249, 250, 251, 252, 253, 254, 255, 256, 257, 258, 259, 260, 261, 262, 263, 264, 265, 266, 267, 268, 269, 270, 271, 272, 273, 274, 275, 276, 277, 278, 279, 280, 281, 282, 283, 284, 285, 286, 287, 288, 289, 290, 291, 292, 293, 294, 295, 296, 297, 298, 299, 300],
      "LargestImagePixelValue": [35167, 34276, 33614, 33422, 33038, 32809, 32831, 33560, 33362, 32884, 32601, 32495, 32916, 32575, 32772, 33472, 32951, 32882, 33432, 33810, 33374, 34013, 33608, 34334, 34429, 34767, 34438, 34438, 33735, 34441, 34383, 33607, 33991, 34309, 33540, 33421, 34002, 34384, 34340, 34254, 34501, 35426, 34457, 33987, 34732, 34652, 33073, 34176, 34131, 34248, 34910, 33240, 33294, 34173, 33212, 32416, 32793, 33519, 32946, 32653, 33978, 33548, 32884, 34061, 33780, 33081, 34217, 34383, 33471, 34079, 32926, 32902, 34183, 32496, 31982, 32933, 32020, 32367, 33102, 33471, 32252, 32248, 32356, 31575, 32291, 32395, 31799, 32443, 33039, 32735, 31766, 31500, 31268, 31820, 31800, 31686, 32207, 31863, 31934, 33612, 32235, 32925, 33418, 31572, 32375, 33370, 31540, 31273, 31997, 32349, 31937, 31581, 31357, 31675, 31603, 32006, 32195, 31231, 31544, 31561, 31195, 31906, 31687, 31744, 31931, 31315, 31348, 32529, 31447, 31003, 31266, 31319, 31009, 31246, 30815, 31098, 31264, 30883, 30936, 31691, 31177, 31826, 31767, 31613, 30851, 31166, 32496, 31101, 31253, 31379, 31224, 30807, 31149, 31487, 31627, 31351, 31266, 31275, 31281, 31239, 31270, 31511, 31443, 31407, 31874, 31194, 31188, 32667, 31075, 31251, 31394, 31279, 32583, 31287, 31104, 35339, 31239, 31026, 30929, 31144, 31319, 31218, 30904, 31230, 31212, 31107, 31536, 31583, 30795, 34405, 32373, 31004, 31013, 30980, 31262, 31312, 32123, 30885, 31034, 31097, 30980, 30625, 30919, 35395, 30660, 31367, 31116, 30686, 30959, 31147, 31288, 31656, 30821, 30871, 30984, 31323, 31347, 31522, 31151, 31196, 31462, 31545, 31300, 30953, 31273, 31438, 31281, 31149, 33466, 31274, 31316, 31149, 30997, 31230, 30825, 30996, 31236, 31272, 31377, 31343, 31052, 31288, 31261, 31347, 30790, 31137, 31010, 31061, 30667, 31427, 31219, 32351, 31608, 31108, 30909, 31613, 31405, 30745, 30953, 36089, 30876, 31305, 31297, 31153, 31026, 31103, 31093, 31309, 31506, 31437, 30952, 30691, 34039, 30948, 31046, 31021, 31352, 31445, 31830, 31617, 31276, 31025, 31516, 31118, 31007, 31208, 31453, 31259, 31157, 30806, 31478, 30868, 30756, 31018, 31453, 30939, 31102, 31212, 31045, 30850],
      "WindowCenter": [9560.0, 9526.0, 9502.0, 9486.0, 9484.0, 9483.0, 9491.0, 9496.0, 9498.0, 9491.0, 9485.0, 9494.0, 9500.0, 9492.0, 9493.0, 9506.0, 9494.0, 9485.0, 9490.0, 9494.0, 9488.0, 9505.0, 9508.0, 9520.0, 9527.0, 9533.0, 9533.0, 9533.0, 9530.0, 9552.0, 9559.0, 9560.0, 9569.0, 9566.0, 9554.0, 9546.0, 9549.0, 9546.0, 9550.0, 9548.0, 9546.0, 9555.0, 9536.0, 9532.0, 9538.0, 9546.0, 9535.0, 9549.0, 9558.0, 9560.0, 9570.0, 9546.0, 9546.0, 9551.0, 9533.0, 9525.0, 9525.0, 9526.0, 9522.0, 9518.0, 9534.0, 9527.0, 9522.0, 9534.0, 9549.0, 9533.0, 9551.0, 9550.0, 9539.0, 9542.0, 9533.0, 9539.0, 9549.0, 9528.0, 9514.0, 9525.0, 9506.0, 9511.0, 9524.0, 9533.0, 9517.0, 9519.0, 9522.0, 9524.0, 9543.0, 9539.0, 9531.0, 9533.0, 9530.0, 9510.0, 9497.0, 9484.0, 9483.0, 9483.0, 9483.0, 9489.0, 9512.0, 9507.0, 9513.0, 9537.0, 9512.0, 9513.0, 9506.0, 9482.0, 9502.0, 9513.0, 9498.0, 9508.0, 9521.0, 9520.0, 9514.0, 9501.0, 9494.0, 9498.0, 9489.0, 9498.0, 9505.0, 9493.0, 9506.0, 9502.0, 9494.0, 9499.0, 9499.0, 9501.0, 9506.0, 9494.0, 9495.0, 9501.0, 9477.0, 9477.0, 9477.0, 9475.0, 9472.0, 9475.0, 9463.0, 9467.0, 9474.0, 9467.0, 9468.0, 9480.0, 9476.0, 9487.0, 9493.0, 9491.0, 9478.0, 9478.0, 9504.0, 9487.0, 9485.0, 9481.0, 9469.0, 9438.0, 9438.0, 9457.0, 9466.0, 9458.0, 9453.0, 9450.0, 9450.0, 9450.0, 9449.0, 9452.0, 9452.0, 9457.0, 9469.0, 9460.0, 9464.0, 9486.0, 9472.0, 9477.0, 9466.0, 9466.0, 9476.0, 9458.0, 9451.0, 9514.0, 9471.0, 9467.0, 9463.0, 9445.0, 9442.0, 9434.0, 9428.0, 9435.0, 9440.0, 9428.0, 9444.0, 9448.0, 9445.0, 9501.0, 9480.0, 9470.0, 9464.0, 9460.0, 9459.0, 9452.0, 9454.0, 9438.0, 9435.0, 9439.0, 9451.0, 9456.0, 9469.0, 9532.0, 9480.0, 9485.0, 9478.0, 9457.0, 9461.0, 9454.0, 9462.0, 9474.0, 9462.0, 9466.0, 9458.0, 9454.0, 9443.0, 9431.0, 9416.0, 9416.0, 9421.0, 9420.0, 9425.0, 9427.0, 9431.0, 9443.0, 9448.0, 9450.0, 9484.0, 9461.0, 9459.0, 9461.0, 9461.0, 9481.0, 9480.0, 9482.0, 9488.0, 9489.0, 9485.0, 9478.0, 9472.0, 9468.0, 9471.0, 9474.0, 9466.0, 9474.0, 9487.0, 9488.0, 9482.0, 9481.0, 9470.0, 9465.0, 9443.0, 9428.0, 9427.0, 9441.0, 9440.0, 9436.0, 9437.0, 9500.0, 9433.0, 9446.0, 9449.0, 9445.0, 9448.0, 9444.0, 9439.0, 9453.0, 9454.0, 9464.0, 9458.0, 9453.0, 9496.0, 9468.0, 9480.0, 9485.0, 9482.0, 9465.0, 9460.0, 9453.0, 9441.0, 9421.0, 9436.0, 9430.0, 9431.0, 9437.0, 9443.0, 9443.0, 9440.0, 9440.0, 9445.0, 9425.0, 9430.0, 9432.0, 9438.0, 9446.0, 9457.0, 9469.0, 9463.0, 9458.0],
