{
  "AcquisitionMatrixPE": 104,
  "AcquisitionNumber": 1,
  "AcquisitionTime": "10:29:47.457500",
  "BandwidthPerPixelPhaseEncode": 16.297,
  "BaseResolution": 104,
  "BodyPartExamined": "BRAIN",
  "ConsistencyInfo": "N4_VE11C_LATEST_20160120",
  "ConversionSoftware": "dcm2niix",
  "ConversionSoftwareVersion": "v1.0.20190902",
  "DerivedVendorReportedEchoSpacing": 0.000590009,
  "DeviceSerialNumber": "166018",
  "DwellTime": 2.1e-06,
  "EchoTime": 0.0376,
  "EchoTrainLength": 104,
  "EffectiveEchoSpacing": 0.000590009,
  "FlipAngle": 68,
  "ImageComments": "Unaliased_MB6_PE3_LB",
  "ImageOrientationPatientDICOM": [0.99959, 0.0276268, -0.00754753, -0.0286195, 0.953801, -0.299074],
  "ImageType": [
    "ORIGINAL",
    "PRIMARY",
    "M",
    "MB",
    "ND",
    "MOSAIC"
],
  "ImagingFrequency": 123.191,
  "InPlanePhaseEncodingDirectionDICOM": "COL",
  "InstitutionAddress": "Washington_Place_6_NYC_NYC_US_10003",
  "InstitutionName": "NYU_-_CBI",
  "InstitutionalDepartmentName": "Department",
  "MRAcquisitionType": "2D",
  "MagneticFieldStrength": 3,
  "Manufacturer": "Siemens",
  "ManufacturersModelName": "Prisma",
  "Modality": "MR",
  "MultibandAccelerationFactor": 6,
  "PartialFourier": 1,
  "PatientPosition": "HFS",
  "PercentPhaseFOV": 100,
  "PhaseEncodingDirection": "j",
  "PhaseEncodingSteps": 104,
  "PhaseResolution": 1,
  "PixelBandwidth": 2290,
  "ProcedureStepDescription": "Investigators_Winawer",
  "ProtocolName": "cmrr_mbepi_s6_2mm_66sl_PA_task-prf",
  "PulseSequenceDetails": "%CustomerSeq%_cmrr_mbep2d_bold",
  "ReceiveCoilActiveElements": "HC1-7",
  "ReceiveCoilName": "HeadNeck_64",
  "ReconMatrixPE": 104,
  "RepetitionTime": 1,
  "SAR": 0.0770409,
  "ScanOptions": "FS",
  "ScanningSequence": "EP",
  "SequenceName": "epfid2d1_104",
  "SequenceVariant": "SK_SS",
  "SeriesDescription": "cmrr_mbepi_s6_2mm_66sl_PA_task-prf",
  "SeriesNumber": 14,
  "ShimSetting": [243, -12633, -8407, 369, -62, -56, -32, 25],
  "SliceThickness": 2,
  "SliceTiming": [0, 0.535, 0.09, 0.625, 0.18, 0.7125, 0.2675, 0.8025, 0.3575, 0.8925, 0.445, 0, 0.535, 0.09, 0.625, 0.18, 0.7125, 0.2675, 0.8025, 0.3575, 0.8925, 0.445, 0, 0.535, 0.09, 0.625, 0.18, 0.7125, 0.2675, 0.8025, 0.3575, 0.8925, 0.445, 0, 0.535, 0.09, 0.625, 0.18, 0.7125, 0.2675, 0.8025, 0.3575, 0.8925, 0.445, 0, 0.535, 0.09, 0.625, 0.18, 0.7125, 0.2675, 0.8025, 0.3575, 0.8925, 0.445, 0, 0.535, 0.09, 0.625, 0.18, 0.7125, 0.2675, 0.8025, 0.3575, 0.8925, 0.445],
  "SoftwareVersions": "syngo_MR_E11",
  "SpacingBetweenSlices": 2,
  "StationName": "AWP166018",
  "TaskName": "prf",
  "TotalReadoutTime": 0.060771,
  "TxRefAmp": 250.2,
  "VendorReportedEchoSpacing": 0.00059,
  "WipMemBlock": "82846f46-eacb-4cb0-82aa-2b8f0320f5be||Sequence: R016 ve11c/master r/8780670; Nov 27 2017 15:05:12 by eja",
  "dcmmeta_affine": [
    [-1.9991796016693115, -0.05723899230360985, 0.0021272660233080387, 110.66590118408203],
    [-0.055253658443689346, 1.907601237297058, -0.5983348488807678, -54.574100494384766],
    [-0.015095056034624577, 0.5981482267379761, 1.908400058746338, -64.30183410644531],
    [0.0, 0.0, 0.0, 1.0]
],
  "dcmmeta_reorient_transform": [
    [0.0, -1.0, 0.0, 103.0],
    [1.0, 0.0, 0.0, 0.0],
    [0.0, 0.0, 1.0, 0.0],
    [0.0, 0.0, 0.0, 1.0]
],
  "dcmmeta_shape": [104, 104, 66, 192],
  "dcmmeta_slice_dim": 2,
  "dcmmeta_version": 0.6,
  "global": {
    "const": {
      "AccessionNumber": "kh24bw9s",
      "AcquisitionMatrix": [104, 0, 0, 104],
      "AngioFlag": "N",
      "BitsAllocated": 16,
      "BitsStored": 16,
      "BodyPartExamined": "BRAIN",
      "Columns": 936,
      "EchoNumbers": 1,
      "EchoTime": 37.6,
      "EchoTrainLength": 104,
      "FlipAngle": 68.0,
      "HighBit": 15,
      "ImageOrientationPatient": [0.99958981242134, 0.02762682984351, -0.0075475278247, -0.0286194966467, 0.95380060780716, -0.2990741128188],
      "ImagePositionPatient": [-912.61758991655, -958.45645181925, 252.41663692289],
      "ImageType": [
        "ORIGINAL",
        "PRIMARY",
        "M",
        "MB",
        "ND",
        "MOSAIC"
],
      "ImagedNucleus": "1H",
      "ImagingFrequency": 123.190601,
      "InPlanePhaseEncodingDirection": "COL",
      "MRAcquisitionType": "2D",
      "MagneticFieldStrength": 3.0,
      "Manufacturer": "SIEMENS",
      "ManufacturerModelName": "Prisma",
      "Modality": "MR",
      "NumberOfAverages": 1.0,
      "NumberOfPhaseEncodingSteps": 104,
      "PercentPhaseFieldOfView": 100.0,
      "PercentSampling": 100.0,
      "PerformedProcedureStepStartTime": "095314.554000",
      "PhotometricInterpretation": "MONOCHROME2",
      "PixelBandwidth": 2290.0,
      "PixelRepresentation": 0,
      "PixelSpacing": [2.0, 2.0],
      "ProtocolName": "cmrr_mbepi_s6_2mm_66sl_PA_task-prf",
      "RepetitionTime": 1000.0,
      "Rows": 936,
      "SAR": 0.07704093856587,
      "SamplesPerPixel": 1,
      "ScanOptions": "FS",
      "ScanningSequence": "EP",
      "SequenceName": "epfid2d1_104",
      "SequenceVariant": [
        "SK",
        "SS"
],
      "SeriesDescription": "cmrr_mbepi_s6_2mm_66sl_PA_task-prf",
      "SeriesNumber": 14,
      "SeriesTime": "103106.168000",
      "SliceLocation": -44.912311330147,
      "SliceThickness": 2.0,
      "SmallestImagePixelValue": 0,
      "SoftwareVersions": "syngo MR E11",
      "SpacingBetweenSlices": 1.9999999410325,
      "SpecificCharacterSet": "ISO_IR 100",
      "StudyID": "1",
      "StudyTime": "095314.453000",
      "TransmitCoilName": "Body",
      "VariableFlipAngleFlag": "N",
      "WindowCenterWidthExplanation": "Algo1",
      "dBdt": 0.0},
    "slices": {}
  },
  "time": {
    "samples": {
      "AcquisitionNumber": [1, 2, 3, 4, 5, 6, 7, 8, 9, 10, 11, 12, 13, 14, 15, 16, 17, 18, 19, 20, 21, 22, 23, 24, 25, 26, 27, 28, 29, 30, 31, 32, 33, 34, 35, 36, 37, 38, 39, 40, 41, 42, 43, 44, 45, 46, 47, 48, 49, 50, 51, 52, 53, 54, 55, 56, 57, 58, 59, 60, 61, 62, 63, 64, 65, 66, 67, 68, 69, 70, 71, 72, 73, 74, 75, 76, 77, 78, 79, 80, 81, 82, 83, 84, 85, 86, 87, 88, 89, 90, 91, 92, 93, 94, 95, 96, 97, 98, 99, 100, 101, 102, 103, 104, 105, 106, 107, 108, 109, 110, 111, 112, 113, 114, 115, 116, 117, 118, 119, 120, 121, 122, 123, 124, 125, 126, 127, 128, 129, 130, 131, 132, 133, 134, 135, 136, 137, 138, 139, 140, 141, 142, 143, 144, 145, 146, 147, 148, 149, 150, 151, 152, 153, 154, 155, 156, 157, 158, 159, 160, 161, 162, 163, 164, 165, 166, 167, 168, 169, 170, 171, 172, 173, 174, 175, 176, 177, 178, 179, 180, 181, 182, 183, 184, 185, 186, 187, 188, 189, 190, 191, 192],
      "AcquisitionTime": ["102947.457500", "102948.457500", "102949.457500", "102950.457500", "102951.457500", "102952.457500", "102953.457500", "102954.457500", "102955.457500", "102956.457500", "102957.457500", "102958.457500", "102959.457500", "103000.457500", "103001.457500", "103002.457500", "103003.457500", "103004.457500", "103005.457500", "103006.457500", "103007.457500", "103008.457500", "103009.457500", "103010.457500", "103011.457500", "103012.457500", "103013.457500", "103014.457500", "103015.457500", "103016.457500", "103017.457500", "103018.457500", "103019.457500", "103020.457500", "103021.457500", "103022.457500", "103023.457500", "103024.457500", "103025.457500", "103026.457500", "103027.457500", "103028.457500", "103029.457500", "103030.457500", "103031.457500", "103032.457500", "103033.457500", "103034.457500", "103035.457500", "103036.457500", "103037.457500", "103038.457500", "103039.457500", "103040.457500", "103041.457500", "103042.457500", "103043.457500", "103044.457500", "103045.457500", "103046.457500", "103047.457500", "103048.457500", "103049.457500", "103050.457500", "103051.457500", "103052.457500", "103053.457500", "103054.457500", "103055.457500", "103056.457500", "103057.457500", "103058.457500", "103059.457500", "103100.457500", "103101.457500", "103102.457500", "103103.457500", "103104.457500", "103105.457500", "103106.457500", "103107.457500", "103108.457500", "103109.457500", "103110.457500", "103111.457500", "103112.457500", "103113.457500", "103114.457500", "103115.457500", "103116.457500", "103117.457500", "103118.457500", "103119.457500", "103120.457500", "103121.457500", "103122.457500", "103123.457500", "103124.457500", "103125.457500", "103126.457500", "103127.457500", "103128.457500", "103129.457500", "103130.457500", "103131.457500", "103132.457500", "103133.457500", "103134.457500", "103135.457500", "103136.457500", "103137.457500", "103138.457500", "103139.457500", "103140.457500", "103141.457500", "103142.457500", "103143.457500", "103144.457500", "103145.457500", "103146.457500", "103147.457500", "103148.457500", "103149.457500", "103150.457500", "103151.457500", "103152.457500", "103153.457500", "103154.457500", "103155.457500", "103156.457500", "103157.457500", "103158.457500", "103159.457500", "103200.457500", "103201.457500", "103202.457500", "103203.457500", "103204.457500", "103205.457500", "103206.457500", "103207.457500", "103208.457500", "103209.457500", "103210.457500", "103211.457500", "103212.457500", "103213.457500", "103214.457500", "103215.457500", "103216.457500", "103217.457500", "103218.457500", "103219.457500", "103220.457500", "103221.457500", "103222.457500", "103223.457500", "103224.457500", "103225.457500", "103226.457500", "103227.457500", "103228.457500", "103229.457500", "103230.457500", "103231.457500", "103232.457500", "103233.457500", "103234.457500", "103235.457500", "103236.457500", "103237.457500", "103238.457500", "103239.457500", "103240.457500", "103241.457500", "103242.457500", "103243.457500", "103244.457500", "103245.457500", "103246.457500", "103247.457500", "103248.457500", "103249.457500", "103250.457500", "103251.457500", "103252.457500", "103253.457500", "103254.457500", "103255.457500", "103256.457500", "103257.457500", "103258.457500"],
      "ContentTime": ["103106.170000", "103106.174000", "103106.177000", "103106.184000", "103106.187000", "103106.190000", "103106.193000", "103106.197000", "103106.201000", "103106.205000", "103106.208000", "103106.211000", "103106.222000", "103106.225000", "103106.228000", "103106.231000", "103106.234000", "103106.237000", "103106.240000", "103106.243000", "103106.246000", "103106.248000", "103106.251000", "103106.273000", "103106.276000", "103106.279000", "103106.282000", "103106.285000", "103106.288000", "103106.291000", "103106.294000", "103106.297000", "103106.300000", "103106.303000", "103106.305000", "103106.308000", "103106.311000", "103106.314000", "103126.141000", "103126.144000", "103126.147000", "103126.150000", "103126.152000", "103126.155000", "103126.158000", "103126.161000", "103126.164000", "103126.167000", "103126.170000", "103126.173000", "103126.176000", "103126.179000", "103126.188000", "103126.191000", "103126.194000", "103126.197000", "103126.200000", "103126.204000", "103126.207000", "103126.210000", "103126.212000", "103126.215000", "103126.218000", "103126.221000", "103126.224000", "103126.227000", "103126.230000", "103146.141000", "103146.144000", "103146.147000", "103146.150000", "103146.155000", "103146.158000", "103146.161000", "103146.163000", "103146.166000", "103146.169000", "103146.172000", "103146.175000", "103146.178000", "103146.181000", "103146.184000", "103146.187000", "103146.190000", "103146.193000", "103146.195000", "103146.198000", "103146.202000", "103146.205000", "103146.208000", "103146.211000", "103146.214000", "103146.216000", "103146.219000", "103146.222000", "103206.142000", "103206.145000", "103206.148000", "103206.151000", "103206.154000", "103206.157000", "103206.160000", "103206.162000", "103206.165000", "103206.168000", "103206.171000", "103206.174000", "103206.177000", "103206.180000", "103206.183000", "103206.186000", "103206.189000", "103206.193000", "103206.196000", "103206.199000", "103206.213000", "103206.216000", "103206.219000", "103206.222000", "103206.225000", "103206.228000", "103206.231000", "103206.234000", "103226.142000", "103226.145000", "103226.148000", "103226.151000", "103226.154000", "103226.156000", "103226.159000", "103226.162000", "103226.165000", "103226.168000", "103226.171000", "103226.174000", "103226.177000", "103226.180000", "103226.183000", "103226.185000", "103226.188000", "103226.191000", "103226.194000", "103226.197000", "103226.201000", "103226.204000", "103226.207000", "103226.210000", "103226.213000", "103226.216000", "103226.219000", "103226.221000", "103226.224000", "103246.142000", "103246.145000", "103246.148000", "103246.151000", "103246.154000", "103246.157000", "103246.160000", "103246.163000", "103246.165000", "103246.168000", "103246.171000", "103246.174000", "103246.177000", "103246.180000", "103246.183000", "103246.186000", "103246.189000", "103246.192000", "103246.195000", "103246.197000", "103246.201000", "103246.204000", "103246.207000", "103246.210000", "103246.213000", "103300.388000", "103300.392000", "103300.394000", "103300.397000", "103300.400000", "103300.403000", "103300.407000", "103300.409000", "103300.412000", "103300.415000", "103300.418000", "103300.421000", "103300.424000", "103300.427000", "103300.430000"],
      "InstanceCreationTime": ["103106.170000", "103106.174000", "103106.177000", "103106.184000", "103106.187000", "103106.190000", "103106.193000", "103106.197000", "103106.201000", "103106.205000", "103106.208000", "103106.211000", "103106.222000", "103106.225000", "103106.228000", "103106.231000", "103106.234000", "103106.237000", "103106.240000", "103106.243000", "103106.246000", "103106.248000", "103106.251000", "103106.273000", "103106.276000", "103106.279000", "103106.282000", "103106.285000", "103106.288000", "103106.291000", "103106.294000", "103106.297000", "103106.300000", "103106.303000", "103106.305000", "103106.308000", "103106.311000", "103106.314000", "103126.141000", "103126.144000", "103126.147000", "103126.150000", "103126.152000", "103126.155000", "103126.158000", "103126.161000", "103126.164000", "103126.167000", "103126.170000", "103126.173000", "103126.176000", "103126.179000", "103126.188000", "103126.191000", "103126.194000", "103126.197000", "103126.200000", "103126.204000", "103126.207000", "103126.210000", "103126.212000", "103126.215000", "103126.218000", "103126.221000", "103126.224000", "103126.227000", "103126.230000", "103146.141000", "103146.144000", "103146.147000", "103146.150000", "103146.155000", "103146.158000", "103146.161000", "103146.163000", "103146.166000", "103146.169000", "103146.172000", "103146.175000", "103146.178000", "103146.181000", "103146.184000", "103146.187000", "103146.190000", "103146.193000", "103146.195000", "103146.198000", "103146.202000", "103146.205000", "103146.208000", "103146.211000", "103146.214000", "103146.216000", "103146.219000", "103146.222000", "103206.142000", "103206.145000", "103206.148000", "103206.151000", "103206.154000", "103206.157000", "103206.160000", "103206.162000", "103206.165000", "103206.168000", "103206.171000", "103206.174000", "103206.177000", "103206.180000", "103206.183000", "103206.186000", "103206.189000", "103206.193000", "103206.196000", "103206.199000", "103206.213000", "103206.216000", "103206.219000", "103206.222000", "103206.225000", "103206.228000", "103206.231000", "103206.234000", "103226.142000", "103226.145000", "103226.148000", "103226.151000", "103226.154000", "103226.156000", "103226.159000", "103226.162000", "103226.165000", "103226.168000", "103226.171000", "103226.174000", "103226.177000", "103226.180000", "103226.183000", "103226.185000", "103226.188000", "103226.191000", "103226.194000", "103226.197000", "103226.201000", "103226.204000", "103226.207000", "103226.210000", "103226.213000", "103226.216000", "103226.219000", "103226.221000", "103226.224000", "103246.142000", "103246.145000", "103246.148000", "103246.151000", "103246.154000", "103246.157000", "103246.160000", "103246.163000", "103246.165000", "103246.168000", "103246.171000", "103246.174000", "103246.177000", "103246.180000", "103246.183000", "103246.186000", "103246.189000", "103246.192000", "103246.195000", "103246.197000", "103246.201000", "103246.204000", "103246.207000", "103246.210000", "103246.213000", "103300.388000", "103300.392000", "103300.394000", "103300.397000", "103300.400000", "103300.403000", "103300.407000", "103300.409000", "103300.412000", "103300.415000", "103300.418000", "103300.421000", "103300.424000", "103300.427000", "103300.430000"],
      "InstanceNumber": [1, 2, 3, 4, 5, 6, 7, 8, 9, 10, 11, 12, 13, 14, 15, 16, 17, 18, 19, 20, 21, 22, 23, 24, 25, 26, 27, 28, 29, 30, 31, 32, 33, 34, 35, 36, 37, 38, 39, 40, 41, 42, 43, 44, 45, 46, 47, 48, 49, 50, 51, 52, 53, 54, 55, 56, 57, 58, 59, 60, 61, 62, 63, 64, 65, 66, 67, 68, 69, 70, 71, 72, 73, 74, 75, 76, 77, 78, 79, 80, 81, 82, 83, 84, 85, 86, 87, 88, 89, 90, 91, 92, 93, 94, 95, 96, 97, 98, 99, 100, 101, 102, 103, 104, 105, 106, 107, 108, 109, 110, 111, 112, 113, 114, 115, 116, 117, 118, 119, 120, 121, 122, 123, 124, 125, 126, 127, 128, 129, 130, 131, 132, 133, 134, 135, 136, 137, 138, 139, 140, 141, 142, 143, 144, 145, 146, 147, 148, 149, 150, 151, 152, 153, 154, 155, 156, 157, 158, 159, 160, 161, 162, 163, 164, 165, 166, 167, 168, 169, 170, 171, 172, 173, 174, 175, 176, 177, 178, 179, 180, 181, 182, 183, 184, 185, 186, 187, 188, 189, 190, 191, 192],
      "LargestImagePixelValue": [36717, 36199, 35616, 35096, 34986, 34318, 35036, 34889, 35195, 34565, 34338, 35341, 34387, 35320, 34583, 34259, 34019, 33847, 34365, 33988, 33852, 34969, 34148, 34908, 34632, 33882, 34658, 34455, 34118, 35284, 33807, 33894, 34937, 34454, 34368, 34324, 34697, 33937, 35143, 34212, 34413, 35693, 33947, 34156, 34327, 34563, 34884, 34104, 34531, 34057, 35129, 34160, 34184, 34758, 34087, 34475, 33866, 34352, 34148, 34206, 34436, 33967, 34501, 34378, 34933, 34005, 34019, 34682, 34041, 34358, 34138, 34540, 33960, 34271, 34232, 34202, 34069, 33789, 34007, 34038, 34302, 33793, 34195, 34218, 33900, 34576, 34291, 34681, 33636, 34020, 34721, 34513, 34813, 34078, 34680, 34098, 35145, 34943, 33234, 33702, 34503, 34699, 34397, 34061, 34193, 33930, 34359, 34520, 33961, 34256, 33740, 34374, 34232, 34638, 35005, 34302, 34842, 34126, 34567, 34574, 33416, 34088, 34194, 33966, 34461, 34090, 34171, 34020, 34156, 34153, 33988, 34886, 33639, 34299, 34230, 34215, 34066, 34145, 34281, 33999, 34070, 33889, 33980, 33900, 34574, 33785, 33995, 33610, 34709, 33983, 33965, 34386, 33308, 34120, 34460, 33672, 34303, 33643, 34374, 33951, 34609, 34003, 33460, 34399, 33567, 34443, 34135, 34342, 34282, 33788, 34424, 33735, 33366, 33711, 33512, 33919, 33498, 34313, 33738, 33780, 33713, 33571, 33898, 33074, 32917, 33379, 34086, 33894, 33220, 33816, 33292, 33814],
      "WindowCenter": [9252.0, 9231.0, 9208.0, 9207.0, 9199.0, 9187.0, 9183.0, 9181.0, 9186.0, 9181.0, 9176.0, 9187.0, 9177.0, 9189.0, 9183.0, 9176.0, 9170.0, 9170.0, 9168.0, 9162.0, 9162.0, 9179.0, 9174.0, 9175.0, 9175.0, 9170.0, 9169.0, 9175.0, 9170.0, 9188.0, 9179.0, 9182.0, 9193.0, 9194.0, 9181.0, 9181.0, 9178.0, 9177.0, 9196.0, 9185.0, 9185.0, 9194.0, 9172.0, 9173.0, 9177.0, 9178.0, 9189.0, 9179.0, 9177.0, 9170.0, 9181.0, 9169.0, 9170.0, 9173.0, 9168.0, 9175.0, 9171.0, 9178.0, 9178.0, 9178.0, 9177.0, 9171.0, 9177.0, 9184.0, 9192.0, 9173.0, 9174.0, 9185.0, 9173.0, 9177.0, 9177.0, 9175.0, 9164.0, 9170.0, 9175.0, 9169.0, 9163.0, 9170.0, 9171.0, 9165.0, 9171.0, 9170.0, 9171.0, 9172.0, 9166.0, 9170.0, 9178.0, 9178.0, 9168.0, 9180.0, 9184.0, 9171.0, 9181.0, 9165.0, 9168.0, 9169.0, 9182.0, 9182.0, 9161.0, 9173.0, 9185.0, 9183.0, 9170.0, 9164.0, 9168.0, 9162.0, 9168.0, 9167.0, 9156.0, 9155.0, 9148.0, 9146.0, 9146.0, 9158.0, 9164.0, 9159.0, 9164.0, 9167.0, 9169.0, 9176.0, 9168.0, 9181.0, 9187.0, 9189.0, 9195.0, 9190.0, 9188.0, 9181.0, 9181.0, 9172.0, 9166.0, 9180.0, 9160.0, 9171.0, 9179.0, 9173.0, 9172.0, 9173.0, 9172.0, 9165.0, 9166.0, 9165.0, 9165.0, 9164.0, 9176.0, 9159.0, 9163.0, 9158.0, 9176.0, 9172.0, 9166.0, 9170.0, 9154.0, 9172.0, 9179.0, 9167.0, 9178.0, 9167.0, 9170.0, 9164.0, 9169.0, 9163.0, 9158.0, 9168.0, 9164.0, 9168.0, 9162.0, 9163.0, 9170.0, 9166.0, 9176.0, 9159.0, 9159.0, 9167.0, 9166.0, 9173.0, 9168.0, 9180.0, 9176.0, 9182.0, 9168.0, 9167.0, 9165.0, 9154.0, 9160.0, 9170.0, 9190.0, 9177.0, 9170.0, 9181.0, 9161.0, 9165.0],
      "WindowWidth": [19666.0, 19601.0, 19548.0, 19540.0, 19522.0, 19497.0, 19483.0, 19475.0, 19484.0, 19478.0, 19470.0, 19486.0, 19471.0, 19492.0, 19482.0, 19468.0, 19457.0, 19460.0, 19451.0, 19442.0, 19442.0, 19469.0, 19463.0, 19465.0, 19465.0, 19456.0, 19452.0, 19465.0, 19457.0, 19489.0, 19479.0, 19488.0, 19508.0, 19509.0, 19484.0, 19482.0, 19473.0, 19473.0, 19506.0, 19489.0, 19486.0, 19499.0, 19466.0, 19466.0, 19472.0, 19475.0, 19494.0, 19478.0, 19469.0, 19456.0, 19473.0, 19452.0, 19456.0, 19460.0, 19450.0, 19464.0, 19462.0, 19473.0, 19473.0, 19474.0, 19470.0, 19459.0, 19471.0, 19485.0, 19500.0, 19469.0, 19471.0, 19489.0, 19467.0, 19472.0, 19469.0, 19465.0, 19447.0, 19458.0, 19463.0, 19452.0, 19441.0, 19457.0, 19461.0, 19451.0, 19459.0, 19458.0, 19462.0, 19463.0, 19454.0, 19458.0, 19473.0, 19475.0, 19460.0, 19479.0, 19483.0, 19457.0, 19475.0, 19446.0, 19449.0, 19452.0, 19478.0, 19480.0, 19446.0, 19466.0, 19486.0, 19477.0, 19453.0, 19444.0, 19450.0, 19441.0, 19450.0, 19446.0, 19427.0, 19422.0, 19411.0, 19404.0, 19403.0, 19424.0, 19435.0, 19429.0, 19437.0, 19446.0, 19452.0, 19468.0, 19459.0, 19485.0, 19497.0, 19502.0, 19513.0, 19505.0, 19498.0, 19484.0, 19482.0, 19463.0, 19450.0, 19472.0, 19442.0, 19463.0, 19478.0, 19466.0, 19465.0, 19466.0, 19462.0, 19451.0, 19453.0, 19451.0, 19449.0, 19446.0, 19467.0, 19435.0, 19443.0, 19435.0, 19469.0, 19464.0, 19454.0, 19459.0, 19430.0, 19462.0, 19475.0, 19454.0, 19472.0, 19454.0, 19456.0, 19445.0, 19452.0, 19443.0, 19433.0, 19451.0, 19445.0, 19447.0, 19437.0, 19441.0, 19456.0, 19453.0, 19468.0, 19439.0, 19441.0, 19455.0, 19453.0, 19466.0, 19460.0, 19480.0, 19477.0, 19487.0, 19462.0, 19456.0, 19449.0, 19434.0, 19445.0, 19468.0, 19502.0, 19479.0, 19466.0, 19483.0, 19443.0, 19446.0]
    },
    "slices": {}
  },
  "NumberOfVolumes": 192
}