{
  "AcquisitionMatrixPE": 104,
  "AcquisitionNumber": 1,
  "AcquisitionTime": "10:17:46.612500",
  "BandwidthPerPixelPhaseEncode": 16.297,
  "BaseResolution": 104,
  "BodyPartExamined": "BRAIN",
  "ConsistencyInfo": "N4_VE11C_LATEST_20160120",
  "ConversionSoftware": "dcm2niix",
  "ConversionSoftwareVersion": "v1.0.20190902",
  "DerivedVendorReportedEchoSpacing": 0.000590009,
  "DeviceSerialNumber": "166018",
  "DwellTime": 2.1e-06,
  "EchoTime": 0.0376,
  "EchoTrainLength": 104,
  "EffectiveEchoSpacing": 0.000590009,
  "FlipAngle": 68,
  "ImageComments": "Unaliased_MB6_PE3_LB",
  "ImageOrientationPatientDICOM": [0.99959, 0.0276268, -0.00754753, -0.0286195, 0.953801, -0.299074],
  "ImageType": [
    "ORIGINAL",
    "PRIMARY",
    "M",
    "MB",
    "ND",
    "MOSAIC"
],
  "ImagingFrequency": 123.191,
  "InPlanePhaseEncodingDirectionDICOM": "COL",
  "InstitutionAddress": "Washington_Place_6_NYC_NYC_US_10003",
  "InstitutionName": "NYU_-_CBI",
  "InstitutionalDepartmentName": "Department",
  "MRAcquisitionType": "2D",
  "MagneticFieldStrength": 3,
  "Manufacturer": "Siemens",
  "ManufacturersModelName": "Prisma",
  "Modality": "MR",
  "MultibandAccelerationFactor": 6,
  "PartialFourier": 1,
  "PatientPosition": "HFS",
  "PercentPhaseFOV": 100,
  "PhaseEncodingDirection": "j",
  "PhaseEncodingSteps": 104,
  "PhaseResolution": 1,
  "PixelBandwidth": 2290,
  "ProcedureStepDescription": "Investigators_Winawer",
  "ProtocolName": "cmrr_mbepi_s6_2mm_66sl_PA_task-prf",
  "PulseSequenceDetails": "%CustomerSeq%_cmrr_mbep2d_bold",
  "ReceiveCoilActiveElements": "HC1-7",
  "ReceiveCoilName": "HeadNeck_64",
  "ReconMatrixPE": 104,
  "RepetitionTime": 1,
  "SAR": 0.0770409,
  "ScanOptions": "FS",
  "ScanningSequence": "EP",
  "SequenceName": "epfid2d1_104",
  "SequenceVariant": "SK_SS",
  "SeriesDescription": "cmrr_mbepi_s6_2mm_66sl_PA_task-prf",
  "SeriesNumber": 8,
  "ShimSetting": [243, -12633, -8407, 369, -62, -56, -32, 25],
  "SliceThickness": 2,
  "SliceTiming": [0, 0.535, 0.09, 0.625, 0.18, 0.7125, 0.2675, 0.8025, 0.3575, 0.8925, 0.445, 0, 0.535, 0.09, 0.625, 0.18, 0.7125, 0.2675, 0.8025, 0.3575, 0.8925, 0.445, 0, 0.535, 0.09, 0.625, 0.18, 0.7125, 0.2675, 0.8025, 0.3575, 0.8925, 0.445, 0, 0.535, 0.09, 0.625, 0.18, 0.7125, 0.2675, 0.8025, 0.3575, 0.8925, 0.445, 0, 0.535, 0.09, 0.625, 0.18, 0.7125, 0.2675, 0.8025, 0.3575, 0.8925, 0.445, 0, 0.535, 0.09, 0.625, 0.18, 0.7125, 0.2675, 0.8025, 0.3575, 0.8925, 0.445],
  "SoftwareVersions": "syngo_MR_E11",
  "SpacingBetweenSlices": 2,
  "StationName": "AWP166018",
  "TaskName": "prf",
  "TotalReadoutTime": 0.060771,
  "TxRefAmp": 250.2,
  "VendorReportedEchoSpacing": 0.00059,
  "WipMemBlock": "82846f46-eacb-4cb0-82aa-2b8f0320f5be||Sequence: R016 ve11c/master r/8780670; Nov 27 2017 15:05:12 by eja",
  "dcmmeta_affine": [
    [-1.9991796016693115, -0.05723899230360985, 0.0021272660233080387, 110.66590118408203],
    [-0.055253658443689346, 1.907601237297058, -0.5983348488807678, -54.574100494384766],
    [-0.015095056034624577, 0.5981482267379761, 1.908400058746338, -64.30183410644531],
    [0.0, 0.0, 0.0, 1.0]
],
  "dcmmeta_reorient_transform": [
    [0.0, -1.0, 0.0, 103.0],
    [1.0, 0.0, 0.0, 0.0],
    [0.0, 0.0, 1.0, 0.0],
    [0.0, 0.0, 0.0, 1.0]
],
  "dcmmeta_shape": [104, 104, 66, 192],
  "dcmmeta_slice_dim": 2,
  "dcmmeta_version": 0.6,
  "global": {
    "const": {
      "AccessionNumber": "kh24bw9s",
      "AcquisitionMatrix": [104, 0, 0, 104],
      "AngioFlag": "N",
      "BitsAllocated": 16,
      "BitsStored": 16,
      "BodyPartExamined": "BRAIN",
      "Columns": 936,
      "EchoNumbers": 1,
      "EchoTime": 37.6,
      "EchoTrainLength": 104,
      "FlipAngle": 68.0,
      "HighBit": 15,
      "ImageOrientationPatient": [0.99958981242134, 0.02762682984351, -0.0075475278247, -0.0286194966467, 0.95380060780716, -0.2990741128188],
      "ImagePositionPatient": [-912.61758991655, -958.45645181925, 252.41663692289],
      "ImageType": [
        "ORIGINAL",
        "PRIMARY",
        "M",
        "MB",
        "ND",
        "MOSAIC"
],
      "ImagedNucleus": "1H",
      "ImagingFrequency": 123.190601,
      "InPlanePhaseEncodingDirection": "COL",
      "MRAcquisitionType": "2D",
      "MagneticFieldStrength": 3.0,
      "Manufacturer": "SIEMENS",
      "ManufacturerModelName": "Prisma",
      "Modality": "MR",
      "NumberOfAverages": 1.0,
      "NumberOfPhaseEncodingSteps": 104,
      "PercentPhaseFieldOfView": 100.0,
      "PercentSampling": 100.0,
      "PerformedProcedureStepStartTime": "095314.554000",
      "PhotometricInterpretation": "MONOCHROME2",
      "PixelBandwidth": 2290.0,
      "PixelRepresentation": 0,
      "PixelSpacing": [2.0, 2.0],
      "ProtocolName": "cmrr_mbepi_s6_2mm_66sl_PA_task-prf",
      "RepetitionTime": 1000.0,
      "Rows": 936,
      "SAR": 0.07704093856587,
      "SamplesPerPixel": 1,
      "ScanOptions": "FS",
      "ScanningSequence": "EP",
      "SequenceName": "epfid2d1_104",
      "SequenceVariant": [
        "SK",
        "SS"
],
      "SeriesDescription": "cmrr_mbepi_s6_2mm_66sl_PA_task-prf",
      "SeriesNumber": 8,
      "SeriesTime": "101906.165000",
      "SliceLocation": -44.912311330147,
      "SliceThickness": 2.0,
      "SmallestImagePixelValue": 0,
      "SoftwareVersions": "syngo MR E11",
      "SpacingBetweenSlices": 1.9999999410325,
      "SpecificCharacterSet": "ISO_IR 100",
      "StudyID": "1",
      "StudyTime": "095314.453000",
      "TransmitCoilName": "Body",
      "VariableFlipAngleFlag": "N",
      "WindowCenterWidthExplanation": "Algo1",
      "dBdt": 0.0},
    "slices": {}
  },
  "time": {
    "samples": {
      "AcquisitionNumber": [1, 2, 3, 4, 5, 6, 7, 8, 9, 10, 11, 12, 13, 14, 15, 16, 17, 18, 19, 20, 21, 22, 23, 24, 25, 26, 27, 28, 29, 30, 31, 32, 33, 34, 35, 36, 37, 38, 39, 40, 41, 42, 43, 44, 45, 46, 47, 48, 49, 50, 51, 52, 53, 54, 55, 56, 57, 58, 59, 60, 61, 62, 63, 64, 65, 66, 67, 68, 69, 70, 71, 72, 73, 74, 75, 76, 77, 78, 79, 80, 81, 82, 83, 84, 85, 86, 87, 88, 89, 90, 91, 92, 93, 94, 95, 96, 97, 98, 99, 100, 101, 102, 103, 104, 105, 106, 107, 108, 109, 110, 111, 112, 113, 114, 115, 116, 117, 118, 119, 120, 121, 122, 123, 124, 125, 126, 127, 128, 129, 130, 131, 132, 133, 134, 135, 136, 137, 138, 139, 140, 141, 142, 143, 144, 145, 146, 147, 148, 149, 150, 151, 152, 153, 154, 155, 156, 157, 158, 159, 160, 161, 162, 163, 164, 165, 166, 167, 168, 169, 170, 171, 172, 173, 174, 175, 176, 177, 178, 179, 180, 181, 182, 183, 184, 185, 186, 187, 188, 189, 190, 191, 192],
      "AcquisitionTime": ["101746.612500", "101747.612500", "101748.612500", "101749.612500", "101750.612500", "101751.612500", "101752.612500", "101753.612500", "101754.612500", "101755.612500", "101756.612500", "101757.612500", "101758.612500", "101759.612500", "101800.612500", "101801.612500", "101802.612500", "101803.612500", "101804.612500", "101805.612500", "101806.612500", "101807.612500", "101808.612500", "101809.612500", "101810.612500", "101811.612500", "101812.612500", "101813.612500", "101814.612500", "101815.612500", "101816.612500", "101817.612500", "101818.612500", "101819.612500", "101820.612500", "101821.612500", "101822.612500", "101823.612500", "101824.612500", "101825.612500", "101826.612500", "101827.612500", "101828.612500", "101829.612500", "101830.612500", "101831.612500", "101832.612500", "101833.612500", "101834.612500", "101835.612500", "101836.612500", "101837.612500", "101838.612500", "101839.612500", "101840.612500", "101841.612500", "101842.612500", "101843.612500", "101844.612500", "101845.612500", "101846.612500", "101847.612500", "101848.612500", "101849.612500", "101850.612500", "101851.612500", "101852.612500", "101853.612500", "101854.612500", "101855.612500", "101856.612500", "101857.612500", "101858.612500", "101859.612500", "101900.612500", "101901.612500", "101902.612500", "101903.612500", "101904.612500", "101905.612500", "101906.612500", "101907.612500", "101908.612500", "101909.612500", "101910.612500", "101911.612500", "101912.612500", "101913.612500", "101914.612500", "101915.612500", "101916.612500", "101917.612500", "101918.612500", "101919.612500", "101920.612500", "101921.612500", "101922.612500", "101923.612500", "101924.612500", "101925.612500", "101926.612500", "101927.612500", "101928.612500", "101929.612500", "101930.612500", "101931.612500", "101932.612500", "101933.612500", "101934.612500", "101935.612500", "101936.612500", "101937.612500", "101938.612500", "101939.612500", "101940.612500", "101941.612500", "101942.612500", "101943.612500", "101944.612500", "101945.612500", "101946.612500", "101947.612500", "101948.612500", "101949.612500", "101950.612500", "101951.612500", "101952.612500", "101953.612500", "101954.612500", "101955.612500", "101956.612500", "101957.612500", "101958.612500", "101959.612500", "102000.612500", "102001.612500", "102002.612500", "102003.612500", "102004.612500", "102005.612500", "102006.612500", "102007.612500", "102008.612500", "102009.612500", "102010.612500", "102011.612500", "102012.612500", "102013.612500", "102014.612500", "102015.612500", "102016.612500", "102017.612500", "102018.612500", "102019.612500", "102020.612500", "102021.612500", "102022.612500", "102023.612500", "102024.612500", "102025.612500", "102026.612500", "102027.612500", "102028.612500", "102029.612500", "102030.612500", "102031.612500", "102032.612500", "102033.612500", "102034.612500", "102035.612500", "102036.612500", "102037.612500", "102038.612500", "102039.612500", "102040.612500", "102041.612500", "102042.612500", "102043.612500", "102044.612500", "102045.612500", "102046.612500", "102047.612500", "102048.612500", "102049.612500", "102050.612500", "102051.612500", "102052.612500", "102053.612500", "102054.612500", "102055.612500", "102056.612500", "102057.612500"],
      "ContentTime": ["101906.167000", "101906.171000", "101906.174000", "101906.177000", "101906.180000", "101906.182000", "101906.190000", "101906.193000", "101906.196000", "101906.199000", "101906.202000", "101906.205000", "101906.208000", "101906.211000", "101906.214000", "101906.216000", "101906.219000", "101906.222000", "101906.225000", "101906.228000", "101906.231000", "101906.240000", "101906.243000", "101906.246000", "101906.249000", "101906.252000", "101906.255000", "101906.258000", "101906.261000", "101906.263000", "101906.266000", "101906.269000", "101906.272000", "101906.275000", "101906.278000", "101906.281000", "101906.284000", "101906.287000", "101906.290000", "101926.141000", "101926.144000", "101926.147000", "101926.150000", "101926.153000", "101926.156000", "101926.159000", "101926.161000", "101926.178000", "101926.181000", "101926.184000", "101926.186000", "101926.189000", "101926.192000", "101926.195000", "101926.198000", "101926.201000", "101926.204000", "101926.207000", "101926.210000", "101926.213000", "101926.215000", "101926.218000", "101926.221000", "101926.224000", "101926.235000", "101926.238000", "101926.241000", "101946.141000", "101946.144000", "101946.147000", "101946.150000", "101946.153000", "101946.156000", "101946.158000", "101946.161000", "101946.164000", "101946.167000", "101946.170000", "101946.173000", "101946.176000", "101946.179000", "101946.182000", "101946.184000", "101946.187000", "101946.190000", "101946.193000", "101946.196000", "101946.199000", "101946.202000", "101946.205000", "101946.207000", "101946.210000", "101946.213000", "101946.216000", "101946.219000", "102006.141000", "102006.144000", "102006.147000", "102006.150000", "102006.153000", "102006.156000", "102006.159000", "102006.162000", "102006.164000", "102006.167000", "102006.170000", "102006.173000", "102006.176000", "102006.179000", "102006.182000", "102006.185000", "102006.188000", "102006.190000", "102006.193000", "102006.196000", "102006.199000", "102006.202000", "102006.205000", "102006.208000", "102006.211000", "102006.214000", "102006.217000", "102006.220000", "102026.142000", "102026.145000", "102026.148000", "102026.151000", "102026.154000", "102026.156000", "102026.159000", "102026.162000", "102026.165000", "102026.168000", "102026.171000", "102026.174000", "102026.177000", "102026.180000", "102026.183000", "102026.186000", "102026.188000", "102026.191000", "102026.194000", "102026.197000", "102026.200000", "102026.203000", "102026.206000", "102026.209000", "102026.212000", "102026.215000", "102026.217000", "102026.220000", "102026.223000", "102046.142000", "102046.145000", "102046.148000", "102046.151000", "102046.154000", "102046.157000", "102046.160000", "102046.162000", "102046.165000", "102046.168000", "102046.171000", "102046.174000", "102046.177000", "102046.180000", "102046.183000", "102046.186000", "102046.189000", "102046.192000", "102046.194000", "102046.197000", "102046.200000", "102046.203000", "102046.206000", "102046.209000", "102046.212000", "102046.215000", "102046.218000", "102059.165000", "102059.168000", "102059.171000", "102059.174000", "102059.177000", "102059.180000", "102059.183000", "102059.186000", "102059.189000", "102059.192000", "102059.195000", "102059.198000", "102059.201000"],
      "InstanceCreationTime": ["101906.167000", "101906.171000", "101906.174000", "101906.177000", "101906.180000", "101906.182000", "101906.190000", "101906.193000", "101906.196000", "101906.199000", "101906.202000", "101906.205000", "101906.208000", "101906.211000", "101906.214000", "101906.216000", "101906.219000", "101906.222000", "101906.225000", "101906.228000", "101906.231000", "101906.240000", "101906.243000", "101906.246000", "101906.249000", "101906.252000", "101906.255000", "101906.258000", "101906.261000", "101906.263000", "101906.266000", "101906.269000", "101906.272000", "101906.275000", "101906.278000", "101906.281000", "101906.284000", "101906.287000", "101906.290000", "101926.141000", "101926.144000", "101926.147000", "101926.150000", "101926.153000", "101926.156000", "101926.159000", "101926.161000", "101926.178000", "101926.181000", "101926.184000", "101926.186000", "101926.189000", "101926.192000", "101926.195000", "101926.198000", "101926.201000", "101926.204000", "101926.207000", "101926.210000", "101926.213000", "101926.215000", "101926.218000", "101926.221000", "101926.224000", "101926.235000", "101926.238000", "101926.241000", "101946.141000", "101946.144000", "101946.147000", "101946.150000", "101946.153000", "101946.156000", "101946.158000", "101946.161000", "101946.164000", "101946.167000", "101946.170000", "101946.173000", "101946.176000", "101946.179000", "101946.182000", "101946.184000", "101946.187000", "101946.190000", "101946.193000", "101946.196000", "101946.199000", "101946.202000", "101946.205000", "101946.207000", "101946.210000", "101946.213000", "101946.216000", "101946.219000", "102006.141000", "102006.144000", "102006.147000", "102006.150000", "102006.153000", "102006.156000", "102006.159000", "102006.162000", "102006.164000", "102006.167000", "102006.170000", "102006.173000", "102006.176000", "102006.179000", "102006.182000", "102006.185000", "102006.188000", "102006.190000", "102006.193000", "102006.196000", "102006.199000", "102006.202000", "102006.205000", "102006.208000", "102006.211000", "102006.214000", "102006.217000", "102006.220000", "102026.142000", "102026.145000", "102026.148000", "102026.151000", "102026.154000", "102026.156000", "102026.159000", "102026.162000", "102026.165000", "102026.168000", "102026.171000", "102026.174000", "102026.177000", "102026.180000", "102026.183000", "102026.186000", "102026.188000", "102026.191000", "102026.194000", "102026.197000", "102026.200000", "102026.203000", "102026.206000", "102026.209000", "102026.212000", "102026.215000", "102026.217000", "102026.220000", "102026.223000", "102046.142000", "102046.145000", "102046.148000", "102046.151000", "102046.154000", "102046.157000", "102046.160000", "102046.162000", "102046.165000", "102046.168000", "102046.171000", "102046.174000", "102046.177000", "102046.180000", "102046.183000", "102046.186000", "102046.189000", "102046.192000", "102046.194000", "102046.197000", "102046.200000", "102046.203000", "102046.206000", "102046.209000", "102046.212000", "102046.215000", "102046.218000", "102059.165000", "102059.168000", "102059.171000", "102059.174000", "102059.177000", "102059.180000", "102059.183000", "102059.186000", "102059.189000", "102059.192000", "102059.195000", "102059.198000", "102059.201000"],
      "InstanceNumber": [1, 2, 3, 4, 5, 6, 7, 8, 9, 10, 11, 12, 13, 14, 15, 16, 17, 18, 19, 20, 21, 22, 23, 24, 25, 26, 27, 28, 29, 30, 31, 32, 33, 34, 35, 36, 37, 38, 39, 40, 41, 42, 43, 44, 45, 46, 47, 48, 49, 50, 51, 52, 53, 54, 55, 56, 57, 58, 59, 60, 61, 62, 63, 64, 65, 66, 67, 68, 69, 70, 71, 72, 73, 74, 75, 76, 77, 78, 79, 80, 81, 82, 83, 84, 85, 86, 87, 88, 89, 90, 91, 92, 93, 94, 95, 96, 97, 98, 99, 100, 101, 102, 103, 104, 105, 106, 107, 108, 109, 110, 111, 112, 113, 114, 115, 116, 117, 118, 119, 120, 121, 122, 123, 124, 125, 126, 127, 128, 129, 130, 131, 132, 133, 134, 135, 136, 137, 138, 139, 140, 141, 142, 143, 144, 145, 146, 147, 148, 149, 150, 151, 152, 153, 154, 155, 156, 157, 158, 159, 160, 161, 162, 163, 164, 165, 166, 167, 168, 169, 170, 171, 172, 173, 174, 175, 176, 177, 178, 179, 180, 181, 182, 183, 184, 185, 186, 187, 188, 189, 190, 191, 192],
      "LargestImagePixelValue": [35960, 34692, 35144, 34867, 34729, 34153, 34563, 35256, 33949, 34467, 34787, 34627, 34428, 34336, 35013, 33429, 33990, 34162, 33923, 34432, 33596, 34601, 34949, 34490, 34791, 35239, 35116, 35251, 35267, 35777, 35121, 36039, 35280, 35558, 34916, 35719, 35811, 35473, 35554, 35786, 36788, 35852, 36668, 36709, 35972, 36924, 36099, 36360, 37223, 36012, 36696, 35848, 37129, 36163, 36463, 36578, 36036, 36227, 35952, 36447, 35784, 36601, 36239, 36471, 36365, 36337, 35785, 36329, 36496, 36501, 36646, 36270, 37179, 36213, 37040, 36348, 37088, 36846, 36823, 37079, 36699, 36168, 36209, 37121, 36282, 36490, 36289, 36833, 36986, 35973, 36953, 35722, 36636, 36220, 36380, 36034, 36383, 36429, 36764, 36819, 36027, 36205, 37046, 37156, 36146, 37047, 36816, 37082, 37945, 36655, 36789, 36927, 37238, 36987, 37337, 37036, 37193, 37143, 36390, 37211, 36911, 36931, 36679, 37167, 37293, 36697, 36737, 36705, 37149, 36717, 37172, 37268, 36552, 37219, 37167, 37554, 37174, 36800, 37204, 37276, 37335, 37133, 37517, 36525, 37342, 37732, 37048, 37332, 36974, 37129, 36556, 36927, 36765, 36894, 37182, 36894, 36679, 36431, 36674, 36973, 36759, 37375, 37130, 36821, 37057, 37027, 37468, 37171, 38002, 36581, 37353, 36981, 37618, 36921, 37335, 37692, 36747, 37013, 37185, 37581, 37302, 37262, 37315, 37880, 36810, 36830, 37319, 37181, 37194, 37198, 37420, 37385],
      "WindowCenter": [9241.0, 9202.0, 9202.0, 9208.0, 9210.0, 9205.0, 9210.0, 9214.0, 9195.0, 9201.0, 9198.0, 9186.0, 9185.0, 9185.0, 9189.0, 9173.0, 9181.0, 9185.0, 9180.0, 9185.0, 9174.0, 9193.0, 9190.0, 9181.0, 9172.0, 9168.0, 9169.0, 9168.0, 9169.0, 9168.0, 9168.0, 9181.0, 9185.0, 9203.0, 9205.0, 9211.0, 9194.0, 9178.0, 9169.0, 9181.0, 9187.0, 9175.0, 9187.0, 9193.0, 9182.0, 9186.0, 9179.0, 9171.0, 9174.0, 9163.0, 9176.0, 9173.0, 9191.0, 9187.0, 9188.0, 9194.0, 9183.0, 9179.0, 9173.0, 9178.0, 9174.0, 9187.0, 9182.0, 9194.0, 9194.0, 9195.0, 9181.0, 9186.0, 9186.0, 9187.0, 9192.0, 9187.0, 9192.0, 9182.0, 9191.0, 9186.0, 9189.0, 9183.0, 9192.0, 9198.0, 9191.0, 9178.0, 9179.0, 9182.0, 9169.0, 9177.0, 9171.0, 9193.0, 9199.0, 9182.0, 9187.0, 9176.0, 9178.0, 9165.0, 9170.0, 9163.0, 9170.0, 9177.0, 9184.0, 9181.0, 9180.0, 9188.0, 9194.0, 9192.0, 9180.0, 9185.0, 9185.0, 9184.0, 9193.0, 9177.0, 9183.0, 9191.0, 9192.0, 9192.0, 9193.0, 9191.0, 9192.0, 9185.0, 9179.0, 9176.0, 9175.0, 9177.0, 9176.0, 9183.0, 9181.0, 9176.0, 9177.0, 9185.0, 9184.0, 9175.0, 9175.0, 9165.0, 9161.0, 9173.0, 9175.0, 9180.0, 9174.0, 9162.0, 9166.0, 9167.0, 9173.0, 9174.0, 9171.0, 9161.0, 9167.0, 9180.0, 9175.0, 9182.0, 9185.0, 9185.0, 9188.0, 9188.0, 9192.0, 9187.0, 9185.0, 9185.0, 9177.0, 9178.0, 9178.0, 9184.0, 9178.0, 9182.0, 9175.0, 9169.0, 9176.0, 9175.0, 9179.0, 9174.0, 9176.0, 9153.0, 9163.0, 9158.0, 9162.0, 9150.0, 9162.0, 9163.0, 9161.0, 9167.0, 9174.0, 9173.0, 9181.0, 9168.0, 9180.0, 9182.0, 9175.0, 9168.0, 9174.0, 9169.0, 9176.0, 9178.0, 9176.0, 9176.0],
      "WindowWidth": [19649.0, 19555.0, 19540.0, 19548.0, 19550.0, 19540.0, 19549.0, 19552.0, 19518.0, 19525.0, 19517.0, 19494.0, 19491.0, 19489.0, 19495.0, 19471.0, 19488.0, 19491.0, 19483.0, 19492.0, 19474.0, 19506.0, 19499.0, 19477.0, 19456.0, 19441.0, 19444.0, 19442.0, 19445.0, 19441.0, 19442.0, 19467.0, 19482.0, 19522.0, 19528.0, 19534.0, 19496.0, 19462.0, 19443.0, 19466.0, 19476.0, 19455.0, 19475.0, 19486.0, 19468.0, 19474.0, 19458.0, 19440.0, 19441.0, 19423.0, 19448.0, 19446.0, 19481.0, 19478.0, 19480.0, 19489.0, 19470.0, 19458.0, 19445.0, 19454.0, 19449.0, 19476.0, 19469.0, 19491.0, 19491.0, 19492.0, 19467.0, 19474.0, 19471.0, 19478.0, 19484.0, 19475.0, 19483.0, 19466.0, 19480.0, 19471.0, 19474.0, 19463.0, 19482.0, 19493.0, 19479.0, 19455.0, 19458.0, 19459.0, 19437.0, 19450.0, 19442.0, 19484.0, 19496.0, 19468.0, 19474.0, 19453.0, 19452.0, 19427.0, 19436.0, 19423.0, 19435.0, 19450.0, 19464.0, 19457.0, 19458.0, 19475.0, 19486.0, 19481.0, 19460.0, 19467.0, 19466.0, 19463.0, 19479.0, 19451.0, 19463.0, 19479.0, 19480.0, 19480.0, 19483.0, 19479.0, 19481.0, 19466.0, 19453.0, 19445.0, 19443.0, 19447.0, 19446.0, 19458.0, 19452.0, 19445.0, 19447.0, 19464.0, 19462.0, 19442.0, 19439.0, 19419.0, 19412.0, 19434.0, 19441.0, 19451.0, 19438.0, 19418.0, 19420.0, 19421.0, 19434.0, 19437.0, 19432.0, 19414.0, 19424.0, 19446.0, 19441.0, 19457.0, 19466.0, 19468.0, 19478.0, 19479.0, 19482.0, 19472.0, 19467.0, 19463.0, 19448.0, 19451.0, 19451.0, 19461.0, 19454.0, 19457.0, 19443.0, 19433.0, 19444.0, 19441.0, 19446.0, 19438.0, 19436.0, 19394.0, 19411.0, 19401.0, 19407.0, 19386.0, 19407.0, 19413.0, 19412.0, 19424.0, 19440.0, 19436.0, 19450.0, 19428.0, 19450.0, 19455.0, 19441.0, 19427.0, 19437.0, 19431.0, 19445.0, 19449.0, 19444.0, 19444.0]
    },
    "slices": {}
  },
  "NumberOfVolumes": 192
}