{
  "AcquisitionMatrixPE": 104,
  "AcquisitionNumber": 1,
  "AcquisitionTime": "10:33:56.475000",
  "BandwidthPerPixelPhaseEncode": 16.297,
  "BaseResolution": 104,
  "BodyPartExamined": "BRAIN",
  "ConsistencyInfo": "N4_VE11C_LATEST_20160120",
  "ConversionSoftware": "dcm2niix",
  "ConversionSoftwareVersion": "v1.0.20190902",
  "DerivedVendorReportedEchoSpacing": 0.000590009,
  "DeviceSerialNumber": "166018",
  "DwellTime": 2.1e-06,
  "EchoTime": 0.0376,
  "EchoTrainLength": 104,
  "EffectiveEchoSpacing": 0.000590009,
  "FlipAngle": 68,
  "ImageComments": "Unaliased_MB6_PE3_LB",
  "ImageOrientationPatientDICOM": [0.99959, 0.0276268, -0.00754753, -0.0286195, 0.953801, -0.299074],
  "ImageType": [
    "ORIGINAL",
    "PRIMARY",
    "M",
    "MB",
    "ND",
    "MOSAIC"
],
  "ImagingFrequency": 123.191,
  "InPlanePhaseEncodingDirectionDICOM": "COL",
  "InstitutionAddress": "Washington_Place_6_NYC_NYC_US_10003",
  "InstitutionName": "NYU_-_CBI",
  "InstitutionalDepartmentName": "Department",
  "MRAcquisitionType": "2D",
  "MagneticFieldStrength": 3,
  "Manufacturer": "Siemens",
  "ManufacturersModelName": "Prisma",
  "Modality": "MR",
  "MultibandAccelerationFactor": 6,
  "PartialFourier": 1,
  "PatientPosition": "HFS",
  "PercentPhaseFOV": 100,
  "PhaseEncodingDirection": "j",
  "PhaseEncodingSteps": 104,
  "PhaseResolution": 1,
  "PixelBandwidth": 2290,
  "ProcedureStepDescription": "Investigators_Winawer",
  "ProtocolName": "cmrr_mbepi_s6_2mm_66sl_PA_task-prf",
  "PulseSequenceDetails": "%CustomerSeq%_cmrr_mbep2d_bold",
  "ReceiveCoilActiveElements": "HC1-7",
  "ReceiveCoilName": "HeadNeck_64",
  "ReconMatrixPE": 104,
  "RepetitionTime": 1,
  "SAR": 0.0770409,
  "ScanOptions": "FS",
  "ScanningSequence": "EP",
  "SequenceName": "epfid2d1_104",
  "SequenceVariant": "SK_SS",
  "SeriesDescription": "cmrr_mbepi_s6_2mm_66sl_PA_task-prf",
  "SeriesNumber": 16,
  "ShimSetting": [243, -12633, -8407, 369, -62, -56, -32, 25],
  "SliceThickness": 2,
  "SliceTiming": [0, 0.5325, 0.0875, 0.6225, 0.1775, 0.7125, 0.2675, 0.8, 0.355, 0.89, 0.445, 0, 0.5325, 0.0875, 0.6225, 0.1775, 0.7125, 0.2675, 0.8, 0.355, 0.89, 0.445, 0, 0.5325, 0.0875, 0.6225, 0.1775, 0.7125, 0.2675, 0.8, 0.355, 0.89, 0.445, 0, 0.5325, 0.0875, 0.6225, 0.1775, 0.7125, 0.2675, 0.8, 0.355, 0.89, 0.445, 0, 0.5325, 0.0875, 0.6225, 0.1775, 0.7125, 0.2675, 0.8, 0.355, 0.89, 0.445, 0, 0.5325, 0.0875, 0.6225, 0.1775, 0.7125, 0.2675, 0.8, 0.355, 0.89, 0.445],
  "SoftwareVersions": "syngo_MR_E11",
  "SpacingBetweenSlices": 2,
  "StationName": "AWP166018",
  "TaskName": "prf",
  "TotalReadoutTime": 0.060771,
  "TxRefAmp": 250.2,
  "VendorReportedEchoSpacing": 0.00059,
  "WipMemBlock": "82846f46-eacb-4cb0-82aa-2b8f0320f5be||Sequence: R016 ve11c/master r/8780670; Nov 27 2017 15:05:12 by eja",
  "dcmmeta_affine": [
    [-1.9991796016693115, -0.05723899230360985, 0.0021272660233080387, 110.66590118408203],
    [-0.055253658443689346, 1.907601237297058, -0.5983348488807678, -54.574100494384766],
    [-0.015095056034624577, 0.5981482267379761, 1.908400058746338, -64.30183410644531],
    [0.0, 0.0, 0.0, 1.0]
],
  "dcmmeta_reorient_transform": [
    [0.0, -1.0, 0.0, 103.0],
    [1.0, 0.0, 0.0, 0.0],
    [0.0, 0.0, 1.0, 0.0],
    [0.0, 0.0, 0.0, 1.0]
],
  "dcmmeta_shape": [104, 104, 66, 192],
  "dcmmeta_slice_dim": 2,
  "dcmmeta_version": 0.6,
  "global": {
    "const": {
      "AccessionNumber": "kh24bw9s",
      "AcquisitionMatrix": [104, 0, 0, 104],
      "AngioFlag": "N",
      "BitsAllocated": 16,
      "BitsStored": 16,
      "BodyPartExamined": "BRAIN",
      "Columns": 936,
      "EchoNumbers": 1,
      "EchoTime": 37.6,
      "EchoTrainLength": 104,
      "FlipAngle": 68.0,
      "HighBit": 15,
      "ImageOrientationPatient": [0.99958981242134, 0.02762682984351, -0.0075475278247, -0.0286194966467, 0.95380060780716, -0.2990741128188],
      "ImagePositionPatient": [-912.61758991655, -958.45645181925, 252.41663692289],
      "ImageType": [
        "ORIGINAL",
        "PRIMARY",
        "M",
        "MB",
        "ND",
        "MOSAIC"
],
      "ImagedNucleus": "1H",
      "ImagingFrequency": 123.190601,
      "InPlanePhaseEncodingDirection": "COL",
      "MRAcquisitionType": "2D",
      "MagneticFieldStrength": 3.0,
      "Manufacturer": "SIEMENS",
      "ManufacturerModelName": "Prisma",
      "Modality": "MR",
      "NumberOfAverages": 1.0,
      "NumberOfPhaseEncodingSteps": 104,
      "PercentPhaseFieldOfView": 100.0,
      "PercentSampling": 100.0,
      "PerformedProcedureStepStartTime": "095314.554000",
      "PhotometricInterpretation": "MONOCHROME2",
      "PixelBandwidth": 2290.0,
      "PixelRepresentation": 0,
      "PixelSpacing": [2.0, 2.0],
      "ProtocolName": "cmrr_mbepi_s6_2mm_66sl_PA_task-prf",
      "RepetitionTime": 1000.0,
      "Rows": 936,
      "SAR": 0.07704093856587,
      "SamplesPerPixel": 1,
      "ScanOptions": "FS",
      "ScanningSequence": "EP",
      "SequenceName": "epfid2d1_104",
      "SequenceVariant": [
        "SK",
        "SS"
],
      "SeriesDescription": "cmrr_mbepi_s6_2mm_66sl_PA_task-prf",
      "SeriesNumber": 16,
      "SeriesTime": "103506.246000",
      "SliceLocation": -44.912311330147,
      "SliceThickness": 2.0,
      "SmallestImagePixelValue": 0,
      "SoftwareVersions": "syngo MR E11",
      "SpacingBetweenSlices": 1.9999999410325,
      "SpecificCharacterSet": "ISO_IR 100",
      "StudyID": "1",
      "StudyTime": "095314.453000",
      "TransmitCoilName": "Body",
      "VariableFlipAngleFlag": "N",
      "WindowCenterWidthExplanation": "Algo1",
      "dBdt": 0.0},
    "slices": {}
  },
  "time": {
    "samples": {
      "AcquisitionNumber": [1, 2, 3, 4, 5, 6, 7, 8, 9, 10, 11, 12, 13, 14, 15, 16, 17, 18, 19, 20, 21, 22, 23, 24, 25, 26, 27, 28, 29, 30, 31, 32, 33, 34, 35, 36, 37, 38, 39, 40, 41, 42, 43, 44, 45, 46, 47, 48, 49, 50, 51, 52, 53, 54, 55, 56, 57, 58, 59, 60, 61, 62, 63, 64, 65, 66, 67, 68, 69, 70, 71, 72, 73, 74, 75, 76, 77, 78, 79, 80, 81, 82, 83, 84, 85, 86, 87, 88, 89, 90, 91, 92, 93, 94, 95, 96, 97, 98, 99, 100, 101, 102, 103, 104, 105, 106, 107, 108, 109, 110, 111, 112, 113, 114, 115, 116, 117, 118, 119, 120, 121, 122, 123, 124, 125, 126, 127, 128, 129, 130, 131, 132, 133, 134, 135, 136, 137, 138, 139, 140, 141, 142, 143, 144, 145, 146, 147, 148, 149, 150, 151, 152, 153, 154, 155, 156, 157, 158, 159, 160, 161, 162, 163, 164, 165, 166, 167, 168, 169, 170, 171, 172, 173, 174, 175, 176, 177, 178, 179, 180, 181, 182, 183, 184, 185, 186, 187, 188, 189, 190, 191, 192],
      "AcquisitionTime": ["103356.475000", "103357.475000", "103358.475000", "103359.475000", "103400.475000", "103401.475000", "103402.475000", "103403.475000", "103404.475000", "103405.475000", "103406.475000", "103407.475000", "103408.475000", "103409.475000", "103410.475000", "103411.475000", "103412.475000", "103413.475000", "103414.475000", "103415.475000", "103416.475000", "103417.475000", "103418.475000", "103419.475000", "103420.475000", "103421.475000", "103422.475000", "103423.475000", "103424.475000", "103425.475000", "103426.475000", "103427.475000", "103428.475000", "103429.475000", "103430.475000", "103431.475000", "103432.475000", "103433.475000", "103434.475000", "103435.475000", "103436.475000", "103437.475000", "103438.475000", "103439.475000", "103440.475000", "103441.475000", "103442.475000", "103443.475000", "103444.475000", "103445.475000", "103446.475000", "103447.475000", "103448.475000", "103449.475000", "103450.475000", "103451.475000", "103452.475000", "103453.475000", "103454.475000", "103455.475000", "103456.475000", "103457.475000", "103458.475000", "103459.475000", "103500.475000", "103501.475000", "103502.475000", "103503.475000", "103504.475000", "103505.475000", "103506.475000", "103507.475000", "103508.475000", "103509.475000", "103510.475000", "103511.475000", "103512.475000", "103513.475000", "103514.475000", "103515.475000", "103516.475000", "103517.475000", "103518.475000", "103519.475000", "103520.475000", "103521.475000", "103522.475000", "103523.475000", "103524.475000", "103525.475000", "103526.475000", "103527.475000", "103528.475000", "103529.475000", "103530.475000", "103531.475000", "103532.475000", "103533.475000", "103534.475000", "103535.475000", "103536.475000", "103537.475000", "103538.475000", "103539.475000", "103540.475000", "103541.475000", "103542.475000", "103543.475000", "103544.475000", "103545.475000", "103546.475000", "103547.475000", "103548.475000", "103549.475000", "103550.475000", "103551.475000", "103552.475000", "103553.475000", "103554.475000", "103555.475000", "103556.475000", "103557.475000", "103558.475000", "103559.475000", "103600.475000", "103601.475000", "103602.475000", "103603.475000", "103604.475000", "103605.475000", "103606.475000", "103607.475000", "103608.475000", "103609.475000", "103610.475000", "103611.475000", "103612.475000", "103613.475000", "103614.475000", "103615.475000", "103616.475000", "103617.475000", "103618.475000", "103619.475000", "103620.475000", "103621.475000", "103622.475000", "103623.475000", "103624.475000", "103625.475000", "103626.475000", "103627.475000", "103628.475000", "103629.475000", "103630.475000", "103631.475000", "103632.475000", "103633.475000", "103634.475000", "103635.475000", "103636.475000", "103637.475000", "103638.475000", "103639.475000", "103640.475000", "103641.475000", "103642.475000", "103643.475000", "103644.475000", "103645.475000", "103646.475000", "103647.475000", "103648.475000", "103649.475000", "103650.475000", "103651.475000", "103652.475000", "103653.475000", "103654.475000", "103655.475000", "103656.475000", "103657.475000", "103658.475000", "103659.475000", "103700.475000", "103701.475000", "103702.475000", "103703.475000", "103704.475000", "103705.475000", "103706.475000", "103707.475000"],
      "ContentTime": ["103506.249000", "103506.253000", "103506.256000", "103506.259000", "103506.261000", "103506.264000", "103506.267000", "103506.270000", "103506.273000", "103506.276000", "103506.279000", "103506.282000", "103506.285000", "103506.288000", "103506.290000", "103506.293000", "103506.296000", "103506.299000", "103506.302000", "103506.305000", "103506.308000", "103506.311000", "103506.314000", "103506.331000", "103506.334000", "103506.349000", "103506.352000", "103506.355000", "103506.358000", "103526.210000", "103526.213000", "103526.216000", "103526.219000", "103526.222000", "103526.225000", "103526.228000", "103526.231000", "103526.233000", "103526.236000", "103526.239000", "103526.242000", "103526.245000", "103526.248000", "103526.251000", "103526.254000", "103526.257000", "103526.260000", "103526.263000", "103526.266000", "103526.275000", "103526.278000", "103526.281000", "103526.284000", "103526.287000", "103526.290000", "103526.293000", "103526.296000", "103546.210000", "103546.213000", "103546.216000", "103546.219000", "103546.222000", "103546.225000", "103546.228000", "103546.230000", "103546.233000", "103546.236000", "103546.239000", "103546.242000", "103546.245000", "103546.248000", "103546.251000", "103546.254000", "103546.257000", "103546.259000", "103546.262000", "103546.265000", "103546.268000", "103546.271000", "103546.274000", "103546.277000", "103546.280000", "103546.283000", "103546.286000", "103546.289000", "103546.291000", "103606.210000", "103606.213000", "103606.216000", "103606.219000", "103606.222000", "103606.225000", "103606.227000", "103606.230000", "103606.233000", "103606.236000", "103606.239000", "103606.242000", "103606.245000", "103606.248000", "103606.251000", "103606.254000", "103606.257000", "103606.260000", "103606.262000", "103606.265000", "103606.268000", "103606.271000", "103606.274000", "103606.277000", "103606.285000", "103606.288000", "103606.291000", "103606.294000", "103626.210000", "103626.213000", "103626.216000", "103626.219000", "103626.222000", "103626.225000", "103626.228000", "103626.230000", "103626.233000", "103626.236000", "103626.239000", "103626.242000", "103626.245000", "103626.248000", "103626.251000", "103626.253000", "103626.256000", "103626.259000", "103626.262000", "103626.265000", "103626.268000", "103626.271000", "103626.274000", "103626.277000", "103626.280000", "103626.283000", "103626.286000", "103626.288000", "103626.291000", "103646.211000", "103646.214000", "103646.217000", "103646.220000", "103646.223000", "103646.226000", "103646.229000", "103646.231000", "103646.234000", "103646.237000", "103646.240000", "103646.243000", "103646.246000", "103646.249000", "103646.264000", "103646.267000", "103646.270000", "103646.273000", "103646.276000", "103646.279000", "103646.282000", "103646.285000", "103646.288000", "103646.291000", "103646.294000", "103646.302000", "103706.211000", "103706.214000", "103706.217000", "103706.220000", "103706.223000", "103706.226000", "103706.229000", "103706.231000", "103706.234000", "103706.237000", "103706.240000", "103706.243000", "103706.246000", "103706.249000", "103706.252000", "103706.255000", "103706.258000", "103706.261000", "103706.263000", "103706.266000", "103708.819000", "103708.824000", "103708.827000"],
      "InstanceCreationTime": ["103506.249000", "103506.253000", "103506.256000", "103506.259000", "103506.261000", "103506.264000", "103506.267000", "103506.270000", "103506.273000", "103506.276000", "103506.279000", "103506.282000", "103506.285000", "103506.288000", "103506.290000", "103506.293000", "103506.296000", "103506.299000", "103506.302000", "103506.305000", "103506.308000", "103506.311000", "103506.314000", "103506.331000", "103506.334000", "103506.349000", "103506.352000", "103506.355000", "103506.358000", "103526.210000", "103526.213000", "103526.216000", "103526.219000", "103526.222000", "103526.225000", "103526.228000", "103526.231000", "103526.233000", "103526.236000", "103526.239000", "103526.242000", "103526.245000", "103526.248000", "103526.251000", "103526.254000", "103526.257000", "103526.260000", "103526.263000", "103526.266000", "103526.275000", "103526.278000", "103526.281000", "103526.284000", "103526.287000", "103526.290000", "103526.293000", "103526.296000", "103546.210000", "103546.213000", "103546.216000", "103546.219000", "103546.222000", "103546.225000", "103546.228000", "103546.230000", "103546.233000", "103546.236000", "103546.239000", "103546.242000", "103546.245000", "103546.248000", "103546.251000", "103546.254000", "103546.257000", "103546.259000", "103546.262000", "103546.265000", "103546.268000", "103546.271000", "103546.274000", "103546.277000", "103546.280000", "103546.283000", "103546.286000", "103546.289000", "103546.291000", "103606.210000", "103606.213000", "103606.216000", "103606.219000", "103606.222000", "103606.225000", "103606.227000", "103606.230000", "103606.233000", "103606.236000", "103606.239000", "103606.242000", "103606.245000", "103606.248000", "103606.251000", "103606.254000", "103606.257000", "103606.260000", "103606.262000", "103606.265000", "103606.268000", "103606.271000", "103606.274000", "103606.277000", "103606.285000", "103606.288000", "103606.291000", "103606.294000", "103626.210000", "103626.213000", "103626.216000", "103626.219000", "103626.222000", "103626.225000", "103626.228000", "103626.230000", "103626.233000", "103626.236000", "103626.239000", "103626.242000", "103626.245000", "103626.248000", "103626.251000", "103626.253000", "103626.256000", "103626.259000", "103626.262000", "103626.265000", "103626.268000", "103626.271000", "103626.274000", "103626.277000", "103626.280000", "103626.283000", "103626.286000", "103626.288000", "103626.291000", "103646.211000", "103646.214000", "103646.217000", "103646.220000", "103646.223000", "103646.226000", "103646.229000", "103646.231000", "103646.234000", "103646.237000", "103646.240000", "103646.243000", "103646.246000", "103646.249000", "103646.264000", "103646.267000", "103646.270000", "103646.273000", "103646.276000", "103646.279000", "103646.282000", "103646.285000", "103646.288000", "103646.291000", "103646.294000", "103646.302000", "103706.211000", "103706.214000", "103706.217000", "103706.220000", "103706.223000", "103706.226000", "103706.229000", "103706.231000", "103706.234000", "103706.237000", "103706.240000", "103706.243000", "103706.246000", "103706.249000", "103706.252000", "103706.255000", "103706.258000", "103706.261000", "103706.263000", "103706.266000", "103708.819000", "103708.824000", "103708.827000"],
      "InstanceNumber": [1, 2, 3, 4, 5, 6, 7, 8, 9, 10, 11, 12, 13, 14, 15, 16, 17, 18, 19, 20, 21, 22, 23, 24, 25, 26, 27, 28, 29, 30, 31, 32, 33, 34, 35, 36, 37, 38, 39, 40, 41, 42, 43, 44, 45, 46, 47, 48, 49, 50, 51, 52, 53, 54, 55, 56, 57, 58, 59, 60, 61, 62, 63, 64, 65, 66, 67, 68, 69, 70, 71, 72, 73, 74, 75, 76, 77, 78, 79, 80, 81, 82, 83, 84, 85, 86, 87, 88, 89, 90, 91, 92, 93, 94, 95, 96, 97, 98, 99, 100, 101, 102, 103, 104, 105, 106, 107, 108, 109, 110, 111, 112, 113, 114, 115, 116, 117, 118, 119, 120, 121, 122, 123, 124, 125, 126, 127, 128, 129, 130, 131, 132, 133, 134, 135, 136, 137, 138, 139, 140, 141, 142, 143, 144, 145, 146, 147, 148, 149, 150, 151, 152, 153, 154, 155, 156, 157, 158, 159, 160, 161, 162, 163, 164, 165, 166, 167, 168, 169, 170, 171, 172, 173, 174, 175, 176, 177, 178, 179, 180, 181, 182, 183, 184, 185, 186, 187, 188, 189, 190, 191, 192],
      "LargestImagePixelValue": [37433, 36024, 36194, 34660, 34538, 35010, 34211, 35018, 34025, 33817, 35046, 34172, 34236, 35022, 34436, 35436, 35085, 35031, 35120, 34099, 35340, 34415, 34937, 35259, 33933, 34873, 34424, 33755, 34708, 34223, 34931, 33806, 34965, 34450, 33922, 34899, 33957, 35132, 35009, 34235, 34899, 33935, 34823, 34926, 34982, 34707, 34112, 35104, 33915, 34988, 34661, 34489, 35225, 34027, 34000, 34963, 34652, 34782, 35041, 34030, 34895, 34185, 34521, 34490, 34132, 35294, 33789, 34236, 34915, 34195, 35753, 34254, 35062, 34753, 33688, 35070, 33810, 34791, 34486, 34021, 33869, 33427, 34297, 33658, 34474, 33837, 33304, 34219, 33174, 33568, 34313, 33200, 34866, 33967, 35124, 34616, 34363, 34616, 33924, 34468, 33818, 35102, 33577, 34914, 34160, 33875, 34507, 34119, 34784, 33813, 34757, 33660, 33954, 34650, 34193, 35110, 34019, 34605, 34935, 34160, 35422, 33916, 34859, 33763, 34079, 34526, 33416, 34920, 34081, 34786, 34189, 34313, 34859, 33935, 35307, 33936, 33614, 34105, 33608, 34930, 34073, 34868, 34932, 33824, 34686, 33480, 34229, 34235, 33412, 34207, 33554, 34476, 33847, 34052, 34126, 33400, 34731, 33778, 34911, 34252, 34401, 34301, 33738, 34393, 33407, 33968, 34245, 33663, 34075, 34272, 33841, 34991, 33755, 33852, 33635, 33270, 34270, 33186, 34564, 33892, 34106, 33915, 33829, 34129, 33458, 34103, 33944, 33442, 34288, 33580, 34207, 34069],
      "WindowCenter": [9270.0, 9245.0, 9234.0, 9209.0, 9207.0, 9211.0, 9192.0, 9195.0, 9183.0, 9184.0, 9203.0, 9198.0, 9200.0, 9213.0, 9207.0, 9224.0, 9225.0, 9212.0, 9212.0, 9193.0, 9209.0, 9190.0, 9186.0, 9193.0, 9177.0, 9196.0, 9191.0, 9180.0, 9198.0, 9191.0, 9196.0, 9177.0, 9186.0, 9181.0, 9175.0, 9194.0, 9184.0, 9208.0, 9204.0, 9190.0, 9195.0, 9177.0, 9189.0, 9195.0, 9188.0, 9190.0, 9184.0, 9201.0, 9184.0, 9195.0, 9190.0, 9190.0, 9201.0, 9177.0, 9184.0, 9204.0, 9205.0, 9205.0, 9210.0, 9187.0, 9203.0, 9184.0, 9183.0, 9188.0, 9181.0, 9193.0, 9183.0, 9190.0, 9196.0, 9186.0, 9216.0, 9194.0, 9204.0, 9205.0, 9181.0, 9210.0, 9186.0, 9195.0, 9188.0, 9175.0, 9176.0, 9164.0, 9174.0, 9168.0, 9179.0, 9169.0, 9156.0, 9181.0, 9164.0, 9168.0, 9174.0, 9154.0, 9178.0, 9168.0, 9186.0, 9181.0, 9166.0, 9165.0, 9160.0, 9180.0, 9170.0, 9200.0, 9172.0, 9189.0, 9183.0, 9177.0, 9190.0, 9184.0, 9195.0, 9185.0, 9196.0, 9180.0, 9185.0, 9192.0, 9184.0, 9202.0, 9186.0, 9190.0, 9196.0, 9184.0, 9207.0, 9179.0, 9188.0, 9176.0, 9176.0, 9196.0, 9173.0, 9196.0, 9184.0, 9195.0, 9191.0, 9192.0, 9206.0, 9198.0, 9230.0, 9213.0, 9192.0, 9188.0, 9166.0, 9173.0, 9159.0, 9170.0, 9176.0, 9167.0, 9172.0, 9161.0, 9167.0, 9175.0, 9172.0, 9192.0, 9181.0, 9198.0, 9193.0, 9186.0, 9192.0, 9174.0, 9197.0, 9186.0, 9197.0, 9192.0, 9191.0, 9192.0, 9180.0, 9186.0, 9168.0, 9176.0, 9175.0, 9171.0, 9186.0, 9200.0, 9195.0, 9213.0, 9190.0, 9193.0, 9181.0, 9175.0, 9192.0, 9175.0, 9192.0, 9187.0, 9185.0, 9186.0, 9187.0, 9200.0, 9189.0, 9192.0, 9186.0, 9173.0, 9191.0, 9173.0, 9184.0, 9180.0],
      "WindowWidth": [19707.0, 19639.0, 19607.0, 19555.0, 19546.0, 19549.0, 19512.0, 19512.0, 19490.0, 19495.0, 19532.0, 19522.0, 19528.0, 19552.0, 19541.0, 19572.0, 19575.0, 19549.0, 19548.0, 19515.0, 19540.0, 19500.0, 19491.0, 19502.0, 19480.0, 19515.0, 19506.0, 19489.0, 19521.0, 19507.0, 19512.0, 19476.0, 19488.0, 19480.0, 19473.0, 19508.0, 19494.0, 19538.0, 19530.0, 19505.0, 19511.0, 19480.0, 19502.0, 19509.0, 19496.0, 19499.0, 19490.0, 19521.0, 19490.0, 19509.0, 19502.0, 19501.0, 19518.0, 19476.0, 19491.0, 19528.0, 19533.0, 19533.0, 19539.0, 19498.0, 19524.0, 19488.0, 19486.0, 19494.0, 19481.0, 19505.0, 19489.0, 19504.0, 19516.0, 19500.0, 19551.0, 19514.0, 19532.0, 19534.0, 19494.0, 19541.0, 19496.0, 19508.0, 19495.0, 19471.0, 19472.0, 19452.0, 19467.0, 19456.0, 19472.0, 19457.0, 19437.0, 19480.0, 19451.0, 19458.0, 19464.0, 19430.0, 19471.0, 19459.0, 19490.0, 19481.0, 19449.0, 19447.0, 19439.0, 19477.0, 19464.0, 19516.0, 19470.0, 19498.0, 19488.0, 19481.0, 19503.0, 19492.0, 19511.0, 19495.0, 19515.0, 19488.0, 19496.0, 19507.0, 19493.0, 19523.0, 19497.0, 19504.0, 19512.0, 19491.0, 19530.0, 19483.0, 19495.0, 19474.0, 19475.0, 19512.0, 19477.0, 19513.0, 19490.0, 19510.0, 19507.0, 19510.0, 19534.0, 19528.0, 19589.0, 19558.0, 19515.0, 19502.0, 19456.0, 19461.0, 19436.0, 19452.0, 19466.0, 19452.0, 19462.0, 19445.0, 19456.0, 19472.0, 19473.0, 19508.0, 19490.0, 19518.0, 19509.0, 19499.0, 19507.0, 19477.0, 19515.0, 19498.0, 19517.0, 19509.0, 19506.0, 19508.0, 19489.0, 19499.0, 19467.0, 19475.0, 19471.0, 19466.0, 19499.0, 19526.0, 19518.0, 19550.0, 19509.0, 19511.0, 19491.0, 19481.0, 19510.0, 19479.0, 19509.0, 19503.0, 19496.0, 19500.0, 19501.0, 19529.0, 19508.0, 19510.0, 19497.0, 19475.0, 19505.0, 19474.0, 19492.0, 19484.0]
    },
    "slices": {}
  },
  "NumberOfVolumes": 192
}