{
  "AcquisitionMatrixPE": 104,
  "AcquisitionNumber": 1,
  "AcquisitionTime": "10:25:44.455000",
  "BandwidthPerPixelPhaseEncode": 16.297,
  "BaseResolution": 104,
  "BodyPartExamined": "BRAIN",
  "ConsistencyInfo": "N4_VE11C_LATEST_20160120",
  "ConversionSoftware": "dcm2niix",
  "ConversionSoftwareVersion": "v1.0.20190902",
  "DerivedVendorReportedEchoSpacing": 0.000590009,
  "DeviceSerialNumber": "166018",
  "DwellTime": 2.1e-06,
  "EchoTime": 0.0376,
  "EchoTrainLength": 104,
  "EffectiveEchoSpacing": 0.000590009,
  "FlipAngle": 68,
  "ImageComments": "Unaliased_MB6_PE3_LB",
  "ImageOrientationPatientDICOM": [0.99959, 0.0276268, -0.00754753, -0.0286195, 0.953801, -0.299074],
  "ImageType": [
    "ORIGINAL",
    "PRIMARY",
    "M",
    "MB",
    "ND",
    "MOSAIC"
],
  "ImagingFrequency": 123.191,
  "InPlanePhaseEncodingDirectionDICOM": "COL",
  "InstitutionAddress": "Washington_Place_6_NYC_NYC_US_10003",
  "InstitutionName": "NYU_-_CBI",
  "InstitutionalDepartmentName": "Department",
  "MRAcquisitionType": "2D",
  "MagneticFieldStrength": 3,
  "Manufacturer": "Siemens",
  "ManufacturersModelName": "Prisma",
  "Modality": "MR",
  "MultibandAccelerationFactor": 6,
  "PartialFourier": 1,
  "PatientPosition": "HFS",
  "PercentPhaseFOV": 100,
  "PhaseEncodingDirection": "j",
  "PhaseEncodingSteps": 104,
  "PhaseResolution": 1,
  "PixelBandwidth": 2290,
  "ProcedureStepDescription": "Investigators_Winawer",
  "ProtocolName": "cmrr_mbepi_s6_2mm_66sl_PA_task-prf",
  "PulseSequenceDetails": "%CustomerSeq%_cmrr_mbep2d_bold",
  "ReceiveCoilActiveElements": "HC1-7",
  "ReceiveCoilName": "HeadNeck_64",
  "ReconMatrixPE": 104,
  "RepetitionTime": 1,
  "SAR": 0.0770409,
  "ScanOptions": "FS",
  "ScanningSequence": "EP",
  "SequenceName": "epfid2d1_104",
  "SequenceVariant": "SK_SS",
  "SeriesDescription": "cmrr_mbepi_s6_2mm_66sl_PA_task-prf",
  "SeriesNumber": 12,
  "ShimSetting": [243, -12633, -8407, 369, -62, -56, -32, 25],
  "SliceThickness": 2,
  "SliceTiming": [0, 0.5325, 0.0875, 0.6225, 0.1775, 0.7125, 0.265, 0.8, 0.355, 0.89, 0.445, 0, 0.5325, 0.0875, 0.6225, 0.1775, 0.7125, 0.265, 0.8, 0.355, 0.89, 0.445, 0, 0.5325, 0.0875, 0.6225, 0.1775, 0.7125, 0.265, 0.8, 0.355, 0.89, 0.445, 0, 0.5325, 0.0875, 0.6225, 0.1775, 0.7125, 0.265, 0.8, 0.355, 0.89, 0.445, 0, 0.5325, 0.0875, 0.6225, 0.1775, 0.7125, 0.265, 0.8, 0.355, 0.89, 0.445, 0, 0.5325, 0.0875, 0.6225, 0.1775, 0.7125, 0.265, 0.8, 0.355, 0.89, 0.445],
  "SoftwareVersions": "syngo_MR_E11",
  "SpacingBetweenSlices": 2,
  "StationName": "AWP166018",
  "TaskName": "prf",
  "TotalReadoutTime": 0.060771,
  "TxRefAmp": 250.2,
  "VendorReportedEchoSpacing": 0.00059,
  "WipMemBlock": "82846f46-eacb-4cb0-82aa-2b8f0320f5be||Sequence: R016 ve11c/master r/8780670; Nov 27 2017 15:05:12 by eja",
  "dcmmeta_affine": [
    [-1.9991796016693115, -0.05723899230360985, 0.0021272660233080387, 110.66590118408203],
    [-0.055253658443689346, 1.907601237297058, -0.5983348488807678, -54.574100494384766],
    [-0.015095056034624577, 0.5981482267379761, 1.908400058746338, -64.30183410644531],
    [0.0, 0.0, 0.0, 1.0]
],
  "dcmmeta_reorient_transform": [
    [0.0, -1.0, 0.0, 103.0],
    [1.0, 0.0, 0.0, 0.0],
    [0.0, 0.0, 1.0, 0.0],
    [0.0, 0.0, 0.0, 1.0]
],
  "dcmmeta_shape": [104, 104, 66, 192],
  "dcmmeta_slice_dim": 2,
  "dcmmeta_version": 0.6,
  "global": {
    "const": {
      "AccessionNumber": "kh24bw9s",
      "AcquisitionMatrix": [104, 0, 0, 104],
      "AngioFlag": "N",
      "BitsAllocated": 16,
      "BitsStored": 16,
      "BodyPartExamined": "BRAIN",
      "Columns": 936,
      "EchoNumbers": 1,
      "EchoTime": 37.6,
      "EchoTrainLength": 104,
      "FlipAngle": 68.0,
      "HighBit": 15,
      "ImageOrientationPatient": [0.99958981242134, 0.02762682984351, -0.0075475278247, -0.0286194966467, 0.95380060780716, -0.2990741128188],
      "ImagePositionPatient": [-912.61758991655, -958.45645181925, 252.41663692289],
      "ImageType": [
        "ORIGINAL",
        "PRIMARY",
        "M",
        "MB",
        "ND",
        "MOSAIC"
],
      "ImagedNucleus": "1H",
      "ImagingFrequency": 123.190601,
      "InPlanePhaseEncodingDirection": "COL",
      "MRAcquisitionType": "2D",
      "MagneticFieldStrength": 3.0,
      "Manufacturer": "SIEMENS",
      "ManufacturerModelName": "Prisma",
      "Modality": "MR",
      "NumberOfAverages": 1.0,
      "NumberOfPhaseEncodingSteps": 104,
      "PercentPhaseFieldOfView": 100.0,
      "PercentSampling": 100.0,
      "PerformedProcedureStepStartTime": "095314.554000",
      "PhotometricInterpretation": "MONOCHROME2",
      "PixelBandwidth": 2290.0,
      "PixelRepresentation": 0,
      "PixelSpacing": [2.0, 2.0],
      "ProtocolName": "cmrr_mbepi_s6_2mm_66sl_PA_task-prf",
      "RepetitionTime": 1000.0,
      "Rows": 936,
      "SAR": 0.07704093856587,
      "SamplesPerPixel": 1,
      "ScanOptions": "FS",
      "ScanningSequence": "EP",
      "SequenceName": "epfid2d1_104",
      "SequenceVariant": [
        "SK",
        "SS"
],
      "SeriesDescription": "cmrr_mbepi_s6_2mm_66sl_PA_task-prf",
      "SeriesNumber": 12,
      "SeriesTime": "102706.098000",
      "SliceLocation": -44.912311330147,
      "SliceThickness": 2.0,
      "SmallestImagePixelValue": 0,
      "SoftwareVersions": "syngo MR E11",
      "SpacingBetweenSlices": 1.9999999410325,
      "SpecificCharacterSet": "ISO_IR 100",
      "StudyID": "1",
      "StudyTime": "095314.453000",
      "TransmitCoilName": "Body",
      "VariableFlipAngleFlag": "N",
      "WindowCenterWidthExplanation": "Algo1",
      "dBdt": 0.0},
    "slices": {}
  },
  "time": {
    "samples": {
      "AcquisitionNumber": [1, 2, 3, 4, 5, 6, 7, 8, 9, 10, 11, 12, 13, 14, 15, 16, 17, 18, 19, 20, 21, 22, 23, 24, 25, 26, 27, 28, 29, 30, 31, 32, 33, 34, 35, 36, 37, 38, 39, 40, 41, 42, 43, 44, 45, 46, 47, 48, 49, 50, 51, 52, 53, 54, 55, 56, 57, 58, 59, 60, 61, 62, 63, 64, 65, 66, 67, 68, 69, 70, 71, 72, 73, 74, 75, 76, 77, 78, 79, 80, 81, 82, 83, 84, 85, 86, 87, 88, 89, 90, 91, 92, 93, 94, 95, 96, 97, 98, 99, 100, 101, 102, 103, 104, 105, 106, 107, 108, 109, 110, 111, 112, 113, 114, 115, 116, 117, 118, 119, 120, 121, 122, 123, 124, 125, 126, 127, 128, 129, 130, 131, 132, 133, 134, 135, 136, 137, 138, 139, 140, 141, 142, 143, 144, 145, 146, 147, 148, 149, 150, 151, 152, 153, 154, 155, 156, 157, 158, 159, 160, 161, 162, 163, 164, 165, 166, 167, 168, 169, 170, 171, 172, 173, 174, 175, 176, 177, 178, 179, 180, 181, 182, 183, 184, 185, 186, 187, 188, 189, 190, 191, 192],
      "AcquisitionTime": ["102544.455000", "102545.455000", "102546.455000", "102547.455000", "102548.455000", "102549.455000", "102550.455000", "102551.455000", "102552.455000", "102553.455000", "102554.455000", "102555.455000", "102556.455000", "102557.455000", "102558.455000", "102559.455000", "102600.455000", "102601.455000", "102602.455000", "102603.455000", "102604.455000", "102605.455000", "102606.455000", "102607.455000", "102608.455000", "102609.455000", "102610.455000", "102611.455000", "102612.455000", "102613.455000", "102614.455000", "102615.455000", "102616.455000", "102617.455000", "102618.455000", "102619.455000", "102620.455000", "102621.455000", "102622.455000", "102623.455000", "102624.455000", "102625.455000", "102626.455000", "102627.455000", "102628.455000", "102629.455000", "102630.455000", "102631.455000", "102632.455000", "102633.455000", "102634.455000", "102635.455000", "102636.455000", "102637.455000", "102638.455000", "102639.455000", "102640.455000", "102641.455000", "102642.455000", "102643.455000", "102644.455000", "102645.455000", "102646.455000", "102647.455000", "102648.455000", "102649.455000", "102650.455000", "102651.455000", "102652.455000", "102653.455000", "102654.455000", "102655.455000", "102656.455000", "102657.455000", "102658.455000", "102659.455000", "102700.455000", "102701.455000", "102702.455000", "102703.455000", "102704.455000", "102705.455000", "102706.455000", "102707.455000", "102708.455000", "102709.455000", "102710.455000", "102711.455000", "102712.455000", "102713.455000", "102714.455000", "102715.455000", "102716.455000", "102717.455000", "102718.455000", "102719.455000", "102720.455000", "102721.455000", "102722.455000", "102723.455000", "102724.455000", "102725.455000", "102726.455000", "102727.455000", "102728.455000", "102729.455000", "102730.455000", "102731.455000", "102732.455000", "102733.455000", "102734.455000", "102735.455000", "102736.455000", "102737.455000", "102738.455000", "102739.455000", "102740.455000", "102741.455000", "102742.455000", "102743.455000", "102744.455000", "102745.455000", "102746.455000", "102747.455000", "102748.455000", "102749.455000", "102750.455000", "102751.455000", "102752.455000", "102753.455000", "102754.455000", "102755.455000", "102756.455000", "102757.455000", "102758.455000", "102759.455000", "102800.455000", "102801.455000", "102802.455000", "102803.455000", "102804.455000", "102805.455000", "102806.455000", "102807.455000", "102808.455000", "102809.455000", "102810.455000", "102811.455000", "102812.455000", "102813.455000", "102814.455000", "102815.455000", "102816.455000", "102817.455000", "102818.455000", "102819.455000", "102820.455000", "102821.455000", "102822.455000", "102823.455000", "102824.455000", "102825.455000", "102826.455000", "102827.455000", "102828.455000", "102829.455000", "102830.455000", "102831.455000", "102832.455000", "102833.455000", "102834.455000", "102835.455000", "102836.455000", "102837.455000", "102838.455000", "102839.455000", "102840.455000", "102841.455000", "102842.455000", "102843.455000", "102844.455000", "102845.455000", "102846.455000", "102847.455000", "102848.455000", "102849.455000", "102850.455000", "102851.455000", "102852.455000", "102853.455000", "102854.455000", "102855.455000"],
      "ContentTime": ["102706.101000", "102706.105000", "102706.108000", "102706.111000", "102706.113000", "102706.116000", "102706.119000", "102706.122000", "102706.125000", "102706.135000", "102706.138000", "102706.141000", "102706.144000", "102706.147000", "102706.150000", "102706.153000", "102706.156000", "102706.159000", "102706.162000", "102706.165000", "102706.168000", "102706.171000", "102706.174000", "102706.177000", "102706.180000", "102706.182000", "102706.185000", "102706.188000", "102706.191000", "102706.194000", "102706.197000", "102706.200000", "102706.203000", "102706.206000", "102706.209000", "102706.212000", "102706.215000", "102706.218000", "102706.221000", "102706.223000", "102706.226000", "102706.229000", "102706.232000", "102706.235000", "102706.238000", "102726.074000", "102726.077000", "102726.102000", "102726.105000", "102726.108000", "102726.111000", "102726.114000", "102726.116000", "102726.119000", "102726.122000", "102726.125000", "102726.128000", "102726.131000", "102726.134000", "102726.137000", "102726.140000", "102726.143000", "102726.146000", "102726.148000", "102726.158000", "102726.161000", "102726.163000", "102726.166000", "102726.169000", "102726.172000", "102726.175000", "102726.178000", "102726.181000", "102726.184000", "102746.074000", "102746.077000", "102746.080000", "102746.083000", "102746.086000", "102746.089000", "102746.092000", "102746.095000", "102746.097000", "102746.100000", "102746.103000", "102746.106000", "102746.109000", "102746.112000", "102746.115000", "102746.118000", "102746.121000", "102746.124000", "102746.126000", "102746.129000", "102746.132000", "102746.135000", "102746.138000", "102746.141000", "102746.144000", "102746.147000", "102746.150000", "102806.074000", "102806.077000", "102806.080000", "102806.083000", "102806.086000", "102806.089000", "102806.092000", "102806.094000", "102806.097000", "102806.100000", "102806.103000", "102806.106000", "102806.109000", "102806.112000", "102806.115000", "102806.118000", "102806.121000", "102806.123000", "102806.126000", "102806.129000", "102806.132000", "102806.135000", "102806.138000", "102806.141000", "102806.144000", "102806.147000", "102806.150000", "102806.153000", "102806.156000", "102826.073000", "102826.076000", "102826.079000", "102826.082000", "102826.085000", "102826.088000", "102826.091000", "102826.093000", "102826.096000", "102826.099000", "102826.102000", "102826.105000", "102826.108000", "102826.111000", "102826.114000", "102826.117000", "102826.119000", "102826.122000", "102826.125000", "102826.128000", "102826.131000", "102826.134000", "102826.137000", "102826.140000", "102826.143000", "102826.146000", "102826.149000", "102826.152000", "102826.155000", "102846.073000", "102846.076000", "102846.079000", "102846.082000", "102846.085000", "102846.088000", "102846.091000", "102846.093000", "102846.096000", "102846.099000", "102846.102000", "102846.105000", "102846.108000", "102846.111000", "102846.114000", "102846.117000", "102846.120000", "102846.122000", "102846.125000", "102846.128000", "102846.131000", "102846.134000", "102857.048000", "102857.051000", "102857.054000", "102857.057000", "102857.060000", "102857.063000", "102857.065000", "102857.068000", "102857.071000", "102857.074000", "102857.077000"],
      "InstanceCreationTime": ["102706.101000", "102706.105000", "102706.108000", "102706.111000", "102706.113000", "102706.116000", "102706.119000", "102706.122000", "102706.125000", "102706.135000", "102706.138000", "102706.141000", "102706.144000", "102706.147000", "102706.150000", "102706.153000", "102706.156000", "102706.159000", "102706.162000", "102706.165000", "102706.168000", "102706.171000", "102706.174000", "102706.177000", "102706.180000", "102706.182000", "102706.185000", "102706.188000", "102706.191000", "102706.194000", "102706.197000", "102706.200000", "102706.203000", "102706.206000", "102706.209000", "102706.212000", "102706.215000", "102706.218000", "102706.221000", "102706.223000", "102706.226000", "102706.229000", "102706.232000", "102706.235000", "102706.238000", "102726.074000", "102726.077000", "102726.102000", "102726.105000", "102726.108000", "102726.111000", "102726.114000", "102726.116000", "102726.119000", "102726.122000", "102726.125000", "102726.128000", "102726.131000", "102726.134000", "102726.137000", "102726.140000", "102726.143000", "102726.146000", "102726.148000", "102726.158000", "102726.161000", "102726.163000", "102726.166000", "102726.169000", "102726.172000", "102726.175000", "102726.178000", "102726.181000", "102726.184000", "102746.074000", "102746.077000", "102746.080000", "102746.083000", "102746.086000", "102746.089000", "102746.092000", "102746.095000", "102746.097000", "102746.100000", "102746.103000", "102746.106000", "102746.109000", "102746.112000", "102746.115000", "102746.118000", "102746.121000", "102746.124000", "102746.126000", "102746.129000", "102746.132000", "102746.135000", "102746.138000", "102746.141000", "102746.144000", "102746.147000", "102746.150000", "102806.074000", "102806.077000", "102806.080000", "102806.083000", "102806.086000", "102806.089000", "102806.092000", "102806.094000", "102806.097000", "102806.100000", "102806.103000", "102806.106000", "102806.109000", "102806.112000", "102806.115000", "102806.118000", "102806.121000", "102806.123000", "102806.126000", "102806.129000", "102806.132000", "102806.135000", "102806.138000", "102806.141000", "102806.144000", "102806.147000", "102806.150000", "102806.153000", "102806.156000", "102826.073000", "102826.076000", "102826.079000", "102826.082000", "102826.085000", "102826.088000", "102826.091000", "102826.093000", "102826.096000", "102826.099000", "102826.102000", "102826.105000", "102826.108000", "102826.111000", "102826.114000", "102826.117000", "102826.119000", "102826.122000", "102826.125000", "102826.128000", "102826.131000", "102826.134000", "102826.137000", "102826.140000", "102826.143000", "102826.146000", "102826.149000", "102826.152000", "102826.155000", "102846.073000", "102846.076000", "102846.079000", "102846.082000", "102846.085000", "102846.088000", "102846.091000", "102846.093000", "102846.096000", "102846.099000", "102846.102000", "102846.105000", "102846.108000", "102846.111000", "102846.114000", "102846.117000", "102846.120000", "102846.122000", "102846.125000", "102846.128000", "102846.131000", "102846.134000", "102857.048000", "102857.051000", "102857.054000", "102857.057000", "102857.060000", "102857.063000", "102857.065000", "102857.068000", "102857.071000", "102857.074000", "102857.077000"],
      "InstanceNumber": [1, 2, 3, 4, 5, 6, 7, 8, 9, 10, 11, 12, 13, 14, 15, 16, 17, 18, 19, 20, 21, 22, 23, 24, 25, 26, 27, 28, 29, 30, 31, 32, 33, 34, 35, 36, 37, 38, 39, 40, 41, 42, 43, 44, 45, 46, 47, 48, 49, 50, 51, 52, 53, 54, 55, 56, 57, 58, 59, 60, 61, 62, 63, 64, 65, 66, 67, 68, 69, 70, 71, 72, 73, 74, 75, 76, 77, 78, 79, 80, 81, 82, 83, 84, 85, 86, 87, 88, 89, 90, 91, 92, 93, 94, 95, 96, 97, 98, 99, 100, 101, 102, 103, 104, 105, 106, 107, 108, 109, 110, 111, 112, 113, 114, 115, 116, 117, 118, 119, 120, 121, 122, 123, 124, 125, 126, 127, 128, 129, 130, 131, 132, 133, 134, 135, 136, 137, 138, 139, 140, 141, 142, 143, 144, 145, 146, 147, 148, 149, 150, 151, 152, 153, 154, 155, 156, 157, 158, 159, 160, 161, 162, 163, 164, 165, 166, 167, 168, 169, 170, 171, 172, 173, 174, 175, 176, 177, 178, 179, 180, 181, 182, 183, 184, 185, 186, 187, 188, 189, 190, 191, 192],
      "LargestImagePixelValue": [39425, 37516, 36529, 36805, 36676, 36804, 35721, 36717, 35990, 35956, 36208, 35747, 36131, 35918, 36322, 35663, 36350, 35876, 35952, 35870, 35539, 35673, 35773, 36011, 35282, 35651, 36051, 35544, 36122, 35400, 35786, 36445, 36147, 36218, 34992, 35673, 35597, 36368, 36298, 35605, 36175, 35329, 36265, 35225, 36358, 36012, 36439, 36307, 35577, 35704, 35605, 36513, 36045, 35629, 36488, 35653, 35836, 35480, 36138, 35702, 35267, 36180, 35195, 35665, 35711, 35548, 35985, 36224, 36242, 35779, 36281, 36030, 36027, 35877, 36092, 36179, 36014, 35994, 35868, 35169, 35440, 35615, 35826, 35500, 36205, 35562, 36173, 34734, 35389, 35430, 35126, 36228, 35240, 36150, 35966, 35323, 35898, 35540, 36144, 35834, 35877, 36164, 35520, 36483, 35445, 36591, 35004, 35311, 35707, 35756, 35794, 35402, 35704, 35058, 35279, 35134, 34725, 35721, 35236, 35776, 36467, 35783, 36372, 35543, 35735, 36044, 35789, 36153, 35697, 36392, 35895, 35480, 35901, 35813, 36301, 35743, 36114, 36056, 34901, 35307, 35006, 36151, 35585, 35942, 35559, 35428, 36069, 35046, 35328, 35379, 35090, 35735, 35711, 35056, 35794, 35986, 36272, 35860, 35884, 36316, 34698, 35662, 35287, 35355, 35825, 35021, 36166, 35924, 36099, 36035, 35416, 35707, 35424, 35601, 36169, 35136, 35737, 35978, 35544, 35980, 34713, 35397, 35212, 35400, 35504, 34771, 35413, 34926, 36141, 35732, 34515, 35323],
      "WindowCenter": [9284.0, 9248.0, 9227.0, 9230.0, 9229.0, 9227.0, 9215.0, 9212.0, 9199.0, 9200.0, 9203.0, 9197.0, 9203.0, 9198.0, 9201.0, 9189.0, 9201.0, 9190.0, 9190.0, 9196.0, 9191.0, 9192.0, 9198.0, 9197.0, 9185.0, 9192.0, 9196.0, 9198.0, 9197.0, 9191.0, 9197.0, 9209.0, 9204.0, 9203.0, 9186.0, 9193.0, 9193.0, 9204.0, 9204.0, 9198.0, 9196.0, 9185.0, 9196.0, 9191.0, 9195.0, 9194.0, 9195.0, 9195.0, 9190.0, 9190.0, 9191.0, 9202.0, 9202.0, 9199.0, 9203.0, 9192.0, 9197.0, 9190.0, 9195.0, 9183.0, 9184.0, 9181.0, 9180.0, 9174.0, 9186.0, 9182.0, 9188.0, 9194.0, 9195.0, 9191.0, 9188.0, 9195.0, 9196.0, 9196.0, 9195.0, 9193.0, 9194.0, 9182.0, 9188.0, 9178.0, 9189.0, 9191.0, 9197.0, 9192.0, 9195.0, 9189.0, 9202.0, 9192.0, 9200.0, 9199.0, 9202.0, 9206.0, 9201.0, 9205.0, 9195.0, 9176.0, 9172.0, 9172.0, 9184.0, 9181.0, 9180.0, 9192.0, 9182.0, 9191.0, 9181.0, 9192.0, 9177.0, 9183.0, 9194.0, 9195.0, 9197.0, 9199.0, 9198.0, 9185.0, 9178.0, 9174.0, 9169.0, 9180.0, 9174.0, 9173.0, 9183.0, 9173.0, 9177.0, 9171.0, 9173.0, 9178.0, 9180.0, 9187.0, 9188.0, 9194.0, 9189.0, 9184.0, 9184.0, 9197.0, 9190.0, 9196.0, 9197.0, 9196.0, 9179.0, 9177.0, 9171.0, 9181.0, 9175.0, 9179.0, 9181.0, 9183.0, 9195.0, 9184.0, 9189.0, 9192.0, 9193.0, 9198.0, 9190.0, 9179.0, 9184.0, 9189.0, 9188.0, 9189.0, 9197.0, 9201.0, 9180.0, 9192.0, 9186.0, 9179.0, 9191.0, 9179.0, 9189.0, 9189.0, 9189.0, 9187.0, 9181.0, 9181.0, 9175.0, 9175.0, 9179.0, 9175.0, 9181.0, 9187.0, 9183.0, 9180.0, 9164.0, 9175.0, 9176.0, 9182.0, 9182.0, 9179.0, 9184.0, 9179.0, 9196.0, 9198.0, 9176.0, 9185.0],
      "WindowWidth": [19722.0, 19634.0, 19586.0, 19584.0, 19577.0, 19570.0, 19546.0, 19537.0, 19513.0, 19512.0, 19516.0, 19504.0, 19516.0, 19506.0, 19509.0, 19488.0, 19507.0, 19491.0, 19490.0, 19500.0, 19494.0, 19494.0, 19505.0, 19504.0, 19485.0, 19497.0, 19502.0, 19508.0, 19504.0, 19495.0, 19505.0, 19529.0, 19519.0, 19515.0, 19489.0, 19501.0, 19502.0, 19518.0, 19519.0, 19509.0, 19502.0, 19483.0, 19499.0, 19493.0, 19495.0, 19493.0, 19496.0, 19498.0, 19491.0, 19493.0, 19498.0, 19514.0, 19513.0, 19511.0, 19514.0, 19498.0, 19504.0, 19491.0, 19497.0, 19475.0, 19478.0, 19470.0, 19467.0, 19458.0, 19478.0, 19472.0, 19482.0, 19494.0, 19498.0, 19490.0, 19483.0, 19496.0, 19499.0, 19500.0, 19493.0, 19491.0, 19493.0, 19471.0, 19483.0, 19467.0, 19488.0, 19494.0, 19506.0, 19496.0, 19498.0, 19488.0, 19512.0, 19500.0, 19513.0, 19514.0, 19519.0, 19525.0, 19516.0, 19520.0, 19499.0, 19461.0, 19447.0, 19445.0, 19470.0, 19468.0, 19469.0, 19490.0, 19473.0, 19485.0, 19469.0, 19488.0, 19466.0, 19478.0, 19496.0, 19499.0, 19506.0, 19512.0, 19508.0, 19483.0, 19465.0, 19454.0, 19446.0, 19464.0, 19453.0, 19452.0, 19467.0, 19449.0, 19454.0, 19446.0, 19449.0, 19460.0, 19465.0, 19478.0, 19483.0, 19493.0, 19487.0, 19478.0, 19479.0, 19503.0, 19488.0, 19499.0, 19501.0, 19499.0, 19469.0, 19466.0, 19456.0, 19469.0, 19456.0, 19463.0, 19469.0, 19476.0, 19496.0, 19479.0, 19489.0, 19497.0, 19499.0, 19503.0, 19490.0, 19471.0, 19479.0, 19486.0, 19482.0, 19487.0, 19501.0, 19509.0, 19475.0, 19496.0, 19484.0, 19470.0, 19490.0, 19470.0, 19482.0, 19484.0, 19485.0, 19478.0, 19468.0, 19468.0, 19457.0, 19455.0, 19460.0, 19456.0, 19465.0, 19479.0, 19472.0, 19465.0, 19439.0, 19458.0, 19461.0, 19471.0, 19473.0, 19472.0, 19479.0, 19472.0, 19501.0, 19508.0, 19471.0, 19484.0]
    },
    "slices": {}
  },
  "NumberOfVolumes": 192
}