{
  "AcquisitionMatrixPE": 104,
  "AcquisitionNumber": 1,
  "AcquisitionTime": "10:46:17.515000",
  "BandwidthPerPixelPhaseEncode": 16.297,
  "BaseResolution": 104,
  "BodyPartExamined": "BRAIN",
  "ConsistencyInfo": "N4_VE11C_LATEST_20160120",
  "ConversionSoftware": "dcm2niix",
  "ConversionSoftwareVersion": "v1.0.20190902",
  "DerivedVendorReportedEchoSpacing": 0.000590009,
  "DeviceSerialNumber": "166018",
  "DwellTime": 2.1e-06,
  "EchoTime": 0.0376,
  "EchoTrainLength": 104,
  "EffectiveEchoSpacing": 0.000590009,
  "FlipAngle": 68,
  "ImageComments": "Unaliased_MB6_PE3_LB",
  "ImageOrientationPatientDICOM": [0.99959, 0.0276268, -0.00754753, -0.0286195, 0.953801, -0.299074],
  "ImageType": [
    "ORIGINAL",
    "PRIMARY",
    "M",
    "MB",
    "ND",
    "MOSAIC"
],
  "ImagingFrequency": 123.191,
  "InPlanePhaseEncodingDirectionDICOM": "COL",
  "InstitutionAddress": "Washington_Place_6_NYC_NYC_US_10003",
  "InstitutionName": "NYU_-_CBI",
  "InstitutionalDepartmentName": "Department",
  "MRAcquisitionType": "2D",
  "MagneticFieldStrength": 3,
  "Manufacturer": "Siemens",
  "ManufacturersModelName": "Prisma",
  "Modality": "MR",
  "MultibandAccelerationFactor": 6,
  "PartialFourier": 1,
  "PatientPosition": "HFS",
  "PercentPhaseFOV": 100,
  "PhaseEncodingDirection": "j",
  "PhaseEncodingSteps": 104,
  "PhaseResolution": 1,
  "PixelBandwidth": 2290,
  "ProcedureStepDescription": "Investigators_Winawer",
  "ProtocolName": "cmrr_mbepi_s6_2mm_66sl_PA_task-prf",
  "PulseSequenceDetails": "%CustomerSeq%_cmrr_mbep2d_bold",
  "ReceiveCoilActiveElements": "HC1-7",
  "ReceiveCoilName": "HeadNeck_64",
  "ReconMatrixPE": 104,
  "RepetitionTime": 1,
  "SAR": 0.0770409,
  "ScanOptions": "FS",
  "ScanningSequence": "EP",
  "SequenceName": "epfid2d1_104",
  "SequenceVariant": "SK_SS",
  "SeriesDescription": "cmrr_mbepi_s6_2mm_66sl_PA_task-prf",
  "SeriesNumber": 22,
  "ShimSetting": [243, -12633, -8407, 369, -62, -56, -32, 25],
  "SliceThickness": 2,
  "SliceTiming": [0, 0.5325, 0.0875, 0.6225, 0.1775, 0.7125, 0.265, 0.8, 0.355, 0.89, 0.445, 0, 0.5325, 0.0875, 0.6225, 0.1775, 0.7125, 0.265, 0.8, 0.355, 0.89, 0.445, 0, 0.5325, 0.0875, 0.6225, 0.1775, 0.7125, 0.265, 0.8, 0.355, 0.89, 0.445, 0, 0.5325, 0.0875, 0.6225, 0.1775, 0.7125, 0.265, 0.8, 0.355, 0.89, 0.445, 0, 0.5325, 0.0875, 0.6225, 0.1775, 0.7125, 0.265, 0.8, 0.355, 0.89, 0.445, 0, 0.5325, 0.0875, 0.6225, 0.1775, 0.7125, 0.265, 0.8, 0.355, 0.89, 0.445],
  "SoftwareVersions": "syngo_MR_E11",
  "SpacingBetweenSlices": 2,
  "StationName": "AWP166018",
  "TaskName": "prf",
  "TotalReadoutTime": 0.060771,
  "TxRefAmp": 250.2,
  "VendorReportedEchoSpacing": 0.00059,
  "WipMemBlock": "82846f46-eacb-4cb0-82aa-2b8f0320f5be||Sequence: R016 ve11c/master r/8780670; Nov 27 2017 15:05:12 by eja",
  "dcmmeta_affine": [
    [-1.9991796016693115, -0.05723899230360985, 0.0021272660233080387, 110.66590118408203],
    [-0.055253658443689346, 1.907601237297058, -0.5983348488807678, -54.574100494384766],
    [-0.015095056034624577, 0.5981482267379761, 1.908400058746338, -64.30183410644531],
    [0.0, 0.0, 0.0, 1.0]
],
  "dcmmeta_reorient_transform": [
    [0.0, -1.0, 0.0, 103.0],
    [1.0, 0.0, 0.0, 0.0],
    [0.0, 0.0, 1.0, 0.0],
    [0.0, 0.0, 0.0, 1.0]
],
  "dcmmeta_shape": [104, 104, 66, 192],
  "dcmmeta_slice_dim": 2,
  "dcmmeta_version": 0.6,
  "global": {
    "const": {
      "AccessionNumber": "kh24bw9s",
      "AcquisitionMatrix": [104, 0, 0, 104],
      "AngioFlag": "N",
      "BitsAllocated": 16,
      "BitsStored": 16,
      "BodyPartExamined": "BRAIN",
      "Columns": 936,
      "EchoNumbers": 1,
      "EchoTime": 37.6,
      "EchoTrainLength": 104,
      "FlipAngle": 68.0,
      "HighBit": 15,
      "ImageOrientationPatient": [0.99958981242134, 0.02762682984351, -0.0075475278247, -0.0286194966467, 0.95380060780716, -0.2990741128188],
      "ImagePositionPatient": [-912.61758991655, -958.45645181925, 252.41663692289],
      "ImageType": [
        "ORIGINAL",
        "PRIMARY",
        "M",
        "MB",
        "ND",
        "MOSAIC"
],
      "ImagedNucleus": "1H",
      "ImagingFrequency": 123.190601,
      "InPlanePhaseEncodingDirection": "COL",
      "MRAcquisitionType": "2D",
      "MagneticFieldStrength": 3.0,
      "Manufacturer": "SIEMENS",
      "ManufacturerModelName": "Prisma",
      "Modality": "MR",
      "NumberOfAverages": 1.0,
      "NumberOfPhaseEncodingSteps": 104,
      "PercentPhaseFieldOfView": 100.0,
      "PercentSampling": 100.0,
      "PerformedProcedureStepStartTime": "095314.554000",
      "PhotometricInterpretation": "MONOCHROME2",
      "PixelBandwidth": 2290.0,
      "PixelRepresentation": 0,
      "PixelSpacing": [2.0, 2.0],
      "ProtocolName": "cmrr_mbepi_s6_2mm_66sl_PA_task-prf",
      "RepetitionTime": 1000.0,
      "Rows": 936,
      "SAR": 0.07704093856587,
      "SamplesPerPixel": 1,
      "ScanOptions": "FS",
      "ScanningSequence": "EP",
      "SequenceName": "epfid2d1_104",
      "SequenceVariant": [
        "SK",
        "SS"
],
      "SeriesDescription": "cmrr_mbepi_s6_2mm_66sl_PA_task-prf",
      "SeriesNumber": 22,
      "SeriesTime": "104726.238000",
      "SliceLocation": -44.912311330147,
      "SliceThickness": 2.0,
      "SmallestImagePixelValue": 0,
      "SoftwareVersions": "syngo MR E11",
      "SpacingBetweenSlices": 1.9999999410325,
      "SpecificCharacterSet": "ISO_IR 100",
      "StudyID": "1",
      "StudyTime": "095314.453000",
      "TransmitCoilName": "Body",
      "VariableFlipAngleFlag": "N",
      "WindowCenterWidthExplanation": "Algo1",
      "dBdt": 0.0},
    "slices": {}
  },
  "time": {
    "samples": {
      "AcquisitionNumber": [1, 2, 3, 4, 5, 6, 7, 8, 9, 10, 11, 12, 13, 14, 15, 16, 17, 18, 19, 20, 21, 22, 23, 24, 25, 26, 27, 28, 29, 30, 31, 32, 33, 34, 35, 36, 37, 38, 39, 40, 41, 42, 43, 44, 45, 46, 47, 48, 49, 50, 51, 52, 53, 54, 55, 56, 57, 58, 59, 60, 61, 62, 63, 64, 65, 66, 67, 68, 69, 70, 71, 72, 73, 74, 75, 76, 77, 78, 79, 80, 81, 82, 83, 84, 85, 86, 87, 88, 89, 90, 91, 92, 93, 94, 95, 96, 97, 98, 99, 100, 101, 102, 103, 104, 105, 106, 107, 108, 109, 110, 111, 112, 113, 114, 115, 116, 117, 118, 119, 120, 121, 122, 123, 124, 125, 126, 127, 128, 129, 130, 131, 132, 133, 134, 135, 136, 137, 138, 139, 140, 141, 142, 143, 144, 145, 146, 147, 148, 149, 150, 151, 152, 153, 154, 155, 156, 157, 158, 159, 160, 161, 162, 163, 164, 165, 166, 167, 168, 169, 170, 171, 172, 173, 174, 175, 176, 177, 178, 179, 180, 181, 182, 183, 184, 185, 186, 187, 188, 189, 190, 191, 192],
      "AcquisitionTime": ["104617.515000", "104618.515000", "104619.515000", "104620.515000", "104621.515000", "104622.515000", "104623.515000", "104624.515000", "104625.515000", "104626.515000", "104627.515000", "104628.515000", "104629.515000", "104630.515000", "104631.515000", "104632.515000", "104633.515000", "104634.515000", "104635.515000", "104636.515000", "104637.515000", "104638.515000", "104639.515000", "104640.515000", "104641.515000", "104642.515000", "104643.515000", "104644.515000", "104645.515000", "104646.515000", "104647.515000", "104648.515000", "104649.515000", "104650.515000", "104651.515000", "104652.515000", "104653.515000", "104654.515000", "104655.515000", "104656.515000", "104657.515000", "104658.515000", "104659.515000", "104700.515000", "104701.515000", "104702.515000", "104703.515000", "104704.515000", "104705.515000", "104706.515000", "104707.515000", "104708.515000", "104709.515000", "104710.515000", "104711.515000", "104712.515000", "104713.515000", "104714.515000", "104715.515000", "104716.515000", "104717.515000", "104718.515000", "104719.515000", "104720.515000", "104721.515000", "104722.515000", "104723.515000", "104724.515000", "104725.515000", "104726.515000", "104727.515000", "104728.515000", "104729.515000", "104730.515000", "104731.515000", "104732.515000", "104733.515000", "104734.515000", "104735.515000", "104736.515000", "104737.515000", "104738.515000", "104739.515000", "104740.515000", "104741.515000", "104742.515000", "104743.515000", "104744.515000", "104745.515000", "104746.515000", "104747.515000", "104748.515000", "104749.515000", "104750.515000", "104751.515000", "104752.515000", "104753.515000", "104754.515000", "104755.515000", "104756.515000", "104757.515000", "104758.515000", "104759.515000", "104800.515000", "104801.515000", "104802.515000", "104803.515000", "104804.515000", "104805.515000", "104806.515000", "104807.515000", "104808.515000", "104809.515000", "104810.515000", "104811.515000", "104812.515000", "104813.515000", "104814.515000", "104815.515000", "104816.515000", "104817.515000", "104818.515000", "104819.515000", "104820.515000", "104821.515000", "104822.515000", "104823.515000", "104824.515000", "104825.515000", "104826.515000", "104827.515000", "104828.515000", "104829.515000", "104830.515000", "104831.515000", "104832.515000", "104833.515000", "104834.515000", "104835.515000", "104836.515000", "104837.515000", "104838.515000", "104839.515000", "104840.515000", "104841.515000", "104842.515000", "104843.515000", "104844.515000", "104845.515000", "104846.515000", "104847.515000", "104848.515000", "104849.515000", "104850.515000", "104851.515000", "104852.515000", "104853.515000", "104854.515000", "104855.515000", "104856.515000", "104857.515000", "104858.515000", "104859.515000", "104900.515000", "104901.515000", "104902.515000", "104903.515000", "104904.515000", "104905.515000", "104906.515000", "104907.515000", "104908.515000", "104909.515000", "104910.515000", "104911.515000", "104912.515000", "104913.515000", "104914.515000", "104915.515000", "104916.515000", "104917.515000", "104918.515000", "104919.515000", "104920.515000", "104921.515000", "104922.515000", "104923.515000", "104924.515000", "104925.515000", "104926.515000", "104927.515000", "104928.515000"],
      "ContentTime": ["104726.241000", "104726.244000", "104726.247000", "104726.250000", "104726.253000", "104726.256000", "104726.259000", "104726.262000", "104726.264000", "104726.267000", "104726.270000", "104726.282000", "104726.285000", "104726.288000", "104726.298000", "104726.301000", "104726.304000", "104726.307000", "104726.310000", "104726.313000", "104726.315000", "104726.318000", "104726.321000", "104726.324000", "104726.327000", "104726.330000", "104746.210000", "104746.214000", "104746.216000", "104746.219000", "104746.222000", "104746.225000", "104746.228000", "104746.231000", "104746.234000", "104746.237000", "104746.240000", "104746.243000", "104746.245000", "104746.248000", "104746.251000", "104746.254000", "104746.257000", "104746.260000", "104746.263000", "104746.266000", "104746.269000", "104746.272000", "104746.274000", "104746.277000", "104746.280000", "104746.283000", "104746.286000", "104746.289000", "104806.211000", "104806.214000", "104806.217000", "104806.220000", "104806.223000", "104806.225000", "104806.228000", "104806.231000", "104806.234000", "104806.237000", "104806.240000", "104806.243000", "104806.246000", "104806.249000", "104806.251000", "104806.254000", "104806.257000", "104806.260000", "104806.263000", "104806.266000", "104806.269000", "104806.272000", "104806.274000", "104806.277000", "104806.280000", "104806.283000", "104806.286000", "104806.289000", "104806.292000", "104826.211000", "104826.214000", "104826.217000", "104826.220000", "104826.223000", "104826.225000", "104826.228000", "104826.231000", "104826.234000", "104826.237000", "104826.240000", "104826.243000", "104826.246000", "104826.249000", "104826.252000", "104826.255000", "104826.258000", "104826.261000", "104826.263000", "104826.266000", "104826.278000", "104826.281000", "104826.284000", "104826.287000", "104826.290000", "104826.293000", "104826.296000", "104826.299000", "104846.211000", "104846.214000", "104846.217000", "104846.220000", "104846.231000", "104846.234000", "104846.237000", "104846.239000", "104846.242000", "104846.245000", "104846.248000", "104846.251000", "104846.254000", "104846.257000", "104846.260000", "104846.263000", "104846.266000", "104846.269000", "104846.271000", "104846.274000", "104846.277000", "104846.280000", "104846.283000", "104846.286000", "104846.289000", "104846.292000", "104846.295000", "104846.298000", "104906.210000", "104906.213000", "104906.216000", "104906.219000", "104906.222000", "104906.225000", "104906.228000", "104906.230000", "104906.233000", "104906.236000", "104906.239000", "104906.242000", "104906.245000", "104906.248000", "104906.251000", "104906.254000", "104906.265000", "104906.268000", "104906.271000", "104906.274000", "104906.276000", "104906.279000", "104906.282000", "104906.285000", "104906.288000", "104906.291000", "104906.294000", "104906.297000", "104906.300000", "104926.210000", "104926.213000", "104926.216000", "104926.219000", "104926.222000", "104926.225000", "104926.227000", "104926.230000", "104926.233000", "104926.236000", "104926.239000", "104926.242000", "104926.245000", "104926.248000", "104926.251000", "104926.254000", "104926.257000", "104926.259000", "104926.262000", "104926.265000", "104930.231000", "104930.234000", "104930.240000", "104930.243000"],
      "InstanceCreationTime": ["104726.241000", "104726.244000", "104726.247000", "104726.250000", "104726.253000", "104726.256000", "104726.259000", "104726.262000", "104726.264000", "104726.267000", "104726.270000", "104726.282000", "104726.285000", "104726.288000", "104726.298000", "104726.301000", "104726.304000", "104726.307000", "104726.310000", "104726.313000", "104726.315000", "104726.318000", "104726.321000", "104726.324000", "104726.327000", "104726.330000", "104746.210000", "104746.214000", "104746.216000", "104746.219000", "104746.222000", "104746.225000", "104746.228000", "104746.231000", "104746.234000", "104746.237000", "104746.240000", "104746.243000", "104746.245000", "104746.248000", "104746.251000", "104746.254000", "104746.257000", "104746.260000", "104746.263000", "104746.266000", "104746.269000", "104746.272000", "104746.274000", "104746.277000", "104746.280000", "104746.283000", "104746.286000", "104746.289000", "104806.211000", "104806.214000", "104806.217000", "104806.220000", "104806.223000", "104806.225000", "104806.228000", "104806.231000", "104806.234000", "104806.237000", "104806.240000", "104806.243000", "104806.246000", "104806.249000", "104806.251000", "104806.254000", "104806.257000", "104806.260000", "104806.263000", "104806.266000", "104806.269000", "104806.272000", "104806.274000", "104806.277000", "104806.280000", "104806.283000", "104806.286000", "104806.289000", "104806.292000", "104826.211000", "104826.214000", "104826.217000", "104826.220000", "104826.223000", "104826.225000", "104826.228000", "104826.231000", "104826.234000", "104826.237000", "104826.240000", "104826.243000", "104826.246000", "104826.249000", "104826.252000", "104826.255000", "104826.258000", "104826.261000", "104826.263000", "104826.266000", "104826.278000", "104826.281000", "104826.284000", "104826.287000", "104826.290000", "104826.293000", "104826.296000", "104826.299000", "104846.211000", "104846.214000", "104846.217000", "104846.220000", "104846.231000", "104846.234000", "104846.237000", "104846.239000", "104846.242000", "104846.245000", "104846.248000", "104846.251000", "104846.254000", "104846.257000", "104846.260000", "104846.263000", "104846.266000", "104846.269000", "104846.271000", "104846.274000", "104846.277000", "104846.280000", "104846.283000", "104846.286000", "104846.289000", "104846.292000", "104846.295000", "104846.298000", "104906.210000", "104906.213000", "104906.216000", "104906.219000", "104906.222000", "104906.225000", "104906.228000", "104906.230000", "104906.233000", "104906.236000", "104906.239000", "104906.242000", "104906.245000", "104906.248000", "104906.251000", "104906.254000", "104906.265000", "104906.268000", "104906.271000", "104906.274000", "104906.276000", "104906.279000", "104906.282000", "104906.285000", "104906.288000", "104906.291000", "104906.294000", "104906.297000", "104906.300000", "104926.210000", "104926.213000", "104926.216000", "104926.219000", "104926.222000", "104926.225000", "104926.227000", "104926.230000", "104926.233000", "104926.236000", "104926.239000", "104926.242000", "104926.245000", "104926.248000", "104926.251000", "104926.254000", "104926.257000", "104926.259000", "104926.262000", "104926.265000", "104930.231000", "104930.234000", "104930.240000", "104930.243000"],
      "InstanceNumber": [1, 2, 3, 4, 5, 6, 7, 8, 9, 10, 11, 12, 13, 14, 15, 16, 17, 18, 19, 20, 21, 22, 23, 24, 25, 26, 27, 28, 29, 30, 31, 32, 33, 34, 35, 36, 37, 38, 39, 40, 41, 42, 43, 44, 45, 46, 47, 48, 49, 50, 51, 52, 53, 54, 55, 56, 57, 58, 59, 60, 61, 62, 63, 64, 65, 66, 67, 68, 69, 70, 71, 72, 73, 74, 75, 76, 77, 78, 79, 80, 81, 82, 83, 84, 85, 86, 87, 88, 89, 90, 91, 92, 93, 94, 95, 96, 97, 98, 99, 100, 101, 102, 103, 104, 105, 106, 107, 108, 109, 110, 111, 112, 113, 114, 115, 116, 117, 118, 119, 120, 121, 122, 123, 124, 125, 126, 127, 128, 129, 130, 131, 132, 133, 134, 135, 136, 137, 138, 139, 140, 141, 142, 143, 144, 145, 146, 147, 148, 149, 150, 151, 152, 153, 154, 155, 156, 157, 158, 159, 160, 161, 162, 163, 164, 165, 166, 167, 168, 169, 170, 171, 172, 173, 174, 175, 176, 177, 178, 179, 180, 181, 182, 183, 184, 185, 186, 187, 188, 189, 190, 191, 192],
      "LargestImagePixelValue": [34828, 34350, 34210, 33877, 34035, 33548, 34010, 33828, 33334, 33935, 32760, 33637, 33479, 33383, 33559, 33308, 33896, 33171, 33516, 33559, 32956, 33628, 33050, 33007, 33757, 32802, 33367, 33712, 32909, 34122, 33095, 32830, 33829, 32749, 33430, 33558, 32869, 33908, 32874, 33355, 33841, 32827, 33207, 33518, 33148, 33356, 32648, 33089, 33506, 32810, 33817, 32711, 33367, 33831, 33046, 34051, 32997, 33625, 33503, 33321, 33997, 33341, 33595, 32947, 33315, 33924, 32936, 33748, 33156, 33069, 33509, 33083, 34076, 32716, 33660, 33701, 33532, 33148, 33650, 33243, 33629, 32970, 33441, 33392, 33416, 33654, 32952, 33388, 33106, 32636, 33248, 32814, 33460, 32919, 33158, 33042, 32946, 33547, 32974, 33203, 32749, 33182, 33177, 32908, 33325, 33019, 33370, 33097, 33670, 32641, 33052, 33492, 33183, 33573, 32755, 33377, 32555, 33200, 32920, 32446, 33346, 33174, 32818, 33645, 32582, 33013, 33504, 33177, 33688, 32828, 33092, 33296, 33075, 33425, 32807, 33239, 32884, 33326, 33586, 32683, 33551, 33098, 32923, 33368, 32524, 33295, 32989, 32992, 33481, 33041, 33221, 33024, 33499, 33496, 32893, 33262, 32758, 33034, 33192, 32765, 33300, 32723, 33554, 32904, 33371, 33006, 32690, 33938, 32540, 33233, 33279, 32395, 33370, 32659, 33064, 32586, 33309, 33252, 32546, 33598, 33238, 32869, 33560, 32262, 32951, 33361, 32553, 33674, 32587, 33182, 33142, 32802],
      "WindowCenter": [9253.0, 9231.0, 9221.0, 9221.0, 9228.0, 9222.0, 9227.0, 9226.0, 9223.0, 9237.0, 9220.0, 9232.0, 9230.0, 9224.0, 9230.0, 9226.0, 9237.0, 9224.0, 9222.0, 9222.0, 9210.0, 9228.0, 9202.0, 9200.0, 9211.0, 9200.0, 9207.0, 9210.0, 9197.0, 9214.0, 9198.0, 9199.0, 9208.0, 9192.0, 9204.0, 9211.0, 9216.0, 9236.0, 9217.0, 9208.0, 9210.0, 9190.0, 9187.0, 9192.0, 9187.0, 9196.0, 9191.0, 9191.0, 9193.0, 9188.0, 9200.0, 9183.0, 9196.0, 9201.0, 9198.0, 9218.0, 9210.0, 9222.0, 9213.0, 9213.0, 9218.0, 9214.0, 9220.0, 9208.0, 9207.0, 9203.0, 9191.0, 9195.0, 9195.0, 9190.0, 9194.0, 9182.0, 9199.0, 9189.0, 9207.0, 9209.0, 9210.0, 9204.0, 9202.0, 9198.0, 9205.0, 9200.0, 9212.0, 9204.0, 9199.0, 9210.0, 9191.0, 9203.0, 9191.0, 9194.0, 9205.0, 9200.0, 9213.0, 9202.0, 9207.0, 9192.0, 9198.0, 9205.0, 9207.0, 9208.0, 9201.0, 9206.0, 9205.0, 9200.0, 9205.0, 9200.0, 9206.0, 9201.0, 9213.0, 9202.0, 9202.0, 9211.0, 9206.0, 9205.0, 9201.0, 9207.0, 9209.0, 9216.0, 9209.0, 9191.0, 9207.0, 9199.0, 9198.0, 9196.0, 9185.0, 9191.0, 9195.0, 9196.0, 9202.0, 9198.0, 9200.0, 9214.0, 9209.0, 9207.0, 9201.0, 9208.0, 9203.0, 9208.0, 9212.0, 9194.0, 9206.0, 9201.0, 9201.0, 9191.0, 9185.0, 9196.0, 9191.0, 9199.0, 9205.0, 9193.0, 9198.0, 9200.0, 9213.0, 9213.0, 9208.0, 9208.0, 9196.0, 9202.0, 9207.0, 9202.0, 9206.0, 9201.0, 9220.0, 9209.0, 9216.0, 9205.0, 9206.0, 9223.0, 9205.0, 9210.0, 9209.0, 9192.0, 9201.0, 9195.0, 9202.0, 9197.0, 9209.0, 9206.0, 9195.0, 9206.0, 9207.0, 9202.0, 9208.0, 9197.0, 9203.0, 9201.0, 9188.0, 9198.0, 9184.0, 9184.0, 9189.0, 9184.0],
      "WindowWidth": [19698.0, 19631.0, 19600.0, 19596.0, 19606.0, 19596.0, 19600.0, 19600.0, 19596.0, 19623.0, 19599.0, 19616.0, 19611.0, 19601.0, 19613.0, 19608.0, 19626.0, 19601.0, 19595.0, 19594.0, 19576.0, 19603.0, 19556.0, 19547.0, 19564.0, 19552.0, 19563.0, 19562.0, 19541.0, 19568.0, 19544.0, 19543.0, 19557.0, 19531.0, 19550.0, 19567.0, 19585.0, 19621.0, 19587.0, 19565.0, 19562.0, 19523.0, 19514.0, 19519.0, 19514.0, 19533.0, 19527.0, 19526.0, 19525.0, 19519.0, 19538.0, 19514.0, 19534.0, 19541.0, 19543.0, 19581.0, 19574.0, 19596.0, 19576.0, 19573.0, 19581.0, 19577.0, 19589.0, 19569.0, 19564.0, 19550.0, 19528.0, 19532.0, 19535.0, 19527.0, 19530.0, 19510.0, 19537.0, 19524.0, 19554.0, 19560.0, 19563.0, 19551.0, 19546.0, 19542.0, 19556.0, 19549.0, 19570.0, 19554.0, 19546.0, 19564.0, 19530.0, 19549.0, 19531.0, 19537.0, 19557.0, 19550.0, 19573.0, 19555.0, 19562.0, 19534.0, 19544.0, 19557.0, 19565.0, 19566.0, 19553.0, 19559.0, 19556.0, 19550.0, 19555.0, 19551.0, 19561.0, 19553.0, 19574.0, 19556.0, 19557.0, 19565.0, 19560.0, 19558.0, 19554.0, 19566.0, 19572.0, 19585.0, 19570.0, 19537.0, 19561.0, 19545.0, 19541.0, 19532.0, 19516.0, 19527.0, 19532.0, 19536.0, 19546.0, 19545.0, 19550.0, 19576.0, 19569.0, 19562.0, 19553.0, 19563.0, 19556.0, 19565.0, 19566.0, 19539.0, 19558.0, 19549.0, 19548.0, 19526.0, 19517.0, 19536.0, 19530.0, 19547.0, 19553.0, 19534.0, 19540.0, 19548.0, 19572.0, 19573.0, 19566.0, 19566.0, 19546.0, 19555.0, 19562.0, 19553.0, 19558.0, 19552.0, 19584.0, 19569.0, 19582.0, 19564.0, 19568.0, 19594.0, 19565.0, 19571.0, 19567.0, 19537.0, 19549.0, 19540.0, 19553.0, 19546.0, 19566.0, 19559.0, 19541.0, 19559.0, 19563.0, 19553.0, 19563.0, 19548.0, 19557.0, 19547.0, 19525.0, 19536.0, 19510.0, 19509.0, 19517.0, 19512.0]
    },
    "slices": {}
  },
  "NumberOfVolumes": 192
}