{
  "AcquisitionMatrixPE": 104,
  "AcquisitionNumber": 1,
  "AcquisitionTime": "12:35:49.447500",
  "BandwidthPerPixelPhaseEncode": 16.297,
  "BaseResolution": 104,
  "BodyPartExamined": "BRAIN",
  "ConsistencyInfo": "N4_VE11C_LATEST_20160120",
  "ConversionSoftware": "dcm2niix",
  "ConversionSoftwareVersion": "v1.0.20190902",
  "DerivedVendorReportedEchoSpacing": 0.000590009,
  "DeviceSerialNumber": "166018",
  "DwellTime": 2.1e-06,
  "EchoTime": 0.0376,
  "EchoTrainLength": 104,
  "EffectiveEchoSpacing": 0.000590009,
  "FlipAngle": 68,
  "ImageComments": "Unaliased_MB6_PE3_LB",
  "ImageOrientationPatientDICOM": [0.99864, 0.0489022, 0.0180849, -0.0483175, 0.998336, -0.0314649],
  "ImageType": [
    "ORIGINAL",
    "PRIMARY",
    "M",
    "MB",
    "ND",
    "MOSAIC"
],
  "ImagingFrequency": 123.191,
  "InPlanePhaseEncodingDirectionDICOM": "COL",
  "InstitutionAddress": "Washington_Place_6_NYC_NYC_US_10003",
  "InstitutionName": "NYU_Center_for_Brain_Imaging",
  "InstitutionalDepartmentName": "Department",
  "MRAcquisitionType": "2D",
  "MagneticFieldStrength": 3,
  "Manufacturer": "Siemens",
  "ManufacturersModelName": "Prisma",
  "Modality": "MR",
  "MultibandAccelerationFactor": 6,
  "PartialFourier": 1,
  "PatientPosition": "HFS",
  "PercentPhaseFOV": 100,
  "PhaseEncodingDirection": "j",
  "PhaseEncodingSteps": 104,
  "PhaseResolution": 1,
  "PixelBandwidth": 2290,
  "ProcedureStepDescription": "Investigators_Winawer",
  "ProtocolName": "cmrr_mbepi_s6_2mm_66sl_PA_task-prf",
  "PulseSequenceDetails": "%CustomerSeq%_cmrr_mbep2d_bold",
  "ReceiveCoilActiveElements": "HC1-7",
  "ReceiveCoilName": "HeadNeck_64",
  "ReconMatrixPE": 104,
  "RepetitionTime": 1,
  "SAR": 0.0711647,
  "ScanOptions": "FS",
  "ScanningSequence": "EP",
  "SequenceName": "epfid2d1_104",
  "SequenceVariant": "SK_SS",
  "SeriesDescription": "cmrr_mbepi_s6_2mm_66sl_PA_task-prf",
  "SeriesNumber": 10,
  "ShimSetting": [279, -12679, -8483, 321, 13, -314, -99, 15],
  "SliceThickness": 2,
  "SliceTiming": [0, 0.5325, 0.0875, 0.6225, 0.1775, 0.7125, 0.265, 0.8, 0.355, 0.89, 0.445, 0, 0.5325, 0.0875, 0.6225, 0.1775, 0.7125, 0.265, 0.8, 0.355, 0.89, 0.445, 0, 0.5325, 0.0875, 0.6225, 0.1775, 0.7125, 0.265, 0.8, 0.355, 0.89, 0.445, 0, 0.5325, 0.0875, 0.6225, 0.1775, 0.7125, 0.265, 0.8, 0.355, 0.89, 0.445, 0, 0.5325, 0.0875, 0.6225, 0.1775, 0.7125, 0.265, 0.8, 0.355, 0.89, 0.445, 0, 0.5325, 0.0875, 0.6225, 0.1775, 0.7125, 0.265, 0.8, 0.355, 0.89, 0.445],
  "SoftwareVersions": "syngo_MR_E11",
  "SpacingBetweenSlices": 2,
  "StationName": "AWP166018",
  "TaskName": "prf",
  "TotalReadoutTime": 0.060771,
  "TxRefAmp": 205.422,
  "VendorReportedEchoSpacing": 0.00059,
  "WipMemBlock": "4a894a66-c1da-45a3-b556-7b1a654cdc51||Sequence: R016 ve11c/master r/8780670; Nov 27 2017 15:05:12 by eja",
  "dcmmeta_affine": [
    [-1.9972796440124512, -0.09663501381874084, 0.03918701410293579, 108.82646179199219],
    [-0.09780436754226685, 1.9966726303100586, -0.06109648942947388, -71.17427062988281],
    [0.03616978973150253, 0.06292971968650818, 1.9986824989318848, -45.530643463134766],
    [0.0, 0.0, 0.0, 1.0]
],
  "dcmmeta_reorient_transform": [
    [0.0, -1.0, 0.0, 103.0],
    [1.0, 0.0, 0.0, 0.0],
    [0.0, 0.0, 1.0, 0.0],
    [0.0, 0.0, 0.0, 1.0]
],
  "dcmmeta_shape": [104, 104, 66, 192],
  "dcmmeta_slice_dim": 2,
  "dcmmeta_version": 0.6,
  "global": {
    "const": {
      "AccessionNumber": "kr26nbg7",
      "AcquisitionMatrix": [104, 0, 0, 104],
      "AngioFlag": "N",
      "BitsAllocated": 16,
      "BitsStored": 16,
      "BodyPartExamined": "BRAIN",
      "Columns": 936,
      "EchoNumbers": 1,
      "EchoTime": 37.6,
      "EchoTrainLength": 104,
      "FlipAngle": 68.0,
      "HighBit": 15,
      "ImageOrientationPatient": [0.99863983150641, 0.0489021832216, 0.01808489438773, -0.0483175062667, 0.99833630665284, -0.0314648598747],
      "ImagePositionPatient": [-889.54122967071, -1005.785432211, -27.916751474082],
      "ImageType": [
        "ORIGINAL",
        "PRIMARY",
        "M",
        "MB",
        "ND",
        "MOSAIC"
],
      "ImagedNucleus": "1H",
      "ImagingFrequency": 123.190636,
      "InPlanePhaseEncodingDirection": "COL",
      "MRAcquisitionType": "2D",
      "MagneticFieldStrength": 3.0,
      "Manufacturer": "SIEMENS",
      "ManufacturerModelName": "Prisma",
      "Modality": "MR",
      "NumberOfAverages": 1.0,
      "NumberOfPhaseEncodingSteps": 104,
      "PercentPhaseFieldOfView": 100.0,
      "PercentSampling": 100.0,
      "PerformedProcedureStepStartTime": "122909.687000",
      "PhotometricInterpretation": "MONOCHROME2",
      "PixelBandwidth": 2290.0,
      "PixelRepresentation": 0,
      "PixelSpacing": [2.0, 2.0],
      "ProtocolName": "cmrr_mbepi_s6_2mm_66sl_PA_task-prf",
      "RepetitionTime": 1000.0,
      "Rows": 936,
      "SAR": 0.07116466916526,
      "SamplesPerPixel": 1,
      "ScanOptions": "FS",
      "ScanningSequence": "EP",
      "SequenceName": "epfid2d1_104",
      "SequenceVariant": [
        "SK",
        "SS"
],
      "SeriesDescription": "cmrr_mbepi_s6_2mm_66sl_PA_task-prf",
      "SeriesNumber": 10,
      "SeriesTime": "123710.188000",
      "SliceLocation": -41.194108676066,
      "SliceThickness": 2.0,
      "SmallestImagePixelValue": 0,
      "SoftwareVersions": "syngo MR E11",
      "SpacingBetweenSlices": 1.9999999977799,
      "SpecificCharacterSet": "ISO_IR 100",
      "StudyID": "1",
      "StudyTime": "122909.541000",
      "TransmitCoilName": "Body",
      "VariableFlipAngleFlag": "N",
      "WindowCenterWidthExplanation": "Algo1",
      "dBdt": 0.0},
    "slices": {}
  },
  "time": {
    "samples": {
      "AcquisitionNumber": [1, 2, 3, 4, 5, 6, 7, 8, 9, 10, 11, 12, 13, 14, 15, 16, 17, 18, 19, 20, 21, 22, 23, 24, 25, 26, 27, 28, 29, 30, 31, 32, 33, 34, 35, 36, 37, 38, 39, 40, 41, 42, 43, 44, 45, 46, 47, 48, 49, 50, 51, 52, 53, 54, 55, 56, 57, 58, 59, 60, 61, 62, 63, 64, 65, 66, 67, 68, 69, 70, 71, 72, 73, 74, 75, 76, 77, 78, 79, 80, 81, 82, 83, 84, 85, 86, 87, 88, 89, 90, 91, 92, 93, 94, 95, 96, 97, 98, 99, 100, 101, 102, 103, 104, 105, 106, 107, 108, 109, 110, 111, 112, 113, 114, 115, 116, 117, 118, 119, 120, 121, 122, 123, 124, 125, 126, 127, 128, 129, 130, 131, 132, 133, 134, 135, 136, 137, 138, 139, 140, 141, 142, 143, 144, 145, 146, 147, 148, 149, 150, 151, 152, 153, 154, 155, 156, 157, 158, 159, 160, 161, 162, 163, 164, 165, 166, 167, 168, 169, 170, 171, 172, 173, 174, 175, 176, 177, 178, 179, 180, 181, 182, 183, 184, 185, 186, 187, 188, 189, 190, 191, 192],
      "AcquisitionTime": ["123549.447500", "123550.447500", "123551.447500", "123552.447500", "123553.447500", "123554.447500", "123555.447500", "123556.447500", "123557.447500", "123558.447500", "123559.447500", "123600.447500", "123601.447500", "123602.447500", "123603.447500", "123604.447500", "123605.447500", "123606.447500", "123607.447500", "123608.447500", "123609.447500", "123610.447500", "123611.447500", "123612.447500", "123613.447500", "123614.447500", "123615.447500", "123616.447500", "123617.447500", "123618.447500", "123619.447500", "123620.447500", "123621.447500", "123622.447500", "123623.447500", "123624.447500", "123625.447500", "123626.447500", "123627.447500", "123628.447500", "123629.447500", "123630.447500", "123631.447500", "123632.447500", "123633.447500", "123634.447500", "123635.447500", "123636.447500", "123637.447500", "123638.447500", "123639.447500", "123640.447500", "123641.447500", "123642.447500", "123643.447500", "123644.447500", "123645.447500", "123646.447500", "123647.447500", "123648.447500", "123649.447500", "123650.447500", "123651.447500", "123652.447500", "123653.447500", "123654.447500", "123655.447500", "123656.447500", "123657.447500", "123658.447500", "123659.447500", "123700.447500", "123701.447500", "123702.447500", "123703.447500", "123704.447500", "123705.447500", "123706.447500", "123707.447500", "123708.447500", "123709.447500", "123710.447500", "123711.447500", "123712.447500", "123713.447500", "123714.447500", "123715.447500", "123716.447500", "123717.447500", "123718.447500", "123719.447500", "123720.447500", "123721.447500", "123722.447500", "123723.447500", "123724.447500", "123725.447500", "123726.447500", "123727.447500", "123728.447500", "123729.447500", "123730.447500", "123731.447500", "123732.447500", "123733.447500", "123734.447500", "123735.447500", "123736.447500", "123737.447500", "123738.447500", "123739.447500", "123740.447500", "123741.447500", "123742.447500", "123743.447500", "123744.447500", "123745.447500", "123746.447500", "123747.447500", "123748.447500", "123749.447500", "123750.447500", "123751.447500", "123752.447500", "123753.447500", "123754.447500", "123755.447500", "123756.447500", "123757.447500", "123758.447500", "123759.447500", "123800.447500", "123801.447500", "123802.447500", "123803.447500", "123804.447500", "123805.447500", "123806.447500", "123807.447500", "123808.447500", "123809.447500", "123810.447500", "123811.447500", "123812.447500", "123813.447500", "123814.447500", "123815.447500", "123816.447500", "123817.447500", "123818.447500", "123819.447500", "123820.447500", "123821.447500", "123822.447500", "123823.447500", "123824.447500", "123825.447500", "123826.447500", "123827.447500", "123828.447500", "123829.447500", "123830.447500", "123831.447500", "123832.447500", "123833.447500", "123834.447500", "123835.447500", "123836.447500", "123837.447500", "123838.447500", "123839.447500", "123840.447500", "123841.447500", "123842.447500", "123843.447500", "123844.447500", "123845.447500", "123846.447500", "123847.447500", "123848.447500", "123849.447500", "123850.447500", "123851.447500", "123852.447500", "123853.447500", "123854.447500", "123855.447500", "123856.447500", "123857.447500", "123858.447500", "123859.447500", "123900.447500"],
      "ContentTime": ["123710.191000", "123710.195000", "123710.198000", "123710.201000", "123710.204000", "123710.207000", "123710.210000", "123710.213000", "123710.216000", "123710.218000", "123710.221000", "123710.225000", "123710.233000", "123710.236000", "123710.239000", "123710.242000", "123710.245000", "123710.248000", "123710.251000", "123710.254000", "123710.257000", "123710.260000", "123710.263000", "123710.266000", "123710.269000", "123710.272000", "123710.275000", "123710.278000", "123710.281000", "123710.284000", "123710.287000", "123710.290000", "123710.293000", "123710.296000", "123710.299000", "123710.302000", "123710.305000", "123710.308000", "123710.311000", "123710.314000", "123710.317000", "123710.320000", "123710.323000", "123730.152000", "123730.155000", "123730.158000", "123730.161000", "123730.164000", "123730.167000", "123730.170000", "123730.173000", "123730.176000", "123730.179000", "123730.182000", "123730.185000", "123730.187000", "123730.190000", "123730.193000", "123730.196000", "123730.199000", "123730.202000", "123730.209000", "123730.212000", "123730.215000", "123730.218000", "123730.221000", "123730.224000", "123730.227000", "123730.230000", "123730.233000", "123730.236000", "123730.239000", "123750.152000", "123750.176000", "123750.179000", "123750.182000", "123750.185000", "123750.188000", "123750.191000", "123750.194000", "123750.197000", "123750.200000", "123750.203000", "123750.206000", "123750.209000", "123750.212000", "123750.215000", "123750.218000", "123750.220000", "123750.223000", "123750.226000", "123750.229000", "123750.232000", "123750.235000", "123750.238000", "123750.241000", "123750.244000", "123750.247000", "123750.250000", "123750.253000", "123810.152000", "123810.155000", "123810.158000", "123810.161000", "123810.164000", "123810.167000", "123810.170000", "123810.173000", "123810.176000", "123810.179000", "123810.182000", "123810.185000", "123810.188000", "123810.191000", "123810.194000", "123810.197000", "123810.200000", "123810.203000", "123810.206000", "123810.209000", "123810.212000", "123810.215000", "123810.217000", "123810.220000", "123810.223000", "123810.226000", "123810.229000", "123810.232000", "123830.152000", "123830.155000", "123830.158000", "123830.161000", "123830.164000", "123830.167000", "123830.170000", "123830.173000", "123830.176000", "123830.179000", "123830.182000", "123830.185000", "123830.188000", "123830.191000", "123830.194000", "123830.196000", "123830.199000", "123830.202000", "123830.205000", "123830.208000", "123830.211000", "123830.221000", "123830.224000", "123830.227000", "123830.230000", "123830.233000", "123830.236000", "123830.238000", "123830.241000", "123850.151000", "123850.154000", "123850.157000", "123850.160000", "123850.163000", "123850.166000", "123850.169000", "123850.172000", "123850.175000", "123850.178000", "123850.181000", "123850.184000", "123850.187000", "123850.190000", "123850.193000", "123850.196000", "123850.199000", "123850.202000", "123850.205000", "123850.208000", "123850.211000", "123850.214000", "123850.217000", "123902.080000", "123902.083000", "123902.086000", "123902.089000", "123902.092000", "123902.095000", "123902.098000", "123902.101000", "123902.104000", "123902.107000", "123902.110000", "123902.118000"],
      "InstanceCreationTime": ["123710.191000", "123710.195000", "123710.198000", "123710.201000", "123710.204000", "123710.207000", "123710.210000", "123710.213000", "123710.216000", "123710.218000", "123710.221000", "123710.225000", "123710.233000", "123710.236000", "123710.239000", "123710.242000", "123710.245000", "123710.248000", "123710.251000", "123710.254000", "123710.257000", "123710.260000", "123710.263000", "123710.266000", "123710.269000", "123710.272000", "123710.275000", "123710.278000", "123710.281000", "123710.284000", "123710.287000", "123710.290000", "123710.293000", "123710.296000", "123710.299000", "123710.302000", "123710.305000", "123710.308000", "123710.311000", "123710.314000", "123710.317000", "123710.320000", "123710.323000", "123730.152000", "123730.155000", "123730.158000", "123730.161000", "123730.164000", "123730.167000", "123730.170000", "123730.173000", "123730.176000", "123730.179000", "123730.182000", "123730.185000", "123730.187000", "123730.190000", "123730.193000", "123730.196000", "123730.199000", "123730.202000", "123730.209000", "123730.212000", "123730.215000", "123730.218000", "123730.221000", "123730.224000", "123730.227000", "123730.230000", "123730.233000", "123730.236000", "123730.239000", "123750.152000", "123750.176000", "123750.179000", "123750.182000", "123750.185000", "123750.188000", "123750.191000", "123750.194000", "123750.197000", "123750.200000", "123750.203000", "123750.206000", "123750.209000", "123750.212000", "123750.215000", "123750.218000", "123750.220000", "123750.223000", "123750.226000", "123750.229000", "123750.232000", "123750.235000", "123750.238000", "123750.241000", "123750.244000", "123750.247000", "123750.250000", "123750.253000", "123810.152000", "123810.155000", "123810.158000", "123810.161000", "123810.164000", "123810.167000", "123810.170000", "123810.173000", "123810.176000", "123810.179000", "123810.182000", "123810.185000", "123810.188000", "123810.191000", "123810.194000", "123810.197000", "123810.200000", "123810.203000", "123810.206000", "123810.209000", "123810.212000", "123810.215000", "123810.217000", "123810.220000", "123810.223000", "123810.226000", "123810.229000", "123810.232000", "123830.152000", "123830.155000", "123830.158000", "123830.161000", "123830.164000", "123830.167000", "123830.170000", "123830.173000", "123830.176000", "123830.179000", "123830.182000", "123830.185000", "123830.188000", "123830.191000", "123830.194000", "123830.196000", "123830.199000", "123830.202000", "123830.205000", "123830.208000", "123830.211000", "123830.221000", "123830.224000", "123830.227000", "123830.230000", "123830.233000", "123830.236000", "123830.238000", "123830.241000", "123850.151000", "123850.154000", "123850.157000", "123850.160000", "123850.163000", "123850.166000", "123850.169000", "123850.172000", "123850.175000", "123850.178000", "123850.181000", "123850.184000", "123850.187000", "123850.190000", "123850.193000", "123850.196000", "123850.199000", "123850.202000", "123850.205000", "123850.208000", "123850.211000", "123850.214000", "123850.217000", "123902.080000", "123902.083000", "123902.086000", "123902.089000", "123902.092000", "123902.095000", "123902.098000", "123902.101000", "123902.104000", "123902.107000", "123902.110000", "123902.118000"],
      "InstanceNumber": [1, 2, 3, 4, 5, 6, 7, 8, 9, 10, 11, 12, 13, 14, 15, 16, 17, 18, 19, 20, 21, 22, 23, 24, 25, 26, 27, 28, 29, 30, 31, 32, 33, 34, 35, 36, 37, 38, 39, 40, 41, 42, 43, 44, 45, 46, 47, 48, 49, 50, 51, 52, 53, 54, 55, 56, 57, 58, 59, 60, 61, 62, 63, 64, 65, 66, 67, 68, 69, 70, 71, 72, 73, 74, 75, 76, 77, 78, 79, 80, 81, 82, 83, 84, 85, 86, 87, 88, 89, 90, 91, 92, 93, 94, 95, 96, 97, 98, 99, 100, 101, 102, 103, 104, 105, 106, 107, 108, 109, 110, 111, 112, 113, 114, 115, 116, 117, 118, 119, 120, 121, 122, 123, 124, 125, 126, 127, 128, 129, 130, 131, 132, 133, 134, 135, 136, 137, 138, 139, 140, 141, 142, 143, 144, 145, 146, 147, 148, 149, 150, 151, 152, 153, 154, 155, 156, 157, 158, 159, 160, 161, 162, 163, 164, 165, 166, 167, 168, 169, 170, 171, 172, 173, 174, 175, 176, 177, 178, 179, 180, 181, 182, 183, 184, 185, 186, 187, 188, 189, 190, 191, 192],
      "LargestImagePixelValue": [38012, 36999, 35600, 35530, 35753, 35134, 35351, 35955, 35831, 35597, 35919, 35311, 35507, 35604, 35278, 35629, 35505, 35265, 34824, 35222, 34523, 35138, 35357, 35175, 35012, 35531, 35667, 35665, 35245, 35306, 35766, 35864, 35483, 35876, 35854, 35493, 35506, 35492, 35239, 35313, 35447, 35525, 35527, 35817, 35753, 35783, 35592, 35604, 35609, 35908, 35987, 35696, 36121, 36382, 35970, 36221, 36230, 36614, 36004, 35711, 35929, 36027, 35804, 35744, 35734, 35701, 35803, 35541, 34821, 35295, 35178, 34949, 35070, 34863, 35004, 34923, 35221, 35396, 35396, 35640, 36187, 35886, 35810, 35873, 35913, 35975, 36139, 36098, 36058, 36146, 35998, 36120, 36169, 35792, 35879, 35652, 36111, 35877, 36374, 36346, 36317, 36338, 36553, 36317, 36340, 35980, 36409, 36164, 36371, 36374, 36085, 36096, 35709, 35686, 36220, 36472, 36548, 36414, 35895, 36212, 36518, 36023, 35741, 35562, 35535, 35584, 35679, 35801, 36030, 35900, 36047, 35754, 35518, 35818, 35477, 35418, 35568, 35750, 36444, 36284, 36008, 36355, 36026, 35525, 34897, 35037, 34813, 35046, 35263, 35787, 35836, 35921, 35836, 35478, 35908, 35685, 35679, 35827, 36177, 36043, 35779, 36068, 36011, 36072, 35879, 36208, 36205, 35906, 36191, 35903, 36203, 36123, 35889, 35704, 36124, 36397, 35888, 36187, 36031, 36187, 36075, 35958, 36123, 36077, 36258, 36097, 36184, 36061, 36146, 35945, 35737, 35878],
      "WindowCenter": [9979.0, 9953.0, 9877.0, 9866.0, 9872.0, 9878.0, 9886.0, 9890.0, 9881.0, 9882.0, 9889.0, 9888.0, 9907.0, 9915.0, 9911.0, 9922.0, 9931.0, 9942.0, 9946.0, 9941.0, 9921.0, 9913.0, 9903.0, 9886.0, 9880.0, 9891.0, 9885.0, 9901.0, 9896.0, 9895.0, 9912.0, 9908.0, 9906.0, 9914.0, 9917.0, 9919.0, 9925.0, 9927.0, 9921.0, 9926.0, 9927.0, 9925.0, 9924.0, 9917.0, 9909.0, 9909.0, 9909.0, 9903.0, 9886.0, 9885.0, 9891.0, 9891.0, 9902.0, 9909.0, 9893.0, 9905.0, 9900.0, 9903.0, 9912.0, 9908.0, 9915.0, 9929.0, 9924.0, 9930.0, 9924.0, 9923.0, 9915.0, 9909.0, 9905.0, 9903.0, 9904.0, 9907.0, 9912.0, 9914.0, 9909.0, 9905.0, 9903.0, 9902.0, 9900.0, 9894.0, 9906.0, 9907.0, 9906.0, 9907.0, 9908.0, 9898.0, 9904.0, 9902.0, 9902.0, 9904.0, 9907.0, 9914.0, 9913.0, 9917.0, 9924.0, 9925.0, 9915.0, 9908.0, 9903.0, 9896.0, 9882.0, 9885.0, 9886.0, 9887.0, 9894.0, 9890.0, 9902.0, 9904.0, 9909.0, 9911.0, 9920.0, 9920.0, 9909.0, 9914.0, 9914.0, 9912.0, 9910.0, 9909.0, 9890.0, 9887.0, 9895.0, 9905.0, 9909.0, 9917.0, 9912.0, 9910.0, 9908.0, 9898.0, 9890.0, 9890.0, 9897.0, 9912.0, 9924.0, 9925.0, 9917.0, 9916.0, 9904.0, 9898.0, 9903.0, 9895.0, 9886.0, 9897.0, 9907.0, 9912.0, 9913.0, 9915.0, 9909.0, 9906.0, 9906.0, 9907.0, 9908.0, 9897.0, 9897.0, 9892.0, 9892.0, 9892.0, 9892.0, 9899.0, 9912.0, 9906.0, 9912.0, 9920.0, 9909.0, 9905.0, 9899.0, 9905.0, 9894.0, 9900.0, 9907.0, 9901.0, 9906.0, 9899.0, 9899.0, 9908.0, 9901.0, 9899.0, 9899.0, 9899.0, 9898.0, 9905.0, 9906.0, 9898.0, 9899.0, 9897.0, 9890.0, 9897.0, 9898.0, 9897.0, 9899.0, 9902.0, 9902.0, 9902.0],
      "WindowWidth": [21453.0, 21374.0, 21183.0, 21137.0, 21143.0, 21163.0, 21184.0, 21190.0, 21169.0, 21170.0, 21188.0, 21191.0, 21234.0, 21249.0, 21245.0, 21271.0, 21289.0, 21317.0, 21329.0, 21318.0, 21270.0, 21247.0, 21223.0, 21180.0, 21170.0, 21193.0, 21180.0, 21217.0, 21211.0, 21206.0, 21240.0, 21235.0, 21229.0, 21246.0, 21257.0, 21262.0, 21276.0, 21283.0, 21269.0, 21280.0, 21280.0, 21270.0, 21268.0, 21252.0, 21233.0, 21235.0, 21236.0, 21224.0, 21182.0, 21181.0, 21193.0, 21191.0, 21212.0, 21229.0, 21198.0, 21222.0, 21213.0, 21217.0, 21237.0, 21234.0, 21248.0, 21280.0, 21273.0, 21284.0, 21272.0, 21266.0, 21247.0, 21234.0, 21231.0, 21222.0, 21229.0, 21241.0, 21247.0, 21252.0, 21243.0, 21228.0, 21221.0, 21220.0, 21211.0, 21200.0, 21225.0, 21227.0, 21225.0, 21228.0, 21232.0, 21207.0, 21217.0, 21213.0, 21213.0, 21220.0, 21229.0, 21242.0, 21240.0, 21251.0, 21267.0, 21267.0, 21245.0, 21228.0, 21213.0, 21196.0, 21164.0, 21170.0, 21176.0, 21179.0, 21191.0, 21188.0, 21212.0, 21217.0, 21229.0, 21232.0, 21257.0, 21256.0, 21233.0, 21242.0, 21240.0, 21232.0, 21228.0, 21225.0, 21186.0, 21177.0, 21197.0, 21223.0, 21235.0, 21252.0, 21242.0, 21236.0, 21227.0, 21202.0, 21182.0, 21182.0, 21201.0, 21234.0, 21266.0, 21269.0, 21252.0, 21247.0, 21222.0, 21204.0, 21211.0, 21196.0, 21179.0, 21201.0, 21227.0, 21245.0, 21247.0, 21253.0, 21245.0, 21227.0, 21228.0, 21225.0, 21230.0, 21200.0, 21199.0, 21193.0, 21190.0, 21189.0, 21192.0, 21205.0, 21234.0, 21223.0, 21236.0, 21251.0, 21232.0, 21218.0, 21206.0, 21222.0, 21199.0, 21210.0, 21225.0, 21213.0, 21221.0, 21207.0, 21208.0, 21229.0, 21215.0, 21206.0, 21206.0, 21208.0, 21202.0, 21217.0, 21225.0, 21205.0, 21206.0, 21201.0, 21187.0, 21200.0, 21202.0, 21201.0, 21206.0, 21217.0, 21217.0, 21216.0]
    },
    "slices": {}
  },
  "NumberOfVolumes": 192
}