{
  "AcquisitionMatrixPE": 104,
  "AcquisitionNumber": 1,
  "AcquisitionTime": "16:45:16.842500",
  "BandwidthPerPixelPhaseEncode": 16.297,
  "BaseResolution": 104,
  "BodyPartExamined": "BRAIN",
  "ConsistencyInfo": "N4_VE11C_LATEST_20160120",
  "ConversionSoftware": "dcm2niix",
  "ConversionSoftwareVersion": "v1.0.20210317",
  "DerivedVendorReportedEchoSpacing": 0.000590009,
  "DeviceSerialNumber": "166018",
  "DwellTime": 2.1e-06,
  "EchoTime": 0.0376,
  "EchoTrainLength": 104,
  "EffectiveEchoSpacing": 0.000590009,
  "FlipAngle": 68,
  "ImageComments": "Unaliased MB6/PE3/LB",
  "ImageOrientationPatientDICOM": [0.995433, 0.0954603, 0.00114202, -0.0940961, 0.983086, -0.157122],
  "ImageType": [
    "ORIGINAL",
    "PRIMARY",
    "M",
    "MB",
    "ND",
    "MOSAIC"
],
  "ImagingFrequency": 123.197,
  "InPlanePhaseEncodingDirectionDICOM": "COL",
  "InstitutionAddress": "Washington Place 6,NYC,NYC,US,10003",
  "InstitutionName": "NYU - CBI",
  "InstitutionalDepartmentName": "Department",
  "MRAcquisitionType": "2D",
  "MagneticFieldStrength": 3,
  "Manufacturer": "Siemens",
  "ManufacturersModelName": "Prisma",
  "Modality": "MR",
  "MultibandAccelerationFactor": 6,
  "PartialFourier": 1,
  "PatientPosition": "HFS",
  "PercentPhaseFOV": 100,
  "PercentSampling": 100,
  "PhaseEncodingDirection": "j",
  "PhaseEncodingSteps": 104,
  "PhaseResolution": 1,
  "PixelBandwidth": 2290,
  "ProcedureStepDescription": "Investigators^Winawer",
  "ProtocolName": "cmrr_mbepi_s6_2mm_66sl_PA_task-wedgering3",
  "PulseSequenceDetails": "%CustomerSeq%\\cmrr_mbep2d_bold",
  "ReceiveCoilActiveElements": "HC1-7",
  "ReceiveCoilName": "HeadNeck_64",
  "ReconMatrixPE": 104,
  "RepetitionTime": 1,
  "SAR": 0.0980414,
  "ScanOptions": "FS",
  "ScanningSequence": "EP",
  "SequenceName": "epfid2d1_104",
  "SequenceVariant": "SK\\SS",
  "SeriesDescription": "cmrr_mbepi_s6_2mm_66sl_PA_task-wedgering3",
  "SeriesNumber": 18,
  "ShimSetting": [325, -12623, -8419, 341, 82, -188, -22, 57],
  "SliceThickness": 2,
  "SliceTiming": [0, 0.535, 0.09, 0.625, 0.1775, 0.7125, 0.2675, 0.8025, 0.3575, 0.89, 0.445, 0, 0.535, 0.09, 0.625, 0.1775, 0.7125, 0.2675, 0.8025, 0.3575, 0.89, 0.445, 0, 0.535, 0.09, 0.625, 0.1775, 0.7125, 0.2675, 0.8025, 0.3575, 0.89, 0.445, 0, 0.535, 0.09, 0.625, 0.1775, 0.7125, 0.2675, 0.8025, 0.3575, 0.89, 0.445, 0, 0.535, 0.09, 0.625, 0.1775, 0.7125, 0.2675, 0.8025, 0.3575, 0.89, 0.445, 0, 0.535, 0.09, 0.625, 0.1775, 0.7125, 0.2675, 0.8025, 0.3575, 0.89, 0.445],
  "SoftwareVersions": "syngo MR E11",
  "SpacingBetweenSlices": 2,
  "StationName": "AWP166018",
  "TaskName": "wedgering3",
  "TotalReadoutTime": 0.060771,
  "TxRefAmp": 250.654,
  "VendorReportedEchoSpacing": 0.00059,
  "WipMemBlock": "c8ac5491-dc94-4364-aee6-29a9354e7d3d||Sequence: R016 ve11c/master r/8780670; Nov 27 2017 15:05:12 by eja",
  "dcmmeta_affine": [
    [-1.9908651113510132, -0.18819214403629303, 0.03224321827292442, 115.54850769042969],
    [-0.1909206360578537, 1.9661725759506226, -0.31259363889694214, -63.16032791137695],
    [0.0022840318270027637, 0.3142438530921936, 1.9751570224761963, -48.55057907104492],
    [0.0, 0.0, 0.0, 1.0]
],
  "dcmmeta_reorient_transform": [
    [0.0, -1.0, 0.0, 103.0],
    [1.0, 0.0, 0.0, 0.0],
    [0.0, 0.0, 1.0, 0.0],
    [0.0, 0.0, 0.0, 1.0]
],
  "dcmmeta_shape": [104, 104, 66, 300],
  "dcmmeta_slice_dim": 2,
  "dcmmeta_version": 0.6,
  "global": {
    "const": {
      "AccessionNumber": "Leq8op5o",
      "AcquisitionMatrix": [104, 0, 0, 104],
      "AngioFlag": "N",
      "BitsAllocated": 16,
      "BitsStored": 16,
      "BodyPartExamined": "BRAIN",
      "Columns": 936,
      "EchoNumbers": 1,
      "EchoTime": 37.6,
      "EchoTrainLength": 104,
      "FlipAngle": 68.0,
      "HighBit": 15,
      "ImageOrientationPatient": [0.99543258116613, 0.09546031716118, 0.00114201594585, -0.0940960683812, 0.98308627875645, -0.1571219222006],
      "ImagePositionPatient": [-846.07669379734, -1036.7062135103, 113.59181963479],
      "ImageType": [
        "ORIGINAL",
        "PRIMARY",
        "M",
        "MB",
        "ND",
        "MOSAIC"
],
      "ImagedNucleus": "1H",
      "ImagingFrequency": 123.196775,
      "InPlanePhaseEncodingDirection": "COL",
      "MRAcquisitionType": "2D",
      "MagneticFieldStrength": 3.0,
      "Manufacturer": "SIEMENS",
      "ManufacturerModelName": "Prisma",
      "Modality": "MR",
      "NumberOfAverages": 1.0,
      "NumberOfPhaseEncodingSteps": 104,
      "PercentPhaseFieldOfView": 100.0,
      "PercentSampling": 100.0,
      "PerformedProcedureStepStartTime": "155918.156000",
      "PhotometricInterpretation": "MONOCHROME2",
      "PixelBandwidth": 2290.0,
      "PixelRepresentation": 0,
      "PixelSpacing": [2.0, 2.0],
      "ProtocolName": "cmrr_mbepi_s6_2mm_66sl_PA_task-wedgering3",
      "RepetitionTime": 1000.0,
      "Rows": 936,
      "SAR": 0.09804142123823,
      "SamplesPerPixel": 1,
      "ScanOptions": "FS",
      "ScanningSequence": "EP",
      "SequenceName": "epfid2d1_104",
      "SequenceVariant": [
        "SK",
        "SS"
],
      "SeriesDescription": "cmrr_mbepi_s6_2mm_66sl_PA_task-wedgering3",
      "SeriesNumber": 18,
      "SeriesTime": "164626.168000",
      "SliceLocation": -36.212923632949,
      "SliceThickness": 2.0,
      "SmallestImagePixelValue": 0,
      "SoftwareVersions": "syngo MR E11",
      "SpacingBetweenSlices": 1.9999999453159,
      "SpecificCharacterSet": "ISO_IR 100",
      "StudyID": "1",
      "StudyTime": "155918.089000",
      "TransmitCoilName": "Body",
      "VariableFlipAngleFlag": "N",
      "WindowCenterWidthExplanation": "Algo1",
      "dBdt": 0.0},
    "slices": {}
  },
  "time": {
    "samples": {
      "AcquisitionNumber": [1, 2, 3, 4, 5, 6, 7, 8, 9, 10, 11, 12, 13, 14, 15, 16, 17, 18, 19, 20, 21, 22, 23, 24, 25, 26, 27, 28, 29, 30, 31, 32, 33, 34, 35, 36, 37, 38, 39, 40, 41, 42, 43, 44, 45, 46, 47, 48, 49, 50, 51, 52, 53, 54, 55, 56, 57, 58, 59, 60, 61, 62, 63, 64, 65, 66, 67, 68, 69, 70, 71, 72, 73, 74, 75, 76, 77, 78, 79, 80, 81, 82, 83, 84, 85, 86, 87, 88, 89, 90, 91, 92, 93, 94, 95, 96, 97, 98, 99, 100, 101, 102, 103, 104, 105, 106, 107, 108, 109, 110, 111, 112, 113, 114, 115, 116, 117, 118, 119, 120, 121, 122, 123, 124, 125, 126, 127, 128, 129, 130, 131, 132, 133, 134, 135, 136, 137, 138, 139, 140, 141, 142, 143, 144, 145, 146, 147, 148, 149, 150, 151, 152, 153, 154, 155, 156, 157, 158, 159, 160, 161, 162, 163, 164, 165, 166, 167, 168, 169, 170, 171, 172, 173, 174, 175, 176, 177, 178, 179, 180, 181, 182, 183, 184, 185, 186, 187, 188, 189, 190, 191, 192, 193, 194, 195, 196, 197, 198, 199, 200, 201, 202, 203, 204, 205, 206, 207, 208, 209, 210, 211, 212, 213, 214, 215, 216, 217, 218, 219, 220, 221, 222, 223, 224, 225, 226, 227, 228, 229, 230, 231, 232, 233, 234, 235, 236, 237, 238, 239, 240, 241, 242, 243, 244, 245, 246, 247, 248, 249, 250, 251, 252, 253, 254, 255, 256, 257, 258, 259, 260, 261, 262, 263, 264, 265, 266, 267, 268, 269, 270, 271, 272, 273, 274, 275, 276, 277, 278, 279, 280, 281, 282, 283, 284, 285, 286, 287, 288, 289, 290, 291, 292, 293, 294, 295, 296, 297, 298, 299, 300],
      "AcquisitionTime": ["164516.842500", "164517.842500", "164518.842500", "164519.842500", "164520.842500", "164521.842500", "164522.842500", "164523.842500", "164524.842500", "164525.842500", "164526.842500", "164527.842500", "164528.842500", "164529.842500", "164530.842500", "164531.842500", "164532.842500", "164533.842500", "164534.842500", "164535.842500", "164536.842500", "164537.842500", "164538.842500", "164539.842500", "164540.842500", "164541.842500", "164542.842500", "164543.842500", "164544.842500", "164545.842500", "164546.842500", "164547.842500", "164548.842500", "164549.842500", "164550.842500", "164551.842500", "164552.842500", "164553.842500", "164554.842500", "164555.842500", "164556.842500", "164557.842500", "164558.842500", "164559.842500", "164600.842500", "164601.842500", "164602.842500", "164603.842500", "164604.842500", "164605.842500", "164606.842500", "164607.842500", "164608.842500", "164609.842500", "164610.842500", "164611.842500", "164612.842500", "164613.842500", "164614.842500", "164615.842500", "164616.842500", "164617.842500", "164618.842500", "164619.842500", "164620.842500", "164621.842500", "164622.842500", "164623.842500", "164624.842500", "164625.842500", "164626.842500", "164627.842500", "164628.842500", "164629.842500", "164630.842500", "164631.842500", "164632.842500", "164633.842500", "164634.842500", "164635.842500", "164636.842500", "164637.842500", "164638.842500", "164639.842500", "164640.842500", "164641.842500", "164642.842500", "164643.842500", "164644.842500", "164645.842500", "164646.842500", "164647.842500", "164648.842500", "164649.842500", "164650.842500", "164651.842500", "164652.842500", "164653.842500", "164654.842500", "164655.842500", "164656.842500", "164657.842500", "164658.842500", "164659.842500", "164700.842500", "164701.842500", "164702.842500", "164703.842500", "164704.842500", "164705.842500", "164706.842500", "164707.842500", "164708.842500", "164709.842500", "164710.842500", "164711.842500", "164712.842500", "164713.842500", "164714.842500", "164715.842500", "164716.842500", "164717.842500", "164718.842500", "164719.842500", "164720.842500", "164721.842500", "164722.842500", "164723.842500", "164724.842500", "164725.842500", "164726.842500", "164727.842500", "164728.842500", "164729.842500", "164730.842500", "164731.842500", "164732.842500", "164733.842500", "164734.842500", "164735.842500", "164736.842500", "164737.842500", "164738.842500", "164739.842500", "164740.842500", "164741.842500", "164742.842500", "164743.842500", "164744.842500", "164745.842500", "164746.842500", "164747.842500", "164748.842500", "164749.842500", "164750.842500", "164751.842500", "164752.842500", "164753.842500", "164754.842500", "164755.842500", "164756.842500", "164757.842500", "164758.842500", "164759.842500", "164800.842500", "164801.842500", "164802.842500", "164803.842500", "164804.842500", "164805.842500", "164806.842500", "164807.842500", "164808.842500", "164809.842500", "164810.842500", "164811.842500", "164812.842500", "164813.842500", "164814.842500", "164815.842500", "164816.842500", "164817.842500", "164818.842500", "164819.842500", "164820.842500", "164821.842500", "164822.842500", "164823.842500", "164824.842500", "164825.842500", "164826.842500", "164827.842500", "164828.842500", "164829.842500", "164830.842500", "164831.842500", "164832.842500", "164833.842500", "164834.842500", "164835.842500", "164836.842500", "164837.842500", "164838.842500", "164839.842500", "164840.842500", "164841.842500", "164842.842500", "164843.842500", "164844.842500", "164845.842500", "164846.842500", "164847.842500", "164848.842500", "164849.842500", "164850.842500", "164851.842500", "164852.842500", "164853.842500", "164854.842500", "164855.842500", "164856.842500", "164857.842500", "164858.842500", "164859.842500", "164900.842500", "164901.842500", "164902.842500", "164903.842500", "164904.842500", "164905.842500", "164906.842500", "164907.842500", "164908.842500", "164909.842500", "164910.842500", "164911.842500", "164912.842500", "164913.842500", "164914.842500", "164915.842500", "164916.842500", "164917.842500", "164918.842500", "164919.842500", "164920.842500", "164921.842500", "164922.842500", "164923.842500", "164924.842500", "164925.842500", "164926.842500", "164927.842500", "164928.842500", "164929.842500", "164930.842500", "164931.842500", "164932.842500", "164933.842500", "164934.842500", "164935.842500", "164936.842500", "164937.842500", "164938.842500", "164939.842500", "164940.842500", "164941.842500", "164942.842500", "164943.842500", "164944.842500", "164945.842500", "164946.842500", "164947.842500", "164948.842500", "164949.842500", "164950.842500", "164951.842500", "164952.842500", "164953.842500", "164954.842500", "164955.842500", "164956.842500", "164957.842500", "164958.842500", "164959.842500", "165000.842500", "165001.842500", "165002.842500", "165003.842500", "165004.842500", "165005.842500", "165006.842500", "165007.842500", "165008.842500", "165009.842500", "165010.842500", "165011.842500", "165012.842500", "165013.842500", "165014.842500", "165015.842500"],
      "ContentTime": ["164626.171000", "164626.175000", "164626.178000", "164626.181000", "164626.184000", "164626.187000", "164626.191000", "164626.194000", "164626.197000", "164626.200000", "164626.203000", "164626.206000", "164626.209000", "164626.212000", "164626.215000", "164626.218000", "164626.221000", "164626.224000", "164626.227000", "164626.230000", "164626.233000", "164626.236000", "164626.239000", "164626.242000", "164626.245000", "164626.248000", "164626.251000", "164626.254000", "164626.257000", "164646.131000", "164646.134000", "164646.137000", "164646.140000", "164646.143000", "164646.146000", "164646.149000", "164646.152000", "164646.155000", "164646.158000", "164646.161000", "164646.164000", "164646.167000", "164646.170000", "164646.173000", "164646.176000", "164646.179000", "164646.182000", "164646.185000", "164646.188000", "164646.193000", "164646.196000", "164646.199000", "164646.202000", "164646.205000", "164646.208000", "164646.211000", "164646.213000", "164706.131000", "164706.134000", "164706.137000", "164706.140000", "164706.143000", "164706.146000", "164706.149000", "164706.152000", "164706.155000", "164706.158000", "164706.161000", "164706.164000", "164706.167000", "164706.169000", "164706.173000", "164706.176000", "164706.179000", "164706.182000", "164706.185000", "164706.188000", "164706.192000", "164706.195000", "164706.198000", "164706.201000", "164706.204000", "164706.207000", "164706.210000", "164706.213000", "164726.130000", "164726.133000", "164726.136000", "164726.139000", "164726.142000", "164726.145000", "164726.148000", "164726.151000", "164726.154000", "164726.157000", "164726.160000", "164726.163000", "164726.166000", "164726.169000", "164726.172000", "164726.174000", "164726.178000", "164726.181000", "164726.184000", "164726.186000", "164726.191000", "164726.194000", "164726.197000", "164726.200000", "164726.205000", "164726.208000", "164726.211000", "164726.214000", "164746.130000", "164746.133000", "164746.136000", "164746.139000", "164746.142000", "164746.145000", "164746.148000", "164746.151000", "164746.154000", "164746.157000", "164746.160000", "164746.163000", "164746.175000", "164746.178000", "164746.181000", "164746.184000", "164746.187000", "164746.193000", "164746.195000", "164746.199000", "164746.202000", "164746.205000", "164746.208000", "164746.211000", "164746.213000", "164746.216000", "164746.219000", "164746.222000", "164806.130000", "164806.133000", "164806.136000", "164806.139000", "164806.142000", "164806.145000", "164806.148000", "164806.151000", "164806.154000", "164806.157000", "164806.160000", "164806.163000", "164806.166000", "164806.168000", "164806.178000", "164806.181000", "164806.184000", "164806.187000", "164806.191000", "164806.194000", "164806.197000", "164806.200000", "164806.203000", "164806.206000", "164806.209000", "164806.212000", "164806.215000", "164826.130000", "164826.150000", "164826.153000", "164826.156000", "164826.159000", "164826.162000", "164826.165000", "164826.168000", "164826.171000", "164826.174000", "164826.177000", "164826.180000", "164826.183000", "164826.186000", "164826.191000", "164826.194000", "164826.197000", "164826.200000", "164826.203000", "164826.206000", "164846.130000", "164846.133000", "164846.136000", "164846.139000", "164846.142000", "164846.145000", "164846.148000", "164846.151000", "164846.154000", "164846.157000", "164846.160000", "164846.163000", "164846.166000", "164846.169000", "164846.172000", "164846.175000", "164846.178000", "164846.181000", "164846.184000", "164846.188000", "164906.131000", "164906.134000", "164906.137000", "164906.140000", "164906.143000", "164906.146000", "164906.149000", "164906.152000", "164906.155000", "164906.158000", "164906.161000", "164906.164000", "164906.167000", "164906.170000", "164906.173000", "164906.176000", "164906.179000", "164906.182000", "164906.185000", "164906.189000", "164926.131000", "164926.134000", "164926.137000", "164926.140000", "164926.143000", "164926.146000", "164926.149000", "164926.152000", "164926.155000", "164926.158000", "164926.161000", "164926.164000", "164926.167000", "164926.170000", "164926.173000", "164926.176000", "164926.179000", "164926.182000", "164926.185000", "164926.189000", "164946.130000", "164946.133000", "164946.136000", "164946.139000", "164946.142000", "164946.145000", "164946.148000", "164946.151000", "164946.154000", "164946.157000", "164946.160000", "164946.163000", "164946.166000", "164946.169000", "164946.172000", "164946.175000", "164946.178000", "164946.181000", "164946.184000", "164946.188000", "165006.130000", "165006.133000", "165006.136000", "165006.139000", "165006.142000", "165006.145000", "165006.148000", "165006.151000", "165006.154000", "165006.157000", "165006.160000", "165006.163000", "165006.166000", "165006.169000", "165006.172000", "165006.175000", "165006.178000", "165006.181000", "165006.184000", "165006.188000", "165017.381000", "165017.385000", "165017.388000", "165017.391000", "165017.394000", "165017.397000", "165017.400000", "165017.403000", "165017.406000", "165017.409000", "165017.412000", "165017.415000"],
      "InstanceCreationTime": ["164626.171000", "164626.175000", "164626.178000", "164626.181000", "164626.184000", "164626.187000", "164626.191000", "164626.194000", "164626.197000", "164626.200000", "164626.203000", "164626.206000", "164626.209000", "164626.212000", "164626.215000", "164626.218000", "164626.221000", "164626.224000", "164626.227000", "164626.230000", "164626.233000", "164626.236000", "164626.239000", "164626.242000", "164626.245000", "164626.248000", "164626.251000", "164626.254000", "164626.257000", "164646.131000", "164646.134000", "164646.137000", "164646.140000", "164646.143000", "164646.146000", "164646.149000", "164646.152000", "164646.155000", "164646.158000", "164646.161000", "164646.164000", "164646.167000", "164646.170000", "164646.173000", "164646.176000", "164646.179000", "164646.182000", "164646.185000", "164646.188000", "164646.193000", "164646.196000", "164646.199000", "164646.202000", "164646.205000", "164646.208000", "164646.211000", "164646.213000", "164706.131000", "164706.134000", "164706.137000", "164706.140000", "164706.143000", "164706.146000", "164706.149000", "164706.152000", "164706.155000", "164706.158000", "164706.161000", "164706.164000", "164706.167000", "164706.169000", "164706.173000", "164706.176000", "164706.179000", "164706.182000", "164706.185000", "164706.188000", "164706.192000", "164706.195000", "164706.198000", "164706.201000", "164706.204000", "164706.207000", "164706.210000", "164706.213000", "164726.130000", "164726.133000", "164726.136000", "164726.139000", "164726.142000", "164726.145000", "164726.148000", "164726.151000", "164726.154000", "164726.157000", "164726.160000", "164726.163000", "164726.166000", "164726.169000", "164726.172000", "164726.174000", "164726.178000", "164726.181000", "164726.184000", "164726.186000", "164726.191000", "164726.194000", "164726.197000", "164726.200000", "164726.205000", "164726.208000", "164726.211000", "164726.214000", "164746.130000", "164746.133000", "164746.136000", "164746.139000", "164746.142000", "164746.145000", "164746.148000", "164746.151000", "164746.154000", "164746.157000", "164746.160000", "164746.163000", "164746.175000", "164746.178000", "164746.181000", "164746.184000", "164746.187000", "164746.193000", "164746.195000", "164746.199000", "164746.202000", "164746.205000", "164746.208000", "164746.211000", "164746.213000", "164746.216000", "164746.219000", "164746.222000", "164806.130000", "164806.133000", "164806.136000", "164806.139000", "164806.142000", "164806.145000", "164806.148000", "164806.151000", "164806.154000", "164806.157000", "164806.160000", "164806.163000", "164806.166000", "164806.168000", "164806.178000", "164806.181000", "164806.184000", "164806.187000", "164806.191000", "164806.194000", "164806.197000", "164806.200000", "164806.203000", "164806.206000", "164806.209000", "164806.212000", "164806.215000", "164826.130000", "164826.150000", "164826.153000", "164826.156000", "164826.159000", "164826.162000", "164826.165000", "164826.168000", "164826.171000", "164826.174000", "164826.177000", "164826.180000", "164826.183000", "164826.186000", "164826.191000", "164826.194000", "164826.197000", "164826.200000", "164826.203000", "164826.206000", "164846.130000", "164846.133000", "164846.136000", "164846.139000", "164846.142000", "164846.145000", "164846.148000", "164846.151000", "164846.154000", "164846.157000", "164846.160000", "164846.163000", "164846.166000", "164846.169000", "164846.172000", "164846.175000", "164846.178000", "164846.181000", "164846.184000", "164846.188000", "164906.131000", "164906.134000", "164906.137000", "164906.140000", "164906.143000", "164906.146000", "164906.149000", "164906.152000", "164906.155000", "164906.158000", "164906.161000", "164906.164000", "164906.167000", "164906.170000", "164906.173000", "164906.176000", "164906.179000", "164906.182000", "164906.185000", "164906.189000", "164926.131000", "164926.134000", "164926.137000", "164926.140000", "164926.143000", "164926.146000", "164926.149000", "164926.152000", "164926.155000", "164926.158000", "164926.161000", "164926.164000", "164926.167000", "164926.170000", "164926.173000", "164926.176000", "164926.179000", "164926.182000", "164926.185000", "164926.189000", "164946.130000", "164946.133000", "164946.136000", "164946.139000", "164946.142000", "164946.145000", "164946.148000", "164946.151000", "164946.154000", "164946.157000", "164946.160000", "164946.163000", "164946.166000", "164946.169000", "164946.172000", "164946.175000", "164946.178000", "164946.181000", "164946.184000", "164946.188000", "165006.130000", "165006.133000", "165006.136000", "165006.139000", "165006.142000", "165006.145000", "165006.148000", "165006.151000", "165006.154000", "165006.157000", "165006.160000", "165006.163000", "165006.166000", "165006.169000", "165006.172000", "165006.175000", "165006.178000", "165006.181000", "165006.184000", "165006.188000", "165017.381000", "165017.385000", "165017.388000", "165017.391000", "165017.394000", "165017.397000", "165017.400000", "165017.403000", "165017.406000", "165017.409000", "165017.412000", "165017.415000"],
      "InstanceNumber": [1, 2, 3, 4, 5, 6, 7, 8, 9, 10, 11, 12, 13, 14, 15, 16, 17, 18, 19, 20, 21, 22, 23, 24, 25, 26, 27, 28, 29, 30, 31, 32, 33, 34, 35, 36, 37, 38, 39, 40, 41, 42, 43, 44, 45, 46, 47, 48, 49, 50, 51, 52, 53, 54, 55, 56, 57, 58, 59, 60, 61, 62, 63, 64, 65, 66, 67, 68, 69, 70, 71, 72, 73, 74, 75, 76, 77, 78, 79, 80, 81, 82, 83, 84, 85, 86, 87, 88, 89, 90, 91, 92, 93, 94, 95, 96, 97, 98, 99, 100, 101, 102, 103, 104, 105, 106, 107, 108, 109, 110, 111, 112, 113, 114, 115, 116, 117, 118, 119, 120, 121, 122, 123, 124, 125, 126, 127, 128, 129, 130, 131, 132, 133, 134, 135, 136, 137, 138, 139, 140, 141, 142, 143, 144, 145, 146, 147, 148, 149, 150, 151, 152, 153, 154, 155, 156, 157, 158, 159, 160, 161, 162, 163, 164, 165, 166, 167, 168, 169, 170, 171, 172, 173, 174, 175, 176, 177, 178, 179, 180, 181, 182, 183, 184, 185, 186, 187, 188, 189, 190, 191, 192, 193, 194, 195, 196, 197, 198, 199, 200, 201, 202, 203, 204, 205, 206, 207, 208, 209, 210, 211, 212, 213, 214, 215, 216, 217, 218, 219, 220, 221, 222, 223, 224, 225, 226, 227, 228, 229, 230, 231, 232, 233, 234, 235, 236, 237, 238, 239, 240, 241, 242, 243, 244, 245, 246, 247, 248, 249, 250, 251, 252, 253, 254, 255, 256, 257, 258, 259, 260, 261, 262, 263, 264, 265, 266, 267, 268, 269, 270, 271, 272, 273, 274, 275, 276, 277, 278, 279, 280, 281, 282, 283, 284, 285, 286, 287, 288, 289, 290, 291, 292, 293, 294, 295, 296, 297, 298, 299, 300],
      "LargestImagePixelValue": [46376, 45007, 43957, 43440, 43531, 43192, 42485, 42704, 42179, 42413, 42737, 42421, 41943, 42519, 42070, 42180, 42614, 42760, 42322, 42486, 42800, 42308, 42758, 42996, 43140, 42490, 42527, 42507, 41995, 42338, 42437, 42174, 42576, 41896, 42740, 43057, 42506, 42672, 42682, 42297, 42588, 42750, 42665, 42779, 42587, 42674, 43078, 42891, 42419, 43340, 42021, 42144, 42066, 42661, 41851, 42615, 42086, 42857, 42570, 42583, 42797, 41974, 42277, 42229, 41788, 42565, 42182, 42107, 42229, 42198, 42153, 42390, 42479, 41992, 42036, 41938, 42487, 42596, 42243, 42831, 42223, 42090, 42192, 42129, 42146, 41897, 42052, 42369, 42230, 42408, 42327, 42078, 42602, 42441, 42317, 42752, 42565, 42931, 42446, 42556, 42675, 42216, 42742, 42376, 42830, 42808, 41656, 42380, 42640, 42519, 42179, 42244, 42536, 42329, 42190, 42023, 42577, 41991, 42001, 42488, 41874, 43064, 42296, 42408, 42515, 42039, 42426, 42669, 42200, 42568, 42031, 42187, 42211, 42073, 42019, 41666, 42433, 42822, 42789, 42970, 42864, 42318, 42865, 41947, 42223, 42185, 42499, 42984, 42790, 42969, 42934, 42897, 42630, 42952, 42928, 43318, 43022, 43123, 43183, 43457, 43252, 42217, 42934, 43271, 43284, 42742, 43107, 43307, 42803, 42958, 42949, 42684, 42965, 42541, 43457, 42827, 42952, 42603, 42723, 42886, 42974, 42626, 42484, 42931, 42445, 42753, 42964, 42464, 42686, 43021, 42810, 43027, 42727, 43174, 42986, 43538, 43352, 43187, 43163, 43531, 43232, 43396, 42917, 42329, 42523, 42409, 42531, 42707, 42848, 42539, 42895, 42713, 42893, 42787, 42833, 42716, 42496, 42584, 42066, 42479, 42168, 42236, 42854, 42382, 43070, 42815, 42390, 42921, 42691, 42857, 42937, 42701, 42789, 42802, 43181, 42959, 42788, 42353, 42610, 43131, 42699, 42714, 42734, 42842, 43270, 42498, 42674, 42634, 42528, 42558, 42477, 42922, 42709, 41909, 42820, 42917, 42907, 42533, 43124, 42570, 42918, 43267, 42551, 43110, 42935, 42465, 42965, 42319, 42384, 42566, 42667, 43129, 43280, 42670, 43176, 43162, 42358, 42910, 42963, 42842, 42618, 42981, 42669, 42712, 42816, 42793, 42689, 43172, 42815, 42974, 43168, 42797, 43148, 42870, 42628, 42918, 43050, 42924, 42575, 43052],
      "WindowCenter": [10254.0, 10213.0, 10185.0, 10175.0, 10188.0, 10173.0, 10166.0, 10161.0, 10148.0, 10153.0, 10151.0, 10152.0, 10155.0, 10153.0, 10156.0, 10156.0, 10152.0, 10173.0, 10165.0, 10168.0, 10174.0, 10161.0, 10159.0, 10162.0, 10155.0, 10151.0, 10150.0, 10151.0, 10155.0, 10152.0, 10152.0, 10153.0, 10150.0, 10146.0, 10163.0, 10168.0, 10165.0, 10166.0, 10178.0, 10175.0, 10180.0, 10188.0, 10188.0, 10187.0, 10188.0, 10188.0, 10186.0, 10182.0, 10174.0, 10172.0, 10157.0, 10169.0, 10162.0, 10167.0, 10147.0, 10142.0, 10128.0, 10127.0, 10121.0, 10122.0, 10133.0, 10131.0, 10136.0, 10139.0, 10129.0, 10139.0, 10142.0, 10150.0, 10159.0, 10170.0, 10167.0, 10160.0, 10157.0, 10145.0, 10150.0, 10153.0, 10173.0, 10183.0, 10188.0, 10200.0, 10191.0, 10176.0, 10167.0, 10157.0, 10146.0, 10137.0, 10135.0, 10142.0, 10149.0, 10154.0, 10157.0, 10150.0, 10155.0, 10163.0, 10143.0, 10155.0, 10155.0, 10155.0, 10165.0, 10164.0, 10172.0, 10174.0, 10172.0, 10166.0, 10162.0, 10156.0, 10147.0, 10142.0, 10140.0, 10153.0, 10142.0, 10151.0, 10156.0, 10158.0, 10175.0, 10176.0, 10184.0, 10174.0, 10163.0, 10165.0, 10154.0, 10169.0, 10168.0, 10166.0, 10160.0, 10148.0, 10142.0, 10141.0, 10128.0, 10136.0, 10125.0, 10124.0, 10147.0, 10160.0, 10169.0, 10155.0, 10147.0, 10139.0, 10131.0, 10122.0, 10121.0, 10116.0, 10121.0, 10110.0, 10113.0, 10120.0, 10121.0, 10124.0, 10136.0, 10153.0, 10179.0, 10191.0, 10182.0, 10186.0, 10178.0, 10173.0, 10171.0, 10162.0, 10161.0, 10178.0, 10188.0, 10203.0, 10209.0, 10218.0, 10216.0, 10218.0, 10210.0, 10200.0, 10185.0, 10160.0, 10161.0, 10155.0, 10171.0, 10195.0, 10208.0, 10199.0, 10214.0, 10209.0, 10210.0, 10209.0, 10206.0, 10208.0, 10188.0, 10182.0, 10168.0, 10149.0, 10148.0, 10146.0, 10140.0, 10154.0, 10152.0, 10154.0, 10156.0, 10149.0, 10158.0, 10170.0, 10177.0, 10181.0, 10188.0, 10204.0, 10208.0, 10208.0, 10201.0, 10181.0, 10162.0, 10161.0, 10163.0, 10166.0, 10173.0, 10164.0, 10163.0, 10157.0, 10170.0, 10178.0, 10172.0, 10173.0, 10173.0, 10179.0, 10176.0, 10182.0, 10182.0, 10176.0, 10187.0, 10193.0, 10203.0, 10193.0, 10182.0, 10175.0, 10168.0, 10158.0, 10150.0, 10149.0, 10149.0, 10163.0, 10171.0, 10173.0, 10168.0, 10153.0, 10157.0, 10162.0, 10158.0, 10165.0, 10166.0, 10163.0, 10169.0, 10167.0, 10174.0, 10178.0, 10169.0, 10168.0, 10166.0, 10165.0, 10172.0, 10155.0, 10170.0, 10163.0, 10170.0, 10173.0, 10177.0, 10168.0, 10157.0, 10162.0, 10155.0, 10152.0, 10155.0, 10148.0, 10148.0, 10150.0, 10150.0, 10164.0, 10166.0, 10170.0, 10180.0, 10184.0, 10188.0, 10183.0, 10165.0, 10157.0, 10156.0, 10149.0, 10151.0, 10160.0, 10161.0, 10163.0, 10163.0, 10161.0, 10152.0, 10148.0, 10150.0, 10149.0, 10156.0, 10170.0, 10172.0, 10180.0, 10171.0, 10168.0, 10173.0, 10177.0, 10178.0, 10191.0],
