{
  "AcquisitionMatrixPE": 104,
  "AcquisitionNumber": 1,
  "AcquisitionTime": "15:01:34.670000",
  "BandwidthPerPixelPhaseEncode": 16.297,
  "BaseResolution": 104,
  "BodyPartExamined": "BRAIN",
  "ConsistencyInfo": "N4_VE11C_LATEST_20160120",
  "ConversionSoftware": "dcm2niix",
  "ConversionSoftwareVersion": "v1.0.20210317",
  "DerivedVendorReportedEchoSpacing": 0.000590009,
  "DeviceSerialNumber": "166018",
  "DwellTime": 2.1e-06,
  "EchoTime": 0.0376,
  "EchoTrainLength": 104,
  "EffectiveEchoSpacing": 0.000590009,
  "FlipAngle": 68,
  "ImageComments": "Unaliased MB6/PE3/LB",
  "ImageOrientationPatientDICOM": [0.999402, 0.014989, -0.0311636, -0.0195384, 0.988305, -0.151236],
  "ImageType": [
    "ORIGINAL",
    "PRIMARY",
    "M",
    "MB",
    "ND",
    "MOSAIC"
],
  "ImagingFrequency": 123.197,
  "InPlanePhaseEncodingDirectionDICOM": "COL",
  "InstitutionAddress": "Washington Place 6,NYC,NYC,US,10003",
  "InstitutionName": "NYU - CBI",
  "InstitutionalDepartmentName": "Department",
  "MRAcquisitionType": "2D",
  "MagneticFieldStrength": 3,
  "Manufacturer": "Siemens",
  "ManufacturersModelName": "Prisma",
  "Modality": "MR",
  "MultibandAccelerationFactor": 6,
  "PartialFourier": 1,
  "PatientPosition": "HFS",
  "PercentPhaseFOV": 100,
  "PercentSampling": 100,
  "PhaseEncodingDirection": "j",
  "PhaseEncodingSteps": 104,
  "PhaseResolution": 1,
  "PixelBandwidth": 2290,
  "ProcedureStepDescription": "Investigators^Winawer",
  "ProtocolName": "cmrr_mbepi_s6_2mm_66sl_PA_task-wedgering3",
  "PulseSequenceDetails": "%CustomerSeq%\\cmrr_mbep2d_bold",
  "ReceiveCoilActiveElements": "HC1-7",
  "ReceiveCoilName": "HeadNeck_64",
  "ReconMatrixPE": 104,
  "RepetitionTime": 1,
  "SAR": 0.0806832,
  "ScanOptions": "FS",
  "ScanningSequence": "EP",
  "SequenceName": "epfid2d1_104",
  "SequenceVariant": "SK\\SS",
  "SeriesDescription": "cmrr_mbepi_s6_2mm_66sl_PA_task-wedgering3",
  "SeriesNumber": 18,
  "ShimSetting": [286, -12681, -8496, 331, 26, -284, 55, 43],
  "SliceThickness": 2,
  "SliceTiming": [0, 0.535, 0.09, 0.625, 0.1775, 0.7125, 0.2675, 0.8025, 0.3575, 0.8925, 0.445, 0, 0.535, 0.09, 0.625, 0.1775, 0.7125, 0.2675, 0.8025, 0.3575, 0.8925, 0.445, 0, 0.535, 0.09, 0.625, 0.1775, 0.7125, 0.2675, 0.8025, 0.3575, 0.8925, 0.445, 0, 0.535, 0.09, 0.625, 0.1775, 0.7125, 0.2675, 0.8025, 0.3575, 0.8925, 0.445, 0, 0.535, 0.09, 0.625, 0.1775, 0.7125, 0.2675, 0.8025, 0.3575, 0.8925, 0.445, 0, 0.535, 0.09, 0.625, 0.1775, 0.7125, 0.2675, 0.8025, 0.3575, 0.8925, 0.445],
  "SoftwareVersions": "syngo MR E11",
  "SpacingBetweenSlices": 2,
  "StationName": "AWP166018",
  "TaskName": "wedgering3",
  "TotalReadoutTime": 0.060771,
  "TxRefAmp": 231.141,
  "VendorReportedEchoSpacing": 0.00059,
  "WipMemBlock": "7618f70b-8185-4de7-88b5-9f82c06d4081||Sequence: R016 ve11c/master r/8780670; Nov 27 2017 15:05:12 by eja",
  "dcmmeta_affine": [
    [-1.9988038539886475, -0.03907688334584236, -0.057064443826675415, 107.35331726074219],
    [-0.029977994039654732, 1.9766091108322144, -0.30350935459136963, -73.12496948242188],
    [-0.062327150255441666, 0.30247247219085693, 1.9760125875473022, -52.24968719482422],
    [0.0, 0.0, 0.0, 1.0]
],
  "dcmmeta_reorient_transform": [
    [0.0, -1.0, 0.0, 103.0],
    [1.0, 0.0, 0.0, 0.0],
    [0.0, 0.0, 1.0, 0.0],
    [0.0, 0.0, 0.0, 1.0]
],
  "dcmmeta_shape": [104, 104, 66, 300],
  "dcmmeta_slice_dim": 2,
  "dcmmeta_version": 0.6,
  "global": {
    "const": {
      "AccessionNumber": "Leydr9sw",
      "AcquisitionMatrix": [104, 0, 0, 104],
      "AngioFlag": "N",
      "BitsAllocated": 16,
      "BitsStored": 16,
      "BodyPartExamined": "BRAIN",
      "Columns": 936,
      "EchoNumbers": 1,
      "EchoTime": 37.6,
      "EchoTrainLength": 104,
      "FlipAngle": 68.0,
      "HighBit": 15,
      "ImageOrientationPatient": [0.99940190191451, 0.01498899661776, -0.0311635753734, -0.0195384412433, 0.98830453211312, -0.1512362427411],
      "ImagePositionPatient": [-918.57480005361, -965.20597859462, 130.66162785698],
      "ImageType": [
        "ORIGINAL",
        "PRIMARY",
        "M",
        "MB",
        "ND",
        "MOSAIC"
],
      "ImagedNucleus": "1H",
      "ImagingFrequency": 123.196813,
      "InPlanePhaseEncodingDirection": "COL",
      "MRAcquisitionType": "2D",
      "MagneticFieldStrength": 3.0,
      "Manufacturer": "SIEMENS",
      "ManufacturerModelName": "Prisma",
      "Modality": "MR",
      "NumberOfAverages": 1.0,
      "NumberOfPhaseEncodingSteps": 104,
      "PercentPhaseFieldOfView": 100.0,
      "PercentSampling": 100.0,
      "PerformedProcedureStepStartTime": "140815.730000",
      "PhotometricInterpretation": "MONOCHROME2",
      "PixelBandwidth": 2290.0,
      "PixelRepresentation": 0,
      "PixelSpacing": [2.0, 2.0],
      "ProtocolName": "cmrr_mbepi_s6_2mm_66sl_PA_task-wedgering3",
      "RepetitionTime": 1000.0,
      "Rows": 936,
      "SAR": 0.08068318966693,
      "SamplesPerPixel": 1,
      "ScanOptions": "FS",
      "ScanningSequence": "EP",
      "SequenceName": "epfid2d1_104",
      "SequenceVariant": [
        "SK",
        "SS"
],
      "SeriesDescription": "cmrr_mbepi_s6_2mm_66sl_PA_task-wedgering3",
      "SeriesNumber": 18,
      "SeriesTime": "150256.683000",
      "SliceLocation": -43.588991853533,
      "SliceThickness": 2.0,
      "SmallestImagePixelValue": 0,
      "SoftwareVersions": "syngo MR E11",
      "SpacingBetweenSlices": 1.9999999544444,
      "SpecificCharacterSet": "ISO_IR 100",
      "StudyID": "1",
      "StudyTime": "140815.631000",
      "TransmitCoilName": "Body",
      "VariableFlipAngleFlag": "N",
      "WindowCenterWidthExplanation": "Algo1",
      "dBdt": 0.0},
    "slices": {}
  },
  "time": {
    "samples": {
      "AcquisitionNumber": [1, 2, 3, 4, 5, 6, 7, 8, 9, 10, 11, 12, 13, 14, 15, 16, 17, 18, 19, 20, 21, 22, 23, 24, 25, 26, 27, 28, 29, 30, 31, 32, 33, 34, 35, 36, 37, 38, 39, 40, 41, 42, 43, 44, 45, 46, 47, 48, 49, 50, 51, 52, 53, 54, 55, 56, 57, 58, 59, 60, 61, 62, 63, 64, 65, 66, 67, 68, 69, 70, 71, 72, 73, 74, 75, 76, 77, 78, 79, 80, 81, 82, 83, 84, 85, 86, 87, 88, 89, 90, 91, 92, 93, 94, 95, 96, 97, 98, 99, 100, 101, 102, 103, 104, 105, 106, 107, 108, 109, 110, 111, 112, 113, 114, 115, 116, 117, 118, 119, 120, 121, 122, 123, 124, 125, 126, 127, 128, 129, 130, 131, 132, 133, 134, 135, 136, 137, 138, 139, 140, 141, 142, 143, 144, 145, 146, 147, 148, 149, 150, 151, 152, 153, 154, 155, 156, 157, 158, 159, 160, 161, 162, 163, 164, 165, 166, 167, 168, 169, 170, 171, 172, 173, 174, 175, 176, 177, 178, 179, 180, 181, 182, 183, 184, 185, 186, 187, 188, 189, 190, 191, 192, 193, 194, 195, 196, 197, 198, 199, 200, 201, 202, 203, 204, 205, 206, 207, 208, 209, 210, 211, 212, 213, 214, 215, 216, 217, 218, 219, 220, 221, 222, 223, 224, 225, 226, 227, 228, 229, 230, 231, 232, 233, 234, 235, 236, 237, 238, 239, 240, 241, 242, 243, 244, 245, 246, 247, 248, 249, 250, 251, 252, 253, 254, 255, 256, 257, 258, 259, 260, 261, 262, 263, 264, 265, 266, 267, 268, 269, 270, 271, 272, 273, 274, 275, 276, 277, 278, 279, 280, 281, 282, 283, 284, 285, 286, 287, 288, 289, 290, 291, 292, 293, 294, 295, 296, 297, 298, 299, 300],
      "AcquisitionTime": ["150134.670000", "150135.670000", "150136.670000", "150137.670000", "150138.670000", "150139.670000", "150140.670000", "150141.670000", "150142.670000", "150143.670000", "150144.670000", "150145.670000", "150146.670000", "150147.670000", "150148.670000", "150149.670000", "150150.670000", "150151.670000", "150152.670000", "150153.670000", "150154.670000", "150155.670000", "150156.670000", "150157.670000", "150158.670000", "150159.670000", "150200.670000", "150201.670000", "150202.670000", "150203.670000", "150204.670000", "150205.670000", "150206.670000", "150207.670000", "150208.670000", "150209.670000", "150210.670000", "150211.670000", "150212.670000", "150213.670000", "150214.670000", "150215.670000", "150216.670000", "150217.670000", "150218.670000", "150219.670000", "150220.670000", "150221.670000", "150222.670000", "150223.670000", "150224.670000", "150225.670000", "150226.670000", "150227.670000", "150228.670000", "150229.670000", "150230.670000", "150231.670000", "150232.670000", "150233.670000", "150234.670000", "150235.670000", "150236.670000", "150237.670000", "150238.670000", "150239.670000", "150240.670000", "150241.670000", "150242.670000", "150243.670000", "150244.670000", "150245.670000", "150246.670000", "150247.670000", "150248.670000", "150249.670000", "150250.670000", "150251.670000", "150252.670000", "150253.670000", "150254.670000", "150255.670000", "150256.670000", "150257.670000", "150258.670000", "150259.670000", "150300.670000", "150301.670000", "150302.670000", "150303.670000", "150304.670000", "150305.670000", "150306.670000", "150307.670000", "150308.670000", "150309.670000", "150310.670000", "150311.670000", "150312.670000", "150313.670000", "150314.670000", "150315.670000", "150316.670000", "150317.670000", "150318.670000", "150319.670000", "150320.670000", "150321.670000", "150322.670000", "150323.670000", "150324.670000", "150325.670000", "150326.670000", "150327.670000", "150328.670000", "150329.670000", "150330.670000", "150331.670000", "150332.670000", "150333.670000", "150334.670000", "150335.670000", "150336.670000", "150337.670000", "150338.670000", "150339.670000", "150340.670000", "150341.670000", "150342.670000", "150343.670000", "150344.670000", "150345.670000", "150346.670000", "150347.670000", "150348.670000", "150349.670000", "150350.670000", "150351.670000", "150352.670000", "150353.670000", "150354.670000", "150355.670000", "150356.670000", "150357.670000", "150358.670000", "150359.670000", "150400.670000", "150401.670000", "150402.670000", "150403.670000", "150404.670000", "150405.670000", "150406.670000", "150407.670000", "150408.670000", "150409.670000", "150410.670000", "150411.670000", "150412.670000", "150413.670000", "150414.670000", "150415.670000", "150416.670000", "150417.670000", "150418.670000", "150419.670000", "150420.670000", "150421.670000", "150422.670000", "150423.670000", "150424.670000", "150425.670000", "150426.670000", "150427.670000", "150428.670000", "150429.670000", "150430.670000", "150431.670000", "150432.670000", "150433.670000", "150434.670000", "150435.670000", "150436.670000", "150437.670000", "150438.670000", "150439.670000", "150440.670000", "150441.670000", "150442.670000", "150443.670000", "150444.670000", "150445.670000", "150446.670000", "150447.670000", "150448.670000", "150449.670000", "150450.670000", "150451.670000", "150452.670000", "150453.670000", "150454.670000", "150455.670000", "150456.670000", "150457.670000", "150458.670000", "150459.670000", "150500.670000", "150501.670000", "150502.670000", "150503.670000", "150504.670000", "150505.670000", "150506.670000", "150507.670000", "150508.670000", "150509.670000", "150510.670000", "150511.670000", "150512.670000", "150513.670000", "150514.670000", "150515.670000", "150516.670000", "150517.670000", "150518.670000", "150519.670000", "150520.670000", "150521.670000", "150522.670000", "150523.670000", "150524.670000", "150525.670000", "150526.670000", "150527.670000", "150528.670000", "150529.670000", "150530.670000", "150531.670000", "150532.670000", "150533.670000", "150534.670000", "150535.670000", "150536.670000", "150537.670000", "150538.670000", "150539.670000", "150540.670000", "150541.670000", "150542.670000", "150543.670000", "150544.670000", "150545.670000", "150546.670000", "150547.670000", "150548.670000", "150549.670000", "150550.670000", "150551.670000", "150552.670000", "150553.670000", "150554.670000", "150555.670000", "150556.670000", "150557.670000", "150558.670000", "150559.670000", "150600.670000", "150601.670000", "150602.670000", "150603.670000", "150604.670000", "150605.670000", "150606.670000", "150607.670000", "150608.670000", "150609.670000", "150610.670000", "150611.670000", "150612.670000", "150613.670000", "150614.670000", "150615.670000", "150616.670000", "150617.670000", "150618.670000", "150619.670000", "150620.670000", "150621.670000", "150622.670000", "150623.670000", "150624.670000", "150625.670000", "150626.670000", "150627.670000", "150628.670000", "150629.670000", "150630.670000", "150631.670000", "150632.670000", "150633.670000"],
      "ContentTime": ["150256.686000", "150256.690000", "150256.693000", "150256.696000", "150256.699000", "150256.702000", "150256.705000", "150256.708000", "150256.711000", "150256.714000", "150256.717000", "150256.720000", "150256.723000", "150256.726000", "150256.729000", "150256.732000", "150256.735000", "150256.743000", "150256.746000", "150256.749000", "150256.752000", "150256.755000", "150256.758000", "150256.762000", "150256.765000", "150256.768000", "150256.772000", "150256.775000", "150256.778000", "150256.781000", "150256.784000", "150256.787000", "150256.790000", "150256.794000", "150256.796000", "150316.634000", "150316.637000", "150316.640000", "150316.643000", "150316.646000", "150316.649000", "150316.652000", "150316.655000", "150316.659000", "150316.662000", "150316.665000", "150316.668000", "150316.671000", "150316.674000", "150316.677000", "150316.680000", "150316.684000", "150316.686000", "150316.689000", "150316.692000", "150316.696000", "150316.699000", "150316.701000", "150316.707000", "150316.710000", "150316.713000", "150316.716000", "150316.719000", "150316.722000", "150336.634000", "150336.637000", "150336.640000", "150336.643000", "150336.646000", "150336.649000", "150336.652000", "150336.656000", "150336.659000", "150336.662000", "150336.665000", "150336.668000", "150336.671000", "150336.674000", "150336.677000", "150336.680000", "150336.683000", "150336.686000", "150336.689000", "150336.692000", "150336.695000", "150336.700000", "150336.703000", "150336.706000", "150336.709000", "150336.712000", "150336.715000", "150336.718000", "150356.634000", "150356.637000", "150356.640000", "150356.644000", "150356.647000", "150356.649000", "150356.652000", "150356.660000", "150356.662000", "150356.665000", "150356.668000", "150356.671000", "150356.674000", "150356.677000", "150356.680000", "150356.683000", "150356.686000", "150356.689000", "150356.692000", "150356.695000", "150356.698000", "150356.701000", "150356.704000", "150356.707000", "150356.710000", "150356.713000", "150356.716000", "150356.720000", "150416.635000", "150416.638000", "150416.642000", "150416.645000", "150416.648000", "150416.651000", "150416.654000", "150416.657000", "150416.660000", "150416.663000", "150416.666000", "150416.669000", "150416.672000", "150416.675000", "150416.678000", "150416.681000", "150416.684000", "150416.687000", "150416.690000", "150416.693000", "150416.696000", "150416.699000", "150416.702000", "150416.705000", "150416.708000", "150416.711000", "150416.714000", "150416.717000", "150416.720000", "150436.635000", "150436.638000", "150436.641000", "150436.644000", "150436.648000", "150436.651000", "150436.654000", "150436.657000", "150436.660000", "150436.663000", "150436.666000", "150436.669000", "150436.672000", "150436.675000", "150436.678000", "150436.681000", "150436.684000", "150436.687000", "150436.690000", "150436.693000", "150436.696000", "150436.699000", "150436.702000", "150436.705000", "150436.708000", "150436.711000", "150436.714000", "150436.717000", "150456.634000", "150456.637000", "150456.641000", "150456.644000", "150456.655000", "150456.658000", "150456.661000", "150456.664000", "150456.667000", "150456.670000", "150456.674000", "150456.676000", "150456.679000", "150456.682000", "150456.686000", "150456.689000", "150456.692000", "150456.695000", "150456.698000", "150456.701000", "150456.704000", "150456.707000", "150456.710000", "150516.634000", "150516.637000", "150516.641000", "150516.644000", "150516.647000", "150516.650000", "150516.653000", "150516.656000", "150516.659000", "150516.662000", "150516.665000", "150516.668000", "150516.671000", "150516.674000", "150516.677000", "150516.681000", "150516.683000", "150516.686000", "150516.689000", "150516.693000", "150536.634000", "150536.637000", "150536.640000", "150536.644000", "150536.647000", "150536.650000", "150536.652000", "150536.656000", "150536.659000", "150536.662000", "150536.665000", "150536.668000", "150536.671000", "150536.674000", "150536.677000", "150536.687000", "150536.690000", "150536.693000", "150536.696000", "150536.700000", "150556.634000", "150556.637000", "150556.640000", "150556.644000", "150556.647000", "150556.650000", "150556.652000", "150556.656000", "150556.659000", "150556.662000", "150556.665000", "150556.668000", "150556.671000", "150556.674000", "150556.677000", "150556.680000", "150556.683000", "150556.686000", "150556.689000", "150556.692000", "150616.634000", "150616.637000", "150616.640000", "150616.644000", "150616.647000", "150616.650000", "150616.653000", "150616.656000", "150616.659000", "150616.662000", "150616.665000", "150616.668000", "150616.671000", "150616.674000", "150616.677000", "150616.680000", "150616.683000", "150616.686000", "150616.689000", "150616.692000", "150635.799000", "150635.802000", "150635.805000", "150635.809000", "150635.812000", "150635.815000", "150635.818000", "150635.821000", "150635.824000", "150635.826000", "150635.830000", "150635.833000", "150635.836000", "150635.839000", "150635.842000", "150635.845000", "150635.848000", "150635.851000", "150635.854000", "150635.857000"],
      "InstanceCreationTime": ["150256.686000", "150256.690000", "150256.693000", "150256.696000", "150256.699000", "150256.702000", "150256.705000", "150256.708000", "150256.711000", "150256.714000", "150256.717000", "150256.720000", "150256.723000", "150256.726000", "150256.729000", "150256.732000", "150256.735000", "150256.743000", "150256.746000", "150256.749000", "150256.752000", "150256.755000", "150256.758000", "150256.762000", "150256.765000", "150256.768000", "150256.772000", "150256.775000", "150256.778000", "150256.781000", "150256.784000", "150256.787000", "150256.790000", "150256.794000", "150256.796000", "150316.634000", "150316.637000", "150316.640000", "150316.643000", "150316.646000", "150316.649000", "150316.652000", "150316.655000", "150316.659000", "150316.662000", "150316.665000", "150316.668000", "150316.671000", "150316.674000", "150316.677000", "150316.680000", "150316.684000", "150316.686000", "150316.689000", "150316.692000", "150316.696000", "150316.699000", "150316.701000", "150316.707000", "150316.710000", "150316.713000", "150316.716000", "150316.719000", "150316.722000", "150336.634000", "150336.637000", "150336.640000", "150336.643000", "150336.646000", "150336.649000", "150336.652000", "150336.656000", "150336.659000", "150336.662000", "150336.665000", "150336.668000", "150336.671000", "150336.674000", "150336.677000", "150336.680000", "150336.683000", "150336.686000", "150336.689000", "150336.692000", "150336.695000", "150336.700000", "150336.703000", "150336.706000", "150336.709000", "150336.712000", "150336.715000", "150336.718000", "150356.634000", "150356.637000", "150356.640000", "150356.644000", "150356.647000", "150356.649000", "150356.652000", "150356.660000", "150356.662000", "150356.665000", "150356.668000", "150356.671000", "150356.674000", "150356.677000", "150356.680000", "150356.683000", "150356.686000", "150356.689000", "150356.692000", "150356.695000", "150356.698000", "150356.701000", "150356.704000", "150356.707000", "150356.710000", "150356.713000", "150356.716000", "150356.720000", "150416.635000", "150416.638000", "150416.642000", "150416.645000", "150416.648000", "150416.651000", "150416.654000", "150416.657000", "150416.660000", "150416.663000", "150416.666000", "150416.669000", "150416.672000", "150416.675000", "150416.678000", "150416.681000", "150416.684000", "150416.687000", "150416.690000", "150416.693000", "150416.696000", "150416.699000", "150416.702000", "150416.705000", "150416.708000", "150416.711000", "150416.714000", "150416.717000", "150416.720000", "150436.635000", "150436.638000", "150436.641000", "150436.644000", "150436.648000", "150436.651000", "150436.654000", "150436.657000", "150436.660000", "150436.663000", "150436.666000", "150436.669000", "150436.672000", "150436.675000", "150436.678000", "150436.681000", "150436.684000", "150436.687000", "150436.690000", "150436.693000", "150436.696000", "150436.699000", "150436.702000", "150436.705000", "150436.708000", "150436.711000", "150436.714000", "150436.717000", "150456.634000", "150456.637000", "150456.641000", "150456.644000", "150456.655000", "150456.658000", "150456.661000", "150456.664000", "150456.667000", "150456.670000", "150456.674000", "150456.676000", "150456.679000", "150456.682000", "150456.686000", "150456.689000", "150456.692000", "150456.695000", "150456.698000", "150456.701000", "150456.704000", "150456.707000", "150456.710000", "150516.634000", "150516.637000", "150516.641000", "150516.644000", "150516.647000", "150516.650000", "150516.653000", "150516.656000", "150516.659000", "150516.662000", "150516.665000", "150516.668000", "150516.671000", "150516.674000", "150516.677000", "150516.681000", "150516.683000", "150516.686000", "150516.689000", "150516.693000", "150536.634000", "150536.637000", "150536.640000", "150536.644000", "150536.647000", "150536.650000", "150536.652000", "150536.656000", "150536.659000", "150536.662000", "150536.665000", "150536.668000", "150536.671000", "150536.674000", "150536.677000", "150536.687000", "150536.690000", "150536.693000", "150536.696000", "150536.700000", "150556.634000", "150556.637000", "150556.640000", "150556.644000", "150556.647000", "150556.650000", "150556.652000", "150556.656000", "150556.659000", "150556.662000", "150556.665000", "150556.668000", "150556.671000", "150556.674000", "150556.677000", "150556.680000", "150556.683000", "150556.686000", "150556.689000", "150556.692000", "150616.634000", "150616.637000", "150616.640000", "150616.644000", "150616.647000", "150616.650000", "150616.653000", "150616.656000", "150616.659000", "150616.662000", "150616.665000", "150616.668000", "150616.671000", "150616.674000", "150616.677000", "150616.680000", "150616.683000", "150616.686000", "150616.689000", "150616.692000", "150635.799000", "150635.802000", "150635.805000", "150635.809000", "150635.812000", "150635.815000", "150635.818000", "150635.821000", "150635.824000", "150635.826000", "150635.830000", "150635.833000", "150635.836000", "150635.839000", "150635.842000", "150635.845000", "150635.848000", "150635.851000", "150635.854000", "150635.857000"],
      "InstanceNumber": [1, 2, 3, 4, 5, 6, 7, 8, 9, 10, 11, 12, 13, 14, 15, 16, 17, 18, 19, 20, 21, 22, 23, 24, 25, 26, 27, 28, 29, 30, 31, 32, 33, 34, 35, 36, 37, 38, 39, 40, 41, 42, 43, 44, 45, 46, 47, 48, 49, 50, 51, 52, 53, 54, 55, 56, 57, 58, 59, 60, 61, 62, 63, 64, 65, 66, 67, 68, 69, 70, 71, 72, 73, 74, 75, 76, 77, 78, 79, 80, 81, 82, 83, 84, 85, 86, 87, 88, 89, 90, 91, 92, 93, 94, 95, 96, 97, 98, 99, 100, 101, 102, 103, 104, 105, 106, 107, 108, 109, 110, 111, 112, 113, 114, 115, 116, 117, 118, 119, 120, 121, 122, 123, 124, 125, 126, 127, 128, 129, 130, 131, 132, 133, 134, 135, 136, 137, 138, 139, 140, 141, 142, 143, 144, 145, 146, 147, 148, 149, 150, 151, 152, 153, 154, 155, 156, 157, 158, 159, 160, 161, 162, 163, 164, 165, 166, 167, 168, 169, 170, 171, 172, 173, 174, 175, 176, 177, 178, 179, 180, 181, 182, 183, 184, 185, 186, 187, 188, 189, 190, 191, 192, 193, 194, 195, 196, 197, 198, 199, 200, 201, 202, 203, 204, 205, 206, 207, 208, 209, 210, 211, 212, 213, 214, 215, 216, 217, 218, 219, 220, 221, 222, 223, 224, 225, 226, 227, 228, 229, 230, 231, 232, 233, 234, 235, 236, 237, 238, 239, 240, 241, 242, 243, 244, 245, 246, 247, 248, 249, 250, 251, 252, 253, 254, 255, 256, 257, 258, 259, 260, 261, 262, 263, 264, 265, 266, 267, 268, 269, 270, 271, 272, 273, 274, 275, 276, 277, 278, 279, 280, 281, 282, 283, 284, 285, 286, 287, 288, 289, 290, 291, 292, 293, 294, 295, 296, 297, 298, 299, 300],
      "LargestImagePixelValue": [33171, 32878, 32305, 31232, 32651, 31239, 30712, 32362, 31631, 31591, 31448, 35828, 32952, 32569, 32220, 32100, 32067, 32951, 33062, 34257, 32106, 32401, 32482, 32177, 31914, 35412, 32334, 32143, 32411, 32272, 32723, 32166, 32317, 32675, 32391, 32807, 33043, 32234, 32311, 32395, 32590, 32225, 32544, 32447, 32474, 32072, 32119, 32264, 31841, 31360, 31968, 32693, 31811, 32266, 31836, 32518, 32148, 31804, 32307, 32253, 31490, 31904, 31835, 31544, 31808, 31655, 31494, 31447, 31726, 31503, 32166, 31919, 31460, 31796, 32035, 31420, 31798, 31950, 31839, 31676, 31923, 31247, 32001, 31799, 31711, 36316, 32751, 31186, 30884, 32477, 31132, 31996, 31671, 31180, 33928, 31408, 32359, 32278, 31607, 31925, 32925, 31752, 31082, 31038, 31510, 31956, 31246, 33943, 33347, 33614, 31254, 31697, 31855, 31916, 32814, 33662, 32027, 32180, 31247, 31362, 30829, 30081, 30150, 30323, 30851, 30775, 30968, 31136, 30879, 31700, 30952, 31114, 30635, 31323, 32217, 30807, 31183, 31164, 31053, 31182, 30546, 31772, 30921, 30697, 30588, 31549, 30448, 30706, 30679, 30415, 32033, 30320, 31308, 31425, 31394, 31637, 31052, 31362, 32455, 32764, 31746, 31700, 34316, 34079, 37511, 32755, 31047, 31733, 31705, 35067, 31651, 31083, 30606, 30705, 30926, 33080, 33945, 33065, 32328, 32983, 31369, 34916, 33434, 32319, 33907, 35490, 33840, 34287, 33202, 31793, 32477, 31952, 33017, 33806, 34424, 32237, 32057, 33007, 34294, 37722, 32588, 32252, 32447, 31760, 32216, 31647, 31843, 32041, 31735, 32707, 34089, 32072, 31620, 32107, 32065, 31686, 32670, 35110, 32458, 31887, 31961, 33394, 32144, 39588, 34185, 34038, 32971, 32221, 32715, 33490, 34561, 34518, 33098, 32708, 32989, 32823, 32214, 32644, 32424, 32864, 32580, 33250, 32476, 31426, 32632, 34288, 31902, 32271, 31963, 32043, 31903, 32217, 31544, 32996, 31825, 33653, 33025, 32789, 32156, 32284, 33942, 32286, 31964, 32918, 32256, 33906, 33054, 33064, 33793, 33363, 33818, 33865, 35313, 32915, 33194, 33177, 33130, 35150, 32938, 33081, 32808, 33002, 33100, 32778, 34085, 33283, 33826, 33914, 35541, 34602, 34451, 33432, 33270, 33216, 32703, 32418, 32387, 32179, 34133, 32101],
      "WindowCenter": [9308.0, 9279.0, 9271.0, 9238.0, 9284.0, 9266.0, 9244.0, 9318.0, 9315.0, 9300.0, 9265.0, 9309.0, 9231.0, 9206.0, 9179.0, 9156.0, 9144.0, 9160.0, 9170.0, 9204.0, 9187.0, 9213.0, 9231.0, 9241.0, 9248.0, 9310.0, 9272.0, 9283.0, 9300.0, 9293.0, 9306.0, 9309.0, 9307.0, 9314.0, 9301.0, 9304.0, 9295.0, 9272.0, 9262.0, 9258.0, 9265.0, 9267.0, 9276.0, 9287.0, 9300.0, 9350.0, 9296.0, 9235.0, 9260.0, 9267.0, 9271.0, 9294.0, 9275.0, 9287.0, 9275.0, 9289.0, 9273.0, 9267.0, 9271.0, 9278.0, 9253.0, 9256.0, 9252.0, 9248.0, 9246.0, 9246.0, 9248.0, 9250.0, 9250.0, 9240.0, 9259.0, 9262.0, 9250.0, 9256.0, 9264.0, 9244.0, 9255.0, 9256.0, 9248.0, 9248.0, 9256.0, 9249.0, 9264.0, 9258.0, 9248.0, 9319.0, 9275.0, 9245.0, 9262.0, 9295.0, 9272.0, 9286.0, 9278.0, 9256.0, 9295.0, 9244.0, 9245.0, 9250.0, 9237.0, 9244.0, 9260.0, 9228.0, 9212.0, 9240.0, 9249.0, 9263.0, 9242.0, 9271.0, 9245.0, 9217.0, 9171.0, 9173.0, 9178.0, 9179.0, 9201.0, 9222.0, 9217.0, 9215.0, 9209.0, 9209.0, 9195.0, 9192.0, 9202.0, 9221.0, 9217.0, 9201.0, 9194.0, 9161.0, 9135.0, 9135.0, 9121.0, 9128.0, 9129.0, 9155.0, 9182.0, 9169.0, 9186.0, 9202.0, 9207.0, 9214.0, 9192.0, 9229.0, 9234.0, 9237.0, 9238.0, 9256.0, 9229.0, 9228.0, 9225.0, 9213.0, 9237.0, 9194.0, 9196.0, 9195.0, 9203.0, 9207.0, 9194.0, 9209.0, 9229.0, 9235.0, 9219.0, 9226.0, 9266.0, 9265.0, 9311.0, 9248.0, 9223.0, 9245.0, 9245.0, 9290.0, 9224.0, 9207.0, 9198.0, 9191.0, 9197.0, 9227.0, 9237.0, 9223.0, 9214.0, 9221.0, 9202.0, 9249.0, 9225.0, 9203.0, 9217.0, 9242.0, 9226.0, 9240.0, 9232.0, 9238.0, 9244.0, 9227.0, 9246.0, 9253.0, 9245.0, 9206.0, 9189.0, 9209.0, 9235.0, 9280.0, 9207.0, 9203.0, 9217.0, 9218.0, 9256.0, 9251.0, 9248.0, 9248.0, 9231.0, 9234.0, 9247.0, 9201.0, 9193.0, 9209.0, 9202.0, 9200.0, 9223.0, 9259.0, 9216.0, 9210.0, 9209.0, 9236.0, 9218.0, 9324.0, 9256.0, 9259.0, 9245.0, 9241.0, 9249.0, 9263.0, 9281.0, 9283.0, 9257.0, 9250.0, 9247.0, 9239.0, 9234.0, 9232.0, 9222.0, 9218.0, 9211.0, 9224.0, 9210.0, 9193.0, 9230.0, 9261.0, 9236.0, 9245.0, 9247.0, 9246.0, 9244.0, 9238.0, 9208.0, 9224.0, 9205.0, 9234.0, 9230.0, 9242.0, 9239.0, 9250.0, 9273.0, 9232.0, 9224.0, 9242.0, 9227.0, 9238.0, 9225.0, 9223.0, 9232.0, 9228.0, 9258.0, 9261.0, 9287.0, 9259.0, 9256.0, 9244.0, 9227.0, 9250.0, 9212.0, 9220.0, 9228.0, 9243.0, 9247.0, 9237.0, 9252.0, 9223.0, 9224.0, 9223.0, 9249.0, 9245.0, 9263.0, 9247.0, 9244.0, 9232.0, 9202.0, 9199.0, 9207.0, 9219.0, 9252.0, 9213.0],
