{
  "AcquisitionMatrixPE": 104,
  "AcquisitionNumber": 1,
  "AcquisitionTime": "14:31:22.692500",
  "BandwidthPerPixelPhaseEncode": 16.297,
  "BaseResolution": 104,
  "BodyPartExamined": "BRAIN",
  "ConsistencyInfo": "N4_VE11C_LATEST_20160120",
  "ConversionSoftware": "dcm2niix",
  "ConversionSoftwareVersion": "v1.0.20210317",
  "DerivedVendorReportedEchoSpacing": 0.000590009,
  "DeviceSerialNumber": "166018",
  "DwellTime": 2.1e-06,
  "EchoTime": 0.0376,
  "EchoTrainLength": 104,
  "EffectiveEchoSpacing": 0.000590009,
  "FlipAngle": 68,
  "ImageComments": "Unaliased MB6/PE3/LB",
  "ImageOrientationPatientDICOM": [0.999402, 0.014989, -0.0311636, -0.0195384, 0.988305, -0.151236],
  "ImageType": [
    "ORIGINAL",
    "PRIMARY",
    "M",
    "MB",
    "ND",
    "MOSAIC"
],
  "ImagingFrequency": 123.197,
  "InPlanePhaseEncodingDirectionDICOM": "COL",
  "InstitutionAddress": "Washington Place 6,NYC,NYC,US,10003",
  "InstitutionName": "NYU - CBI",
  "InstitutionalDepartmentName": "Department",
  "MRAcquisitionType": "2D",
  "MagneticFieldStrength": 3,
  "Manufacturer": "Siemens",
  "ManufacturersModelName": "Prisma",
  "Modality": "MR",
  "MultibandAccelerationFactor": 6,
  "PartialFourier": 1,
  "PatientPosition": "HFS",
  "PercentPhaseFOV": 100,
  "PercentSampling": 100,
  "PhaseEncodingDirection": "j",
  "PhaseEncodingSteps": 104,
  "PhaseResolution": 1,
  "PixelBandwidth": 2290,
  "ProcedureStepDescription": "Investigators^Winawer",
  "ProtocolName": "cmrr_mbepi_s6_2mm_66sl_PA_task-bar1",
  "PulseSequenceDetails": "%CustomerSeq%\\cmrr_mbep2d_bold",
  "ReceiveCoilActiveElements": "HC1-7",
  "ReceiveCoilName": "HeadNeck_64",
  "ReconMatrixPE": 104,
  "RepetitionTime": 1,
  "SAR": 0.0806832,
  "ScanOptions": "FS",
  "ScanningSequence": "EP",
  "SequenceName": "epfid2d1_104",
  "SequenceVariant": "SK\\SS",
  "SeriesDescription": "cmrr_mbepi_s6_2mm_66sl_PA_task-bar1",
  "SeriesNumber": 8,
  "ShimSetting": [286, -12681, -8496, 331, 26, -284, 55, 43],
  "SliceThickness": 2,
  "SliceTiming": [0, 0.535, 0.09, 0.6225, 0.1775, 0.7125, 0.2675, 0.8025, 0.3575, 0.89, 0.445, 0, 0.535, 0.09, 0.6225, 0.1775, 0.7125, 0.2675, 0.8025, 0.3575, 0.89, 0.445, 0, 0.535, 0.09, 0.6225, 0.1775, 0.7125, 0.2675, 0.8025, 0.3575, 0.89, 0.445, 0, 0.535, 0.09, 0.6225, 0.1775, 0.7125, 0.2675, 0.8025, 0.3575, 0.89, 0.445, 0, 0.535, 0.09, 0.6225, 0.1775, 0.7125, 0.2675, 0.8025, 0.3575, 0.89, 0.445, 0, 0.535, 0.09, 0.6225, 0.1775, 0.7125, 0.2675, 0.8025, 0.3575, 0.89, 0.445],
  "SoftwareVersions": "syngo MR E11",
  "SpacingBetweenSlices": 2,
  "StationName": "AWP166018",
  "TaskName": "bar1",
  "TotalReadoutTime": 0.060771,
  "TxRefAmp": 231.141,
  "VendorReportedEchoSpacing": 0.00059,
  "WipMemBlock": "9fd28f6d-4f1f-4e87-a3d5-47d9e3fda7dd||Sequence: R016 ve11c/master r/8780670; Nov 27 2017 15:05:12 by eja",
  "dcmmeta_affine": [
    [-1.9988038539886475, -0.03907688334584236, -0.057064443826675415, 107.35331726074219],
    [-0.029977994039654732, 1.9766091108322144, -0.30350935459136963, -73.12496948242188],
    [-0.062327150255441666, 0.30247247219085693, 1.9760125875473022, -52.24968719482422],
    [0.0, 0.0, 0.0, 1.0]
],
  "dcmmeta_reorient_transform": [
    [0.0, -1.0, 0.0, 103.0],
    [1.0, 0.0, 0.0, 0.0],
    [0.0, 0.0, 1.0, 0.0],
    [0.0, 0.0, 0.0, 1.0]
],
  "dcmmeta_shape": [104, 104, 66, 300],
  "dcmmeta_slice_dim": 2,
  "dcmmeta_version": 0.6,
  "global": {
    "const": {
      "AccessionNumber": "Leydr9sw",
      "AcquisitionMatrix": [104, 0, 0, 104],
      "AngioFlag": "N",
      "BitsAllocated": 16,
      "BitsStored": 16,
      "BodyPartExamined": "BRAIN",
      "Columns": 936,
      "EchoNumbers": 1,
      "EchoTime": 37.6,
      "EchoTrainLength": 104,
      "FlipAngle": 68.0,
      "HighBit": 15,
      "ImageOrientationPatient": [0.99940190191451, 0.01498899661776, -0.0311635753734, -0.0195384412433, 0.98830453211312, -0.1512362427411],
      "ImagePositionPatient": [-918.57480005361, -965.20597859462, 130.66162785698],
      "ImageType": [
        "ORIGINAL",
        "PRIMARY",
        "M",
        "MB",
        "ND",
        "MOSAIC"
],
      "ImagedNucleus": "1H",
      "ImagingFrequency": 123.19679,
      "InPlanePhaseEncodingDirection": "COL",
      "MRAcquisitionType": "2D",
      "MagneticFieldStrength": 3.0,
      "Manufacturer": "SIEMENS",
      "ManufacturerModelName": "Prisma",
      "Modality": "MR",
      "NumberOfAverages": 1.0,
      "NumberOfPhaseEncodingSteps": 104,
      "PercentPhaseFieldOfView": 100.0,
      "PercentSampling": 100.0,
      "PerformedProcedureStepStartTime": "140815.730000",
      "PhotometricInterpretation": "MONOCHROME2",
      "PixelBandwidth": 2290.0,
      "PixelRepresentation": 0,
      "PixelSpacing": [2.0, 2.0],
      "ProtocolName": "cmrr_mbepi_s6_2mm_66sl_PA_task-bar1",
      "RepetitionTime": 1000.0,
      "Rows": 936,
      "SAR": 0.08068318966693,
      "SamplesPerPixel": 1,
      "ScanOptions": "FS",
      "ScanningSequence": "EP",
      "SequenceName": "epfid2d1_104",
      "SequenceVariant": [
        "SK",
        "SS"
],
      "SeriesDescription": "cmrr_mbepi_s6_2mm_66sl_PA_task-bar1",
      "SeriesNumber": 8,
      "SeriesTime": "143236.735000",
      "SliceLocation": -43.588991853533,
      "SliceThickness": 2.0,
      "SmallestImagePixelValue": 0,
      "SoftwareVersions": "syngo MR E11",
      "SpacingBetweenSlices": 1.9999999544444,
      "SpecificCharacterSet": "ISO_IR 100",
      "StudyID": "1",
      "StudyTime": "140815.631000",
      "TransmitCoilName": "Body",
      "VariableFlipAngleFlag": "N",
      "WindowCenterWidthExplanation": "Algo1",
      "dBdt": 0.0},
    "slices": {}
  },
  "time": {
    "samples": {
      "AcquisitionNumber": [1, 2, 3, 4, 5, 6, 7, 8, 9, 10, 11, 12, 13, 14, 15, 16, 17, 18, 19, 20, 21, 22, 23, 24, 25, 26, 27, 28, 29, 30, 31, 32, 33, 34, 35, 36, 37, 38, 39, 40, 41, 42, 43, 44, 45, 46, 47, 48, 49, 50, 51, 52, 53, 54, 55, 56, 57, 58, 59, 60, 61, 62, 63, 64, 65, 66, 67, 68, 69, 70, 71, 72, 73, 74, 75, 76, 77, 78, 79, 80, 81, 82, 83, 84, 85, 86, 87, 88, 89, 90, 91, 92, 93, 94, 95, 96, 97, 98, 99, 100, 101, 102, 103, 104, 105, 106, 107, 108, 109, 110, 111, 112, 113, 114, 115, 116, 117, 118, 119, 120, 121, 122, 123, 124, 125, 126, 127, 128, 129, 130, 131, 132, 133, 134, 135, 136, 137, 138, 139, 140, 141, 142, 143, 144, 145, 146, 147, 148, 149, 150, 151, 152, 153, 154, 155, 156, 157, 158, 159, 160, 161, 162, 163, 164, 165, 166, 167, 168, 169, 170, 171, 172, 173, 174, 175, 176, 177, 178, 179, 180, 181, 182, 183, 184, 185, 186, 187, 188, 189, 190, 191, 192, 193, 194, 195, 196, 197, 198, 199, 200, 201, 202, 203, 204, 205, 206, 207, 208, 209, 210, 211, 212, 213, 214, 215, 216, 217, 218, 219, 220, 221, 222, 223, 224, 225, 226, 227, 228, 229, 230, 231, 232, 233, 234, 235, 236, 237, 238, 239, 240, 241, 242, 243, 244, 245, 246, 247, 248, 249, 250, 251, 252, 253, 254, 255, 256, 257, 258, 259, 260, 261, 262, 263, 264, 265, 266, 267, 268, 269, 270, 271, 272, 273, 274, 275, 276, 277, 278, 279, 280, 281, 282, 283, 284, 285, 286, 287, 288, 289, 290, 291, 292, 293, 294, 295, 296, 297, 298, 299, 300],
      "AcquisitionTime": ["143122.692500", "143123.692500", "143124.692500", "143125.692500", "143126.692500", "143127.692500", "143128.692500", "143129.692500", "143130.692500", "143131.692500", "143132.692500", "143133.692500", "143134.692500", "143135.692500", "143136.692500", "143137.692500", "143138.692500", "143139.692500", "143140.692500", "143141.692500", "143142.692500", "143143.692500", "143144.692500", "143145.692500", "143146.692500", "143147.692500", "143148.692500", "143149.692500", "143150.692500", "143151.692500", "143152.692500", "143153.692500", "143154.692500", "143155.692500", "143156.692500", "143157.692500", "143158.692500", "143159.692500", "143200.692500", "143201.692500", "143202.692500", "143203.692500", "143204.692500", "143205.692500", "143206.692500", "143207.692500", "143208.692500", "143209.692500", "143210.692500", "143211.692500", "143212.692500", "143213.692500", "143214.692500", "143215.692500", "143216.692500", "143217.692500", "143218.692500", "143219.692500", "143220.692500", "143221.692500", "143222.692500", "143223.692500", "143224.692500", "143225.692500", "143226.692500", "143227.692500", "143228.692500", "143229.692500", "143230.692500", "143231.692500", "143232.692500", "143233.692500", "143234.692500", "143235.692500", "143236.692500", "143237.692500", "143238.692500", "143239.692500", "143240.692500", "143241.692500", "143242.692500", "143243.692500", "143244.692500", "143245.692500", "143246.692500", "143247.692500", "143248.692500", "143249.692500", "143250.692500", "143251.692500", "143252.692500", "143253.692500", "143254.692500", "143255.692500", "143256.692500", "143257.692500", "143258.692500", "143259.692500", "143300.692500", "143301.692500", "143302.692500", "143303.692500", "143304.692500", "143305.692500", "143306.692500", "143307.692500", "143308.692500", "143309.692500", "143310.692500", "143311.692500", "143312.692500", "143313.692500", "143314.692500", "143315.692500", "143316.692500", "143317.692500", "143318.692500", "143319.692500", "143320.692500", "143321.692500", "143322.692500", "143323.692500", "143324.692500", "143325.692500", "143326.692500", "143327.692500", "143328.692500", "143329.692500", "143330.692500", "143331.692500", "143332.692500", "143333.692500", "143334.692500", "143335.692500", "143336.692500", "143337.692500", "143338.692500", "143339.692500", "143340.692500", "143341.692500", "143342.692500", "143343.692500", "143344.692500", "143345.692500", "143346.692500", "143347.692500", "143348.692500", "143349.692500", "143350.692500", "143351.692500", "143352.692500", "143353.692500", "143354.692500", "143355.692500", "143356.692500", "143357.692500", "143358.692500", "143359.692500", "143400.692500", "143401.692500", "143402.692500", "143403.692500", "143404.692500", "143405.692500", "143406.692500", "143407.692500", "143408.692500", "143409.692500", "143410.692500", "143411.692500", "143412.692500", "143413.692500", "143414.692500", "143415.692500", "143416.692500", "143417.692500", "143418.692500", "143419.692500", "143420.692500", "143421.692500", "143422.692500", "143423.692500", "143424.692500", "143425.692500", "143426.692500", "143427.692500", "143428.692500", "143429.692500", "143430.692500", "143431.692500", "143432.692500", "143433.692500", "143434.692500", "143435.692500", "143436.692500", "143437.692500", "143438.692500", "143439.692500", "143440.692500", "143441.692500", "143442.692500", "143443.692500", "143444.692500", "143445.692500", "143446.692500", "143447.692500", "143448.692500", "143449.692500", "143450.692500", "143451.692500", "143452.692500", "143453.692500", "143454.692500", "143455.692500", "143456.692500", "143457.692500", "143458.692500", "143459.692500", "143500.692500", "143501.692500", "143502.692500", "143503.692500", "143504.692500", "143505.692500", "143506.692500", "143507.692500", "143508.692500", "143509.692500", "143510.692500", "143511.692500", "143512.692500", "143513.692500", "143514.692500", "143515.692500", "143516.692500", "143517.692500", "143518.692500", "143519.692500", "143520.692500", "143521.692500", "143522.692500", "143523.692500", "143524.692500", "143525.692500", "143526.692500", "143527.692500", "143528.692500", "143529.692500", "143530.692500", "143531.692500", "143532.692500", "143533.692500", "143534.692500", "143535.692500", "143536.692500", "143537.692500", "143538.692500", "143539.692500", "143540.692500", "143541.692500", "143542.692500", "143543.692500", "143544.692500", "143545.692500", "143546.692500", "143547.692500", "143548.692500", "143549.692500", "143550.692500", "143551.692500", "143552.692500", "143553.692500", "143554.692500", "143555.692500", "143556.692500", "143557.692500", "143558.692500", "143559.692500", "143600.692500", "143601.692500", "143602.692500", "143603.692500", "143604.692500", "143605.692500", "143606.692500", "143607.692500", "143608.692500", "143609.692500", "143610.692500", "143611.692500", "143612.692500", "143613.692500", "143614.692500", "143615.692500", "143616.692500", "143617.692500", "143618.692500", "143619.692500", "143620.692500", "143621.692500"],
      "ContentTime": ["143236.738000", "143236.742000", "143236.745000", "143236.747000", "143236.751000", "143236.754000", "143236.757000", "143236.759000", "143236.763000", "143236.766000", "143236.769000", "143236.772000", "143236.775000", "143236.778000", "143236.783000", "143236.786000", "143236.789000", "143236.792000", "143236.795000", "143236.798000", "143236.802000", "143236.804000", "143236.807000", "143236.811000", "143236.814000", "143236.817000", "143236.820000", "143236.823000", "143236.826000", "143236.829000", "143236.832000", "143236.835000", "143236.838000", "143236.841000", "143256.705000", "143256.708000", "143256.715000", "143256.718000", "143256.721000", "143256.724000", "143256.727000", "143256.730000", "143256.733000", "143256.736000", "143256.739000", "143256.742000", "143256.745000", "143256.749000", "143256.752000", "143256.755000", "143256.758000", "143256.761000", "143256.764000", "143256.767000", "143256.769000", "143256.773000", "143256.776000", "143256.778000", "143256.782000", "143256.785000", "143256.788000", "143256.791000", "143316.705000", "143316.708000", "143316.711000", "143316.714000", "143316.717000", "143316.720000", "143316.723000", "143316.726000", "143316.729000", "143316.733000", "143316.735000", "143316.739000", "143316.742000", "143316.744000", "143316.747000", "143316.751000", "143316.754000", "143316.756000", "143316.759000", "143316.763000", "143316.774000", "143316.777000", "143316.780000", "143316.783000", "143316.786000", "143316.789000", "143316.792000", "143316.795000", "143316.798000", "143336.705000", "143336.708000", "143336.711000", "143336.714000", "143336.717000", "143336.720000", "143336.723000", "143336.726000", "143336.729000", "143336.733000", "143336.736000", "143336.739000", "143336.742000", "143336.745000", "143336.748000", "143336.751000", "143336.754000", "143336.757000", "143336.760000", "143336.763000", "143336.766000", "143336.769000", "143336.772000", "143336.775000", "143336.778000", "143336.781000", "143336.784000", "143336.787000", "143356.705000", "143356.708000", "143356.711000", "143356.714000", "143356.717000", "143356.720000", "143356.723000", "143356.726000", "143356.729000", "143356.732000", "143356.735000", "143356.738000", "143356.741000", "143356.744000", "143356.748000", "143356.751000", "143356.754000", "143356.757000", "143356.760000", "143356.763000", "143356.766000", "143356.768000", "143356.772000", "143356.775000", "143356.777000", "143356.781000", "143356.784000", "143356.787000", "143416.706000", "143416.709000", "143416.712000", "143416.715000", "143416.718000", "143416.721000", "143416.724000", "143416.727000", "143416.730000", "143416.733000", "143416.736000", "143416.739000", "143416.743000", "143416.746000", "143416.749000", "143416.752000", "143416.755000", "143416.758000", "143416.761000", "143416.764000", "143416.773000", "143416.776000", "143416.796000", "143416.799000", "143416.804000", "143436.706000", "143436.709000", "143436.712000", "143436.715000", "143436.718000", "143436.721000", "143436.724000", "143436.727000", "143436.730000", "143436.734000", "143436.736000", "143436.740000", "143436.743000", "143436.745000", "143436.748000", "143436.752000", "143436.755000", "143436.758000", "143436.761000", "143436.764000", "143456.705000", "143456.708000", "143456.711000", "143456.714000", "143456.717000", "143456.720000", "143456.723000", "143456.726000", "143456.729000", "143456.732000", "143456.735000", "143456.739000", "143456.741000", "143456.745000", "143456.748000", "143456.751000", "143456.754000", "143456.761000", "143456.764000", "143456.767000", "143516.705000", "143516.708000", "143516.711000", "143516.714000", "143516.717000", "143516.720000", "143516.723000", "143516.726000", "143516.730000", "143516.732000", "143516.735000", "143516.739000", "143516.742000", "143516.745000", "143516.748000", "143516.751000", "143516.754000", "143516.757000", "143516.760000", "143516.763000", "143536.705000", "143536.708000", "143536.711000", "143536.714000", "143536.717000", "143536.720000", "143536.723000", "143536.726000", "143536.730000", "143536.733000", "143536.736000", "143536.739000", "143536.742000", "143536.745000", "143536.748000", "143536.751000", "143536.754000", "143536.757000", "143536.760000", "143536.763000", "143556.705000", "143556.708000", "143556.711000", "143556.715000", "143556.718000", "143556.720000", "143556.723000", "143556.727000", "143556.730000", "143556.733000", "143556.736000", "143556.739000", "143556.742000", "143556.745000", "143556.748000", "143556.760000", "143556.763000", "143556.766000", "143556.769000", "143556.772000", "143616.705000", "143616.708000", "143616.711000", "143616.714000", "143616.717000", "143616.720000", "143616.723000", "143616.727000", "143616.730000", "143616.733000", "143616.736000", "143616.739000", "143616.742000", "143616.745000", "143616.748000", "143616.751000", "143616.754000", "143616.757000", "143616.760000", "143616.763000", "143623.873000", "143623.876000", "143623.879000", "143623.882000", "143623.885000", "143623.888000", "143623.891000", "143623.894000"],
      "InstanceCreationTime": ["143236.738000", "143236.742000", "143236.745000", "143236.747000", "143236.751000", "143236.754000", "143236.757000", "143236.759000", "143236.763000", "143236.766000", "143236.769000", "143236.772000", "143236.775000", "143236.778000", "143236.783000", "143236.786000", "143236.789000", "143236.792000", "143236.795000", "143236.798000", "143236.802000", "143236.804000", "143236.807000", "143236.811000", "143236.814000", "143236.817000", "143236.820000", "143236.823000", "143236.826000", "143236.829000", "143236.832000", "143236.835000", "143236.838000", "143236.841000", "143256.705000", "143256.708000", "143256.715000", "143256.718000", "143256.721000", "143256.724000", "143256.727000", "143256.730000", "143256.733000", "143256.736000", "143256.739000", "143256.742000", "143256.745000", "143256.749000", "143256.752000", "143256.755000", "143256.758000", "143256.761000", "143256.764000", "143256.767000", "143256.769000", "143256.773000", "143256.776000", "143256.778000", "143256.782000", "143256.785000", "143256.788000", "143256.791000", "143316.705000", "143316.708000", "143316.711000", "143316.714000", "143316.717000", "143316.720000", "143316.723000", "143316.726000", "143316.729000", "143316.733000", "143316.735000", "143316.739000", "143316.742000", "143316.744000", "143316.747000", "143316.751000", "143316.754000", "143316.756000", "143316.759000", "143316.763000", "143316.774000", "143316.777000", "143316.780000", "143316.783000", "143316.786000", "143316.789000", "143316.792000", "143316.795000", "143316.798000", "143336.705000", "143336.708000", "143336.711000", "143336.714000", "143336.717000", "143336.720000", "143336.723000", "143336.726000", "143336.729000", "143336.733000", "143336.736000", "143336.739000", "143336.742000", "143336.745000", "143336.748000", "143336.751000", "143336.754000", "143336.757000", "143336.760000", "143336.763000", "143336.766000", "143336.769000", "143336.772000", "143336.775000", "143336.778000", "143336.781000", "143336.784000", "143336.787000", "143356.705000", "143356.708000", "143356.711000", "143356.714000", "143356.717000", "143356.720000", "143356.723000", "143356.726000", "143356.729000", "143356.732000", "143356.735000", "143356.738000", "143356.741000", "143356.744000", "143356.748000", "143356.751000", "143356.754000", "143356.757000", "143356.760000", "143356.763000", "143356.766000", "143356.768000", "143356.772000", "143356.775000", "143356.777000", "143356.781000", "143356.784000", "143356.787000", "143416.706000", "143416.709000", "143416.712000", "143416.715000", "143416.718000", "143416.721000", "143416.724000", "143416.727000", "143416.730000", "143416.733000", "143416.736000", "143416.739000", "143416.743000", "143416.746000", "143416.749000", "143416.752000", "143416.755000", "143416.758000", "143416.761000", "143416.764000", "143416.773000", "143416.776000", "143416.796000", "143416.799000", "143416.804000", "143436.706000", "143436.709000", "143436.712000", "143436.715000", "143436.718000", "143436.721000", "143436.724000", "143436.727000", "143436.730000", "143436.734000", "143436.736000", "143436.740000", "143436.743000", "143436.745000", "143436.748000", "143436.752000", "143436.755000", "143436.758000", "143436.761000", "143436.764000", "143456.705000", "143456.708000", "143456.711000", "143456.714000", "143456.717000", "143456.720000", "143456.723000", "143456.726000", "143456.729000", "143456.732000", "143456.735000", "143456.739000", "143456.741000", "143456.745000", "143456.748000", "143456.751000", "143456.754000", "143456.761000", "143456.764000", "143456.767000", "143516.705000", "143516.708000", "143516.711000", "143516.714000", "143516.717000", "143516.720000", "143516.723000", "143516.726000", "143516.730000", "143516.732000", "143516.735000", "143516.739000", "143516.742000", "143516.745000", "143516.748000", "143516.751000", "143516.754000", "143516.757000", "143516.760000", "143516.763000", "143536.705000", "143536.708000", "143536.711000", "143536.714000", "143536.717000", "143536.720000", "143536.723000", "143536.726000", "143536.730000", "143536.733000", "143536.736000", "143536.739000", "143536.742000", "143536.745000", "143536.748000", "143536.751000", "143536.754000", "143536.757000", "143536.760000", "143536.763000", "143556.705000", "143556.708000", "143556.711000", "143556.715000", "143556.718000", "143556.720000", "143556.723000", "143556.727000", "143556.730000", "143556.733000", "143556.736000", "143556.739000", "143556.742000", "143556.745000", "143556.748000", "143556.760000", "143556.763000", "143556.766000", "143556.769000", "143556.772000", "143616.705000", "143616.708000", "143616.711000", "143616.714000", "143616.717000", "143616.720000", "143616.723000", "143616.727000", "143616.730000", "143616.733000", "143616.736000", "143616.739000", "143616.742000", "143616.745000", "143616.748000", "143616.751000", "143616.754000", "143616.757000", "143616.760000", "143616.763000", "143623.873000", "143623.876000", "143623.879000", "143623.882000", "143623.885000", "143623.888000", "143623.891000", "143623.894000"],
      "InstanceNumber": [1, 2, 3, 4, 5, 6, 7, 8, 9, 10, 11, 12, 13, 14, 15, 16, 17, 18, 19, 20, 21, 22, 23, 24, 25, 26, 27, 28, 29, 30, 31, 32, 33, 34, 35, 36, 37, 38, 39, 40, 41, 42, 43, 44, 45, 46, 47, 48, 49, 50, 51, 52, 53, 54, 55, 56, 57, 58, 59, 60, 61, 62, 63, 64, 65, 66, 67, 68, 69, 70, 71, 72, 73, 74, 75, 76, 77, 78, 79, 80, 81, 82, 83, 84, 85, 86, 87, 88, 89, 90, 91, 92, 93, 94, 95, 96, 97, 98, 99, 100, 101, 102, 103, 104, 105, 106, 107, 108, 109, 110, 111, 112, 113, 114, 115, 116, 117, 118, 119, 120, 121, 122, 123, 124, 125, 126, 127, 128, 129, 130, 131, 132, 133, 134, 135, 136, 137, 138, 139, 140, 141, 142, 143, 144, 145, 146, 147, 148, 149, 150, 151, 152, 153, 154, 155, 156, 157, 158, 159, 160, 161, 162, 163, 164, 165, 166, 167, 168, 169, 170, 171, 172, 173, 174, 175, 176, 177, 178, 179, 180, 181, 182, 183, 184, 185, 186, 187, 188, 189, 190, 191, 192, 193, 194, 195, 196, 197, 198, 199, 200, 201, 202, 203, 204, 205, 206, 207, 208, 209, 210, 211, 212, 213, 214, 215, 216, 217, 218, 219, 220, 221, 222, 223, 224, 225, 226, 227, 228, 229, 230, 231, 232, 233, 234, 235, 236, 237, 238, 239, 240, 241, 242, 243, 244, 245, 246, 247, 248, 249, 250, 251, 252, 253, 254, 255, 256, 257, 258, 259, 260, 261, 262, 263, 264, 265, 266, 267, 268, 269, 270, 271, 272, 273, 274, 275, 276, 277, 278, 279, 280, 281, 282, 283, 284, 285, 286, 287, 288, 289, 290, 291, 292, 293, 294, 295, 296, 297, 298, 299, 300],
      "LargestImagePixelValue": [37180, 36597, 36223, 35814, 35718, 35606, 35681, 35370, 35370, 35739, 35532, 34858, 35124, 35851, 35481, 34990, 35338, 35747, 35291, 35382, 35342, 35820, 35759, 35243, 35416, 35738, 35123, 35266, 35223, 35036, 35573, 35757, 35623, 35714, 35350, 35280, 35399, 35618, 34898, 35069, 35608, 35270, 35114, 35095, 35402, 35600, 35414, 34730, 35056, 35709, 35247, 35216, 35821, 34761, 34900, 35863, 35382, 34678, 35595, 34812, 34785, 35263, 34860, 34494, 35398, 34793, 34979, 35039, 35748, 34746, 35094, 35597, 34491, 34706, 35358, 34492, 34779, 35085, 35210, 34508, 34969, 35346, 35799, 36435, 34999, 34118, 35644, 35662, 34798, 35415, 35834, 35704, 35681, 36325, 35879, 35491, 35661, 36065, 35754, 35421, 35932, 35333, 35803, 36492, 35947, 35482, 36465, 35814, 35728, 36395, 36171, 35757, 36063, 36671, 35926, 36064, 36454, 35792, 36135, 35960, 35346, 35850, 36445, 35803, 35454, 36109, 35926, 36227, 36360, 36185, 35848, 36261, 36542, 36209, 35564, 36808, 36246, 35841, 36451, 36139, 36157, 36797, 36552, 35743, 36300, 36211, 35859, 36389, 36206, 36065, 36316, 36615, 36373, 36220, 36101, 35903, 36800, 36368, 35817, 36865, 36550, 36100, 36899, 36560, 36039, 35717, 36908, 35878, 35719, 36575, 35737, 35812, 36589, 36345, 35852, 36264, 36544, 36434, 36320, 36730, 36115, 35593, 35971, 36635, 35940, 35834, 36427, 36280, 36076, 36035, 36291, 35942, 35896, 36856, 36353, 35697, 36108, 36947, 36113, 35963, 36964, 36746, 36287, 36232, 36709, 35918, 36493, 36816, 36165, 35914, 37059, 36580, 36060, 37261, 36259, 36009, 36579, 36522, 36013, 35914, 36102, 36256, 36223, 35884, 36022, 36394, 36401, 36262, 36069, 36550, 36529, 35860, 36116, 36704, 35977, 35690, 36936, 37254, 36469, 36411, 36490, 36205, 35828, 35800, 35808, 35913, 36028, 35792, 35975, 36113, 36046, 36339, 37005, 36664, 35982, 37031, 36620, 36008, 36403, 36369, 35902, 36214, 36424, 36188, 36185, 35976, 36252, 35571, 35689, 35522, 36013, 35900, 36168, 36191, 35716, 37525, 35840, 36444, 35651, 35736, 36372, 35786, 35936, 35864, 36013, 36061, 35878, 35493, 36203, 36009, 35880, 35999, 36267, 36137, 35969, 35630, 36065, 36158, 35650, 36061],
      "WindowCenter": [9413.0, 9382.0, 9360.0, 9349.0, 9357.0, 9367.0, 9376.0, 9380.0, 9370.0, 9369.0, 9363.0, 9339.0, 9343.0, 9348.0, 9333.0, 9332.0, 9349.0, 9375.0, 9372.0, 9386.0, 9389.0, 9396.0, 9385.0, 9370.0, 9369.0, 9367.0, 9360.0, 9367.0, 9369.0, 9378.0, 9384.0, 9384.0, 9384.0, 9393.0, 9389.0, 9398.0, 9405.0, 9392.0, 9366.0, 9354.0, 9350.0, 9335.0, 9334.0, 9351.0, 9366.0, 9377.0, 9380.0, 9381.0, 9374.0, 9379.0, 9346.0, 9336.0, 9348.0, 9335.0, 9336.0, 9364.0, 9358.0, 9349.0, 9377.0, 9363.0, 9358.0, 9363.0, 9355.0, 9348.0, 9361.0, 9347.0, 9345.0, 9342.0, 9349.0, 9328.0, 9339.0, 9344.0, 9331.0, 9332.0, 9345.0, 9331.0, 9329.0, 9336.0, 9341.0, 9338.0, 9349.0, 9357.0, 9369.0, 9394.0, 9359.0, 9341.0, 9346.0, 9359.0, 9347.0, 9354.0, 9352.0, 9347.0, 9332.0, 9343.0, 9330.0, 9331.0, 9332.0, 9336.0, 9320.0, 9313.0, 9320.0, 9314.0, 9327.0, 9345.0, 9339.0, 9358.0, 9391.0, 9378.0, 9378.0, 9391.0, 9382.0, 9369.0, 9367.0, 9371.0, 9358.0, 9357.0, 9371.0, 9367.0, 9369.0, 9359.0, 9338.0, 9339.0, 9337.0, 9321.0, 9307.0, 9327.0, 9320.0, 9336.0, 9354.0, 9365.0, 9375.0, 9390.0, 9383.0, 9381.0, 9355.0, 9371.0, 9340.0, 9332.0, 9337.0, 9323.0, 9321.0, 9339.0, 9334.0, 9322.0, 9331.0, 9321.0, 9320.0, 9325.0, 9319.0, 9314.0, 9327.0, 9352.0, 9362.0, 9366.0, 9369.0, 9360.0, 9356.0, 9331.0, 9321.0, 9326.0, 9327.0, 9334.0, 9350.0, 9354.0, 9354.0, 9350.0, 9372.0, 9359.0, 9360.0, 9373.0, 9353.0, 9358.0, 9364.0, 9364.0, 9358.0, 9365.0, 9356.0, 9354.0, 9345.0, 9351.0, 9322.0, 9317.0, 9323.0, 9339.0, 9340.0, 9351.0, 9366.0, 9360.0, 9358.0, 9359.0, 9359.0, 9351.0, 9351.0, 9364.0, 9347.0, 9344.0, 9342.0, 9345.0, 9323.0, 9330.0, 9350.0, 9344.0, 9339.0, 9340.0, 9353.0, 9334.0, 9354.0, 9371.0, 9359.0, 9354.0, 9388.0, 9376.0, 9369.0, 9396.0, 9379.0, 9380.0, 9386.0, 9377.0, 9360.0, 9354.0, 9344.0, 9341.0, 9340.0, 9353.0, 9361.0, 9383.0, 9385.0, 9380.0, 9378.0, 9377.0, 9359.0, 9343.0, 9341.0, 9347.0, 9326.0, 9317.0, 9338.0, 9326.0, 9324.0, 9351.0, 9379.0, 9377.0, 9363.0, 9338.0, 9302.0, 9273.0, 9252.0, 9234.0, 9241.0, 9264.0, 9283.0, 9302.0, 9317.0, 9329.0, 9325.0, 9355.0, 9350.0, 9363.0, 9380.0, 9380.0, 9367.0, 9365.0, 9364.0, 9353.0, 9352.0, 9347.0, 9354.0, 9356.0, 9365.0, 9377.0, 9381.0, 9374.0, 9382.0, 9365.0, 9342.0, 9355.0, 9329.0, 9344.0, 9321.0, 9330.0, 9359.0, 9356.0, 9366.0, 9379.0, 9384.0, 9375.0, 9359.0, 9351.0, 9349.0, 9336.0, 9331.0, 9335.0, 9340.0, 9335.0, 9340.0, 9346.0, 9354.0, 9353.0, 9348.0, 9354.0],
