{
  "AcquisitionMatrixPE": 104,
  "AcquisitionNumber": 1,
  "AcquisitionTime": "15:13:18.125000",
  "BandwidthPerPixelPhaseEncode": 16.578,
  "BaseResolution": 104,
  "BodyPartExamined": "BRAIN",
  "ConsistencyInfo": "N4_VE11C_LATEST_20160120",
  "ConversionSoftware": "dcm2niix",
  "ConversionSoftwareVersion": "v1.0.20190902",
  "DerivedVendorReportedEchoSpacing": 0.000580009,
  "DeviceSerialNumber": "166018",
  "DwellTime": 2.1e-06,
  "EchoTime": 0.037,
  "EchoTrainLength": 104,
  "EffectiveEchoSpacing": 0.000580009,
  "FlipAngle": 68,
  "ImageComments": "Unaliased_MB6_PE3_LB",
  "ImageOrientationPatientDICOM": [0.9964, -0.0642978, 0.0552591, 0.0708984, 0.989335, -0.127238],
  "ImageType": [
    "ORIGINAL",
    "PRIMARY",
    "M",
    "MB",
    "ND",
    "MOSAIC"
],
  "ImagingFrequency": 123.191,
  "InPlanePhaseEncodingDirectionDICOM": "COL",
  "InstitutionAddress": "Washington_Place_6_NYC_NYC_US_10003",
  "InstitutionName": "NYU_-_CBI",
  "InstitutionalDepartmentName": "Department",
  "MRAcquisitionType": "2D",
  "MagneticFieldStrength": 3,
  "Manufacturer": "Siemens",
  "ManufacturersModelName": "Prisma",
  "Modality": "MR",
  "MultibandAccelerationFactor": 6,
  "PartialFourier": 1,
  "PatientPosition": "HFS",
  "PercentPhaseFOV": 100,
  "PhaseEncodingDirection": "j",
  "PhaseEncodingSteps": 104,
  "PhaseResolution": 1,
  "PixelBandwidth": 2290,
  "ProcedureStepDescription": "Investigators_Winawer",
  "ProtocolName": "cmrr_mbepi_s6_2mm_66sl_PA_task-prf",
  "PulseSequenceDetails": "%CustomerSeq%_cmrr_mbep2d_bold",
  "ReceiveCoilActiveElements": "HC1-7",
  "ReceiveCoilName": "HeadNeck_64",
  "ReconMatrixPE": 104,
  "RepetitionTime": 1,
  "SAR": 0.0673601,
  "ScanOptions": "FS",
  "ScanningSequence": "EP",
  "SequenceName": "epfid2d1_104",
  "SequenceVariant": "SK_SS",
  "SeriesDescription": "cmrr_mbepi_s6_2mm_66sl_PA_task-prf",
  "SeriesNumber": 18,
  "ShimSetting": [261, -12646, -8425, 301, -13, -271, 17, 51],
  "SliceThickness": 2,
  "SliceTiming": [0, 0.535, 0.0875, 0.6225, 0.1775, 0.7125, 0.2675, 0.8025, 0.355, 0.89, 0.445, 0, 0.535, 0.0875, 0.6225, 0.1775, 0.7125, 0.2675, 0.8025, 0.355, 0.89, 0.445, 0, 0.535, 0.0875, 0.6225, 0.1775, 0.7125, 0.2675, 0.8025, 0.355, 0.89, 0.445, 0, 0.535, 0.0875, 0.6225, 0.1775, 0.7125, 0.2675, 0.8025, 0.355, 0.89, 0.445, 0, 0.535, 0.0875, 0.6225, 0.1775, 0.7125, 0.2675, 0.8025, 0.355, 0.89, 0.445, 0, 0.535, 0.0875, 0.6225, 0.1775, 0.7125, 0.2675, 0.8025, 0.355, 0.89, 0.445],
  "SoftwareVersions": "syngo_MR_E11",
  "SpacingBetweenSlices": 2,
  "StationName": "AWP166018",
  "TaskName": "prf",
  "TotalReadoutTime": 0.0597409,
  "TxRefAmp": 215.024,
  "WipMemBlock": "70dbab78-ea57-4199-82d7-a0f1dc99c6a1||Sequence: R016 ve11c/master r/8780670; Nov 27 2017 15:05:12 by eja",
  "dcmmeta_affine": [
    [-1.9927992820739746, 0.14179673790931702, 0.09297719597816467, 104.64225006103516],
    [0.12859554588794708, 1.9786701202392578, -0.2613958418369293, -81.9386978149414],
    [0.11051813513040543, 0.25447648763656616, 1.9806634187698364, -49.38460922241211],
    [0.0, 0.0, 0.0, 1.0]
],
  "dcmmeta_reorient_transform": [
    [0.0, -1.0, 0.0, 103.0],
    [1.0, 0.0, 0.0, 0.0],
    [0.0, 0.0, 1.0, 0.0],
    [0.0, 0.0, 0.0, 1.0]
],
  "dcmmeta_shape": [104, 104, 66, 192],
  "dcmmeta_slice_dim": 2,
  "dcmmeta_version": 0.6,
  "global": {
    "const": {
      "AccessionNumber": "jo097yqd",
      "AcquisitionMatrix": [104, 0, 0, 104],
      "AngioFlag": "N",
      "BitsAllocated": 16,
      "BitsStored": 16,
      "BodyPartExamined": "BRAIN",
      "Columns": 936,
      "EchoNumbers": 1,
      "EchoTime": 37.0,
      "EchoTrainLength": 104,
      "FlipAngle": 68.0,
      "HighBit": 15,
      "ImageOrientationPatient": [0.99639963470853, -0.064297771156, 0.05525906782677, 0.07089836605073, 0.98933505407746, -0.1272382507931],
      "ImagePositionPatient": [-1007.2392531049, -891.49533916682, 36.713150556175],
      "ImageType": [
        "ORIGINAL",
        "PRIMARY",
        "M",
        "MB",
        "ND",
        "MOSAIC"
],
      "ImagedNucleus": "1H",
      "ImagingFrequency": 123.190943,
      "InPlanePhaseEncodingDirection": "COL",
      "MRAcquisitionType": "2D",
      "MagneticFieldStrength": 3.0,
      "Manufacturer": "SIEMENS",
      "ManufacturerModelName": "Prisma",
      "Modality": "MR",
      "NumberOfAverages": 1.0,
      "NumberOfPhaseEncodingSteps": 104,
      "PercentPhaseFieldOfView": 100.0,
      "PercentSampling": 100.0,
      "PerformedProcedureStepStartTime": "143324.930000",
      "PhotometricInterpretation": "MONOCHROME2",
      "PixelBandwidth": 2290.0,
      "PixelRepresentation": 0,
      "PixelSpacing": [2.0, 2.0],
      "ProtocolName": "cmrr_mbepi_s6_2mm_66sl_PA_task-prf",
      "RepetitionTime": 1000.0,
      "Rows": 936,
      "SAR": 0.06736012406692,
      "SamplesPerPixel": 1,
      "ScanOptions": "FS",
      "ScanningSequence": "EP",
      "SequenceName": "epfid2d1_104",
      "SequenceVariant": [
        "SK",
        "SS"
],
      "SeriesDescription": "cmrr_mbepi_s6_2mm_66sl_PA_task-prf",
      "SeriesNumber": 18,
      "SeriesTime": "151418.542000",
      "SliceLocation": -33.333254084509,
      "SliceThickness": 2.0,
      "SmallestImagePixelValue": 0,
      "SoftwareVersions": "syngo MR E11",
      "SpacingBetweenSlices": 2.0000000026208,
      "SpecificCharacterSet": "ISO_IR 100",
      "StudyID": "1",
      "StudyTime": "143324.846000",
      "TransmitCoilName": "Body",
      "VariableFlipAngleFlag": "N",
      "WindowCenterWidthExplanation": "Algo1",
      "dBdt": 0.0},
    "slices": {}
  },
  "time": {
    "samples": {
      "AcquisitionNumber": [1, 2, 3, 4, 5, 6, 7, 8, 9, 10, 11, 12, 13, 14, 15, 16, 17, 18, 19, 20, 21, 22, 23, 24, 25, 26, 27, 28, 29, 30, 31, 32, 33, 34, 35, 36, 37, 38, 39, 40, 41, 42, 43, 44, 45, 46, 47, 48, 49, 50, 51, 52, 53, 54, 55, 56, 57, 58, 59, 60, 61, 62, 63, 64, 65, 66, 67, 68, 69, 70, 71, 72, 73, 74, 75, 76, 77, 78, 79, 80, 81, 82, 83, 84, 85, 86, 87, 88, 89, 90, 91, 92, 93, 94, 95, 96, 97, 98, 99, 100, 101, 102, 103, 104, 105, 106, 107, 108, 109, 110, 111, 112, 113, 114, 115, 116, 117, 118, 119, 120, 121, 122, 123, 124, 125, 126, 127, 128, 129, 130, 131, 132, 133, 134, 135, 136, 137, 138, 139, 140, 141, 142, 143, 144, 145, 146, 147, 148, 149, 150, 151, 152, 153, 154, 155, 156, 157, 158, 159, 160, 161, 162, 163, 164, 165, 166, 167, 168, 169, 170, 171, 172, 173, 174, 175, 176, 177, 178, 179, 180, 181, 182, 183, 184, 185, 186, 187, 188, 189, 190, 191, 192],
      "AcquisitionTime": ["151318.125000", "151319.125000", "151320.125000", "151321.125000", "151322.125000", "151323.125000", "151324.125000", "151325.125000", "151326.125000", "151327.125000", "151328.125000", "151329.125000", "151330.125000", "151331.125000", "151332.125000", "151333.125000", "151334.125000", "151335.125000", "151336.125000", "151337.125000", "151338.125000", "151339.125000", "151340.125000", "151341.125000", "151342.125000", "151343.125000", "151344.125000", "151345.125000", "151346.125000", "151347.125000", "151348.125000", "151349.125000", "151350.125000", "151351.125000", "151352.125000", "151353.125000", "151354.125000", "151355.125000", "151356.125000", "151357.125000", "151358.125000", "151359.125000", "151400.125000", "151401.125000", "151402.125000", "151403.125000", "151404.125000", "151405.125000", "151406.125000", "151407.125000", "151408.125000", "151409.125000", "151410.125000", "151411.125000", "151412.125000", "151413.125000", "151414.125000", "151415.125000", "151416.125000", "151417.125000", "151418.125000", "151419.125000", "151420.125000", "151421.125000", "151422.125000", "151423.125000", "151424.125000", "151425.125000", "151426.125000", "151427.125000", "151428.125000", "151429.125000", "151430.125000", "151431.125000", "151432.125000", "151433.125000", "151434.125000", "151435.125000", "151436.125000", "151437.125000", "151438.125000", "151439.125000", "151440.125000", "151441.125000", "151442.125000", "151443.125000", "151444.125000", "151445.125000", "151446.125000", "151447.125000", "151448.125000", "151449.125000", "151450.125000", "151451.125000", "151452.125000", "151453.125000", "151454.125000", "151455.125000", "151456.125000", "151457.125000", "151458.125000", "151459.125000", "151500.125000", "151501.125000", "151502.125000", "151503.125000", "151504.125000", "151505.125000", "151506.125000", "151507.125000", "151508.125000", "151509.125000", "151510.125000", "151511.125000", "151512.125000", "151513.125000", "151514.125000", "151515.125000", "151516.125000", "151517.125000", "151518.125000", "151519.125000", "151520.125000", "151521.125000", "151522.125000", "151523.125000", "151524.125000", "151525.125000", "151526.125000", "151527.125000", "151528.125000", "151529.125000", "151530.125000", "151531.125000", "151532.125000", "151533.125000", "151534.125000", "151535.125000", "151536.125000", "151537.125000", "151538.125000", "151539.125000", "151540.125000", "151541.125000", "151542.125000", "151543.125000", "151544.125000", "151545.125000", "151546.125000", "151547.125000", "151548.125000", "151549.125000", "151550.125000", "151551.125000", "151552.125000", "151553.125000", "151554.125000", "151555.125000", "151556.125000", "151557.125000", "151558.125000", "151559.125000", "151600.125000", "151601.125000", "151602.125000", "151603.125000", "151604.125000", "151605.125000", "151606.125000", "151607.125000", "151608.125000", "151609.125000", "151610.125000", "151611.125000", "151612.125000", "151613.125000", "151614.125000", "151615.125000", "151616.125000", "151617.125000", "151618.125000", "151619.125000", "151620.125000", "151621.125000", "151622.125000", "151623.125000", "151624.125000", "151625.125000", "151626.125000", "151627.125000", "151628.125000", "151629.125000"],
      "ContentTime": ["151418.544000", "151418.548000", "151418.565000", "151418.568000", "151418.571000", "151418.574000", "151418.577000", "151423.543000", "151423.546000", "151423.549000", "151423.552000", "151423.555000", "151423.558000", "151423.560000", "151423.563000", "151428.543000", "151428.546000", "151428.549000", "151428.552000", "151428.565000", "151428.575000", "151428.578000", "151433.543000", "151433.546000", "151433.549000", "151433.552000", "151433.554000", "151433.557000", "151433.560000", "151438.543000", "151438.546000", "151438.549000", "151438.552000", "151438.555000", "151438.557000", "151438.560000", "151443.543000", "151443.546000", "151443.549000", "151443.552000", "151443.555000", "151443.557000", "151443.560000", "151448.542000", "151448.545000", "151448.548000", "151448.551000", "151448.567000", "151448.570000", "151448.573000", "151453.543000", "151453.546000", "151453.549000", "151453.552000", "151453.555000", "151453.558000", "151453.560000", "151458.543000", "151458.546000", "151458.549000", "151458.552000", "151458.555000", "151458.558000", "151458.560000", "151503.543000", "151503.546000", "151503.549000", "151503.552000", "151503.555000", "151503.558000", "151503.560000", "151508.543000", "151508.546000", "151508.549000", "151508.552000", "151508.555000", "151508.558000", "151508.560000", "151513.543000", "151513.546000", "151513.549000", "151513.552000", "151513.555000", "151513.558000", "151513.560000", "151518.543000", "151518.546000", "151518.549000", "151518.552000", "151518.555000", "151518.558000", "151518.561000", "151523.542000", "151523.545000", "151523.548000", "151523.552000", "151523.555000", "151523.558000", "151523.561000", "151528.543000", "151528.547000", "151528.550000", "151528.553000", "151528.556000", "151528.559000", "151528.562000", "151533.543000", "151533.554000", "151533.557000", "151533.560000", "151533.563000", "151533.566000", "151533.569000", "151533.572000", "151538.543000", "151538.546000", "151538.549000", "151538.552000", "151538.555000", "151538.558000", "151538.561000", "151543.543000", "151543.546000", "151543.549000", "151543.552000", "151543.555000", "151543.558000", "151543.561000", "151548.543000", "151548.546000", "151548.549000", "151548.552000", "151548.555000", "151548.558000", "151548.561000", "151553.543000", "151553.546000", "151553.549000", "151553.552000", "151553.555000", "151553.558000", "151553.561000", "151558.543000", "151558.546000", "151558.549000", "151558.552000", "151558.555000", "151558.558000", "151558.561000", "151603.543000", "151603.546000", "151603.549000", "151603.552000", "151603.555000", "151603.558000", "151603.561000", "151608.543000", "151608.546000", "151608.549000", "151608.552000", "151608.555000", "151608.558000", "151608.561000", "151613.543000", "151613.546000", "151613.549000", "151613.552000", "151613.555000", "151613.558000", "151613.561000", "151618.543000", "151618.546000", "151618.549000", "151618.552000", "151618.555000", "151618.558000", "151618.561000", "151623.543000", "151623.546000", "151623.549000", "151623.552000", "151623.555000", "151623.558000", "151623.561000", "151628.543000", "151628.546000", "151628.549000", "151628.552000", "151628.555000", "151628.558000", "151630.478000", "151630.482000"],
      "InstanceCreationTime": ["151418.544000", "151418.548000", "151418.565000", "151418.568000", "151418.571000", "151418.574000", "151418.577000", "151423.543000", "151423.546000", "151423.549000", "151423.552000", "151423.555000", "151423.558000", "151423.560000", "151423.563000", "151428.543000", "151428.546000", "151428.549000", "151428.552000", "151428.565000", "151428.575000", "151428.578000", "151433.543000", "151433.546000", "151433.549000", "151433.552000", "151433.554000", "151433.557000", "151433.560000", "151438.543000", "151438.546000", "151438.549000", "151438.552000", "151438.555000", "151438.557000", "151438.560000", "151443.543000", "151443.546000", "151443.549000", "151443.552000", "151443.555000", "151443.557000", "151443.560000", "151448.542000", "151448.545000", "151448.548000", "151448.551000", "151448.567000", "151448.570000", "151448.573000", "151453.543000", "151453.546000", "151453.549000", "151453.552000", "151453.555000", "151453.558000", "151453.560000", "151458.543000", "151458.546000", "151458.549000", "151458.552000", "151458.555000", "151458.558000", "151458.560000", "151503.543000", "151503.546000", "151503.549000", "151503.552000", "151503.555000", "151503.558000", "151503.560000", "151508.543000", "151508.546000", "151508.549000", "151508.552000", "151508.555000", "151508.558000", "151508.560000", "151513.543000", "151513.546000", "151513.549000", "151513.552000", "151513.555000", "151513.558000", "151513.560000", "151518.543000", "151518.546000", "151518.549000", "151518.552000", "151518.555000", "151518.558000", "151518.561000", "151523.542000", "151523.545000", "151523.548000", "151523.552000", "151523.555000", "151523.558000", "151523.561000", "151528.543000", "151528.547000", "151528.550000", "151528.553000", "151528.556000", "151528.559000", "151528.562000", "151533.543000", "151533.554000", "151533.557000", "151533.560000", "151533.563000", "151533.566000", "151533.569000", "151533.572000", "151538.543000", "151538.546000", "151538.549000", "151538.552000", "151538.555000", "151538.558000", "151538.561000", "151543.543000", "151543.546000", "151543.549000", "151543.552000", "151543.555000", "151543.558000", "151543.561000", "151548.543000", "151548.546000", "151548.549000", "151548.552000", "151548.555000", "151548.558000", "151548.561000", "151553.543000", "151553.546000", "151553.549000", "151553.552000", "151553.555000", "151553.558000", "151553.561000", "151558.543000", "151558.546000", "151558.549000", "151558.552000", "151558.555000", "151558.558000", "151558.561000", "151603.543000", "151603.546000", "151603.549000", "151603.552000", "151603.555000", "151603.558000", "151603.561000", "151608.543000", "151608.546000", "151608.549000", "151608.552000", "151608.555000", "151608.558000", "151608.561000", "151613.543000", "151613.546000", "151613.549000", "151613.552000", "151613.555000", "151613.558000", "151613.561000", "151618.543000", "151618.546000", "151618.549000", "151618.552000", "151618.555000", "151618.558000", "151618.561000", "151623.543000", "151623.546000", "151623.549000", "151623.552000", "151623.555000", "151623.558000", "151623.561000", "151628.543000", "151628.546000", "151628.549000", "151628.552000", "151628.555000", "151628.558000", "151630.478000", "151630.482000"],
      "InstanceNumber": [1, 2, 3, 4, 5, 6, 7, 8, 9, 10, 11, 12, 13, 14, 15, 16, 17, 18, 19, 20, 21, 22, 23, 24, 25, 26, 27, 28, 29, 30, 31, 32, 33, 34, 35, 36, 37, 38, 39, 40, 41, 42, 43, 44, 45, 46, 47, 48, 49, 50, 51, 52, 53, 54, 55, 56, 57, 58, 59, 60, 61, 62, 63, 64, 65, 66, 67, 68, 69, 70, 71, 72, 73, 74, 75, 76, 77, 78, 79, 80, 81, 82, 83, 84, 85, 86, 87, 88, 89, 90, 91, 92, 93, 94, 95, 96, 97, 98, 99, 100, 101, 102, 103, 104, 105, 106, 107, 108, 109, 110, 111, 112, 113, 114, 115, 116, 117, 118, 119, 120, 121, 122, 123, 124, 125, 126, 127, 128, 129, 130, 131, 132, 133, 134, 135, 136, 137, 138, 139, 140, 141, 142, 143, 144, 145, 146, 147, 148, 149, 150, 151, 152, 153, 154, 155, 156, 157, 158, 159, 160, 161, 162, 163, 164, 165, 166, 167, 168, 169, 170, 171, 172, 173, 174, 175, 176, 177, 178, 179, 180, 181, 182, 183, 184, 185, 186, 187, 188, 189, 190, 191, 192],
      "LargestImagePixelValue": [41867, 41408, 40978, 40440, 39218, 40263, 40504, 39024, 38800, 39246, 40887, 39164, 39047, 40737, 40755, 39415, 39490, 39887, 40140, 40953, 38937, 38830, 40175, 40604, 39406, 38914, 39186, 40321, 38957, 38956, 39662, 40149, 39811, 38609, 39188, 39844, 40778, 38935, 39499, 40512, 40026, 39774, 40039, 41070, 38620, 40475, 40360, 40638, 39212, 38820, 39631, 40967, 38867, 39973, 41254, 38847, 39805, 41022, 39275, 39805, 40839, 39872, 39767, 40321, 41371, 39266, 40288, 42026, 39903, 39892, 41299, 40796, 39332, 39789, 39770, 40351, 39308, 38868, 40175, 42340, 38873, 39696, 41259, 41325, 39495, 40474, 40858, 41080, 38960, 39859, 39887, 41393, 38901, 39698, 41717, 39492, 39889, 39541, 41418, 39340, 39291, 40486, 41138, 39410, 39546, 40841, 39955, 38845, 40221, 40311, 39160, 39109, 39873, 41689, 39055, 39391, 41252, 40864, 40017, 40476, 40934, 39625, 40413, 40385, 39982, 38970, 39712, 40544, 39461, 39409, 40035, 38904, 39527, 40740, 40510, 39783, 39406, 40281, 39830, 40460, 39757, 40408, 40473, 39899, 39748, 40301, 40482, 39736, 40412, 40126, 39471, 40473, 39269, 40004, 40361, 41090, 39929, 40535, 39821, 40428, 40211, 39238, 39290, 40316, 40196, 39487, 39784, 41295, 39301, 39529, 39481, 40308, 40128, 39720, 39417, 40508, 39514, 39485, 40100, 41207, 40396, 40247, 41740, 40118, 40559, 41027, 40543, 40136, 40196, 40278, 40846, 39347],
      "WindowCenter": [10552.0, 10521.0, 10497.0, 10491.0, 10476.0, 10484.0, 10482.0, 10467.0, 10461.0, 10469.0, 10477.0, 10452.0, 10451.0, 10469.0, 10463.0, 10448.0, 10453.0, 10453.0, 10458.0, 10459.0, 10433.0, 10427.0, 10455.0, 10463.0, 10454.0, 10457.0, 10456.0, 10472.0, 10459.0, 10465.0, 10470.0, 10470.0, 10461.0, 10452.0, 10445.0, 10458.0, 10457.0, 10442.0, 10448.0, 10469.0, 10460.0, 10462.0, 10469.0, 10476.0, 10451.0, 10465.0, 10459.0, 10454.0, 10432.0, 10418.0, 10421.0, 10436.0, 10425.0, 10443.0, 10466.0, 10446.0, 10455.0, 10470.0, 10457.0, 10457.0, 10470.0, 10454.0, 10447.0, 10457.0, 10468.0, 10455.0, 10466.0, 10480.0, 10460.0, 10461.0, 10469.0, 10448.0, 10425.0, 10421.0, 10415.0, 10427.0, 10430.0, 10428.0, 10444.0, 10463.0, 10430.0, 10439.0, 10454.0, 10453.0, 10432.0, 10443.0, 10449.0, 10454.0, 10438.0, 10447.0, 10448.0, 10461.0, 10438.0, 10436.0, 10451.0, 10419.0, 10423.0, 10423.0, 10433.0, 10417.0, 10430.0, 10442.0, 10452.0, 10439.0, 10448.0, 10466.0, 10461.0, 10448.0, 10462.0, 10461.0, 10445.0, 10445.0, 10454.0, 10467.0, 10445.0, 10448.0, 10462.0, 10456.0, 10447.0, 10458.0, 10458.0, 10447.0, 10451.0, 10452.0, 10452.0, 10444.0, 10443.0, 10450.0, 10442.0, 10450.0, 10467.0, 10468.0, 10479.0, 10482.0, 10472.0, 10456.0, 10448.0, 10445.0, 10432.0, 10448.0, 10446.0, 10452.0, 10451.0, 10448.0, 10441.0, 10442.0, 10442.0, 10432.0, 10438.0, 10438.0, 10433.0, 10434.0, 10426.0, 10437.0, 10451.0, 10457.0, 10447.0, 10453.0, 10450.0, 10454.0, 10454.0, 10449.0, 10448.0, 10459.0, 10463.0, 10452.0, 10458.0, 10476.0, 10457.0, 10457.0, 10451.0, 10448.0, 10445.0, 10446.0, 10444.0, 10460.0, 10452.0, 10459.0, 10466.0, 10472.0, 10469.0, 10475.0, 10490.0, 10477.0, 10483.0, 10481.0, 10465.0, 10446.0, 10445.0, 10444.0, 10447.0, 10441.0],
      "WindowWidth": [22770.0, 22669.0, 22597.0, 22575.0, 22543.0, 22552.0, 22545.0, 22514.0, 22498.0, 22511.0, 22527.0, 22473.0, 22471.0, 22507.0, 22491.0, 22463.0, 22473.0, 22473.0, 22483.0, 22485.0, 22429.0, 22416.0, 22476.0, 22495.0, 22482.0, 22489.0, 22485.0, 22518.0, 22496.0, 22511.0, 22519.0, 22516.0, 22496.0, 22476.0, 22457.0, 22482.0, 22479.0, 22451.0, 22462.0, 22509.0, 22491.0, 22498.0, 22514.0, 22525.0, 22475.0, 22499.0, 22483.0, 22469.0, 22421.0, 22389.0, 22391.0, 22423.0, 22406.0, 22444.0, 22494.0, 22458.0, 22474.0, 22506.0, 22480.0, 22481.0, 22505.0, 22472.0, 22455.0, 22477.0, 22500.0, 22476.0, 22501.0, 22528.0, 22488.0, 22490.0, 22504.0, 22452.0, 22403.0, 22392.0, 22377.0, 22405.0, 22415.0, 22414.0, 22449.0, 22485.0, 22420.0, 22436.0, 22467.0, 22462.0, 22422.0, 22444.0, 22460.0, 22469.0, 22443.0, 22459.0, 22462.0, 22484.0, 22438.0, 22430.0, 22456.0, 22389.0, 22394.0, 22396.0, 22416.0, 22385.0, 22415.0, 22443.0, 22461.0, 22439.0, 22461.0, 22500.0, 22492.0, 22467.0, 22492.0, 22489.0, 22456.0, 22455.0, 22473.0, 22497.0, 22456.0, 22460.0, 22488.0, 22476.0, 22458.0, 22481.0, 22479.0, 22456.0, 22464.0, 22466.0, 22468.0, 22454.0, 22448.0, 22461.0, 22448.0, 22466.0, 22506.0, 22511.0, 22532.0, 22538.0, 22511.0, 22475.0, 22458.0, 22447.0, 22416.0, 22452.0, 22452.0, 22464.0, 22463.0, 22460.0, 22443.0, 22441.0, 22439.0, 22419.0, 22431.0, 22431.0, 22421.0, 22419.0, 22404.0, 22427.0, 22461.0, 22474.0, 22455.0, 22467.0, 22465.0, 22471.0, 22473.0, 22463.0, 22459.0, 22482.0, 22490.0, 22468.0, 22482.0, 22520.0, 22482.0, 22482.0, 22467.0, 22457.0, 22447.0, 22452.0, 22449.0, 22482.0, 22471.0, 22487.0, 22501.0, 22511.0, 22507.0, 22524.0, 22555.0, 22528.0, 22540.0, 22533.0, 22494.0, 22452.0, 22445.0, 22443.0, 22449.0, 22442.0]
    },
    "slices": {}
  },
  "NumberOfVolumes": 192
}