{
  "AcquisitionMatrixPE": 104,
  "AcquisitionNumber": 1,
  "AcquisitionTime": "14:48:43.610000",
  "BandwidthPerPixelPhaseEncode": 16.578,
  "BaseResolution": 104,
  "BodyPartExamined": "BRAIN",
  "ConsistencyInfo": "N4_VE11C_LATEST_20160120",
  "ConversionSoftware": "dcm2niix",
  "ConversionSoftwareVersion": "v1.0.20190902",
  "DerivedVendorReportedEchoSpacing": 0.000580009,
  "DeviceSerialNumber": "166018",
  "DwellTime": 2.1e-06,
  "EchoTime": 0.037,
  "EchoTrainLength": 104,
  "EffectiveEchoSpacing": 0.000580009,
  "FlipAngle": 68,
  "ImageComments": "Unaliased_MB6_PE3_LB",
  "ImageOrientationPatientDICOM": [0.9964, -0.0642978, 0.0552591, 0.0708984, 0.989335, -0.127238],
  "ImageType": [
    "ORIGINAL",
    "PRIMARY",
    "M",
    "MB",
    "ND",
    "MOSAIC"
],
  "ImagingFrequency": 123.191,
  "InPlanePhaseEncodingDirectionDICOM": "COL",
  "InstitutionAddress": "Washington_Place_6_NYC_NYC_US_10003",
  "InstitutionName": "NYU_-_CBI",
  "InstitutionalDepartmentName": "Department",
  "MRAcquisitionType": "2D",
  "MagneticFieldStrength": 3,
  "Manufacturer": "Siemens",
  "ManufacturersModelName": "Prisma",
  "Modality": "MR",
  "MultibandAccelerationFactor": 6,
  "PartialFourier": 1,
  "PatientPosition": "HFS",
  "PercentPhaseFOV": 100,
  "PhaseEncodingDirection": "j",
  "PhaseEncodingSteps": 104,
  "PhaseResolution": 1,
  "PixelBandwidth": 2290,
  "ProcedureStepDescription": "Investigators_Winawer",
  "ProtocolName": "cmrr_mbepi_s6_2mm_66sl_PA_task-prf",
  "PulseSequenceDetails": "%CustomerSeq%_cmrr_mbep2d_bold",
  "ReceiveCoilActiveElements": "HC1-7",
  "ReceiveCoilName": "HeadNeck_64",
  "ReconMatrixPE": 104,
  "RepetitionTime": 1,
  "SAR": 0.0673601,
  "ScanOptions": "FS",
  "ScanningSequence": "EP",
  "SequenceName": "epfid2d1_104",
  "SequenceVariant": "SK_SS",
  "SeriesDescription": "cmrr_mbepi_s6_2mm_66sl_PA_task-prf",
  "SeriesNumber": 8,
  "ShimSetting": [261, -12646, -8425, 301, -13, -271, 17, 51],
  "SliceThickness": 2,
  "SliceTiming": [0, 0.535, 0.09, 0.625, 0.18, 0.7125, 0.2675, 0.8025, 0.3575, 0.8925, 0.4475, 0, 0.535, 0.09, 0.625, 0.18, 0.7125, 0.2675, 0.8025, 0.3575, 0.8925, 0.4475, 0, 0.535, 0.09, 0.625, 0.18, 0.7125, 0.2675, 0.8025, 0.3575, 0.8925, 0.4475, 0, 0.535, 0.09, 0.625, 0.18, 0.7125, 0.2675, 0.8025, 0.3575, 0.8925, 0.4475, 0, 0.535, 0.09, 0.625, 0.18, 0.7125, 0.2675, 0.8025, 0.3575, 0.8925, 0.4475, 0, 0.535, 0.09, 0.625, 0.18, 0.7125, 0.2675, 0.8025, 0.3575, 0.8925, 0.4475],
  "SoftwareVersions": "syngo_MR_E11",
  "SpacingBetweenSlices": 2,
  "StationName": "AWP166018",
  "TaskName": "prf",
  "TotalReadoutTime": 0.0597409,
  "TxRefAmp": 215.024,
  "WipMemBlock": "6a9950d0-8e73-4024-93b5-4f538d576a08||Sequence: R016 ve11c/master r/8780670; Nov 27 2017 15:05:12 by eja",
  "dcmmeta_affine": [
    [-1.9927992820739746, 0.14179673790931702, 0.09297719597816467, 104.64225006103516],
    [0.12859554588794708, 1.9786701202392578, -0.2613958418369293, -81.9386978149414],
    [0.11051813513040543, 0.25447648763656616, 1.9806634187698364, -49.38460922241211],
    [0.0, 0.0, 0.0, 1.0]
],
  "dcmmeta_reorient_transform": [
    [0.0, -1.0, 0.0, 103.0],
    [1.0, 0.0, 0.0, 0.0],
    [0.0, 0.0, 1.0, 0.0],
    [0.0, 0.0, 0.0, 1.0]
],
  "dcmmeta_shape": [104, 104, 66, 192],
  "dcmmeta_slice_dim": 2,
  "dcmmeta_version": 0.6,
  "global": {
    "const": {
      "AccessionNumber": "jo097yqd",
      "AcquisitionMatrix": [104, 0, 0, 104],
      "AngioFlag": "N",
      "BitsAllocated": 16,
      "BitsStored": 16,
      "BodyPartExamined": "BRAIN",
      "Columns": 936,
      "EchoNumbers": 1,
      "EchoTime": 37.0,
      "EchoTrainLength": 104,
      "FlipAngle": 68.0,
      "HighBit": 15,
      "ImageOrientationPatient": [0.99639963470853, -0.064297771156, 0.05525906782677, 0.07089836605073, 0.98933505407746, -0.1272382507931],
      "ImagePositionPatient": [-1007.2392531049, -891.49533916682, 36.713150556175],
      "ImageType": [
        "ORIGINAL",
        "PRIMARY",
        "M",
        "MB",
        "ND",
        "MOSAIC"
],
      "ImagedNucleus": "1H",
      "ImagingFrequency": 123.190926,
      "InPlanePhaseEncodingDirection": "COL",
      "MRAcquisitionType": "2D",
      "MagneticFieldStrength": 3.0,
      "Manufacturer": "SIEMENS",
      "ManufacturerModelName": "Prisma",
      "Modality": "MR",
      "NumberOfAverages": 1.0,
      "NumberOfPhaseEncodingSteps": 104,
      "PercentPhaseFieldOfView": 100.0,
      "PercentSampling": 100.0,
      "PerformedProcedureStepStartTime": "143324.930000",
      "PhotometricInterpretation": "MONOCHROME2",
      "PixelBandwidth": 2290.0,
      "PixelRepresentation": 0,
      "PixelSpacing": [2.0, 2.0],
      "ProtocolName": "cmrr_mbepi_s6_2mm_66sl_PA_task-prf",
      "RepetitionTime": 1000.0,
      "Rows": 936,
      "SAR": 0.06736012406692,
      "SamplesPerPixel": 1,
      "ScanOptions": "FS",
      "ScanningSequence": "EP",
      "SequenceName": "epfid2d1_104",
      "SequenceVariant": [
        "SK",
        "SS"
],
      "SeriesDescription": "cmrr_mbepi_s6_2mm_66sl_PA_task-prf",
      "SeriesNumber": 8,
      "SeriesTime": "144940.522000",
      "SliceLocation": -33.333254084509,
      "SliceThickness": 2.0,
      "SmallestImagePixelValue": 0,
      "SoftwareVersions": "syngo MR E11",
      "SpacingBetweenSlices": 2.0000000026208,
      "SpecificCharacterSet": "ISO_IR 100",
      "StudyID": "1",
      "StudyTime": "143324.846000",
      "TransmitCoilName": "Body",
      "VariableFlipAngleFlag": "N",
      "WindowCenterWidthExplanation": "Algo1",
      "dBdt": 0.0},
    "slices": {}
  },
  "time": {
    "samples": {
      "AcquisitionNumber": [1, 2, 3, 4, 5, 6, 7, 8, 9, 10, 11, 12, 13, 14, 15, 16, 17, 18, 19, 20, 21, 22, 23, 24, 25, 26, 27, 28, 29, 30, 31, 32, 33, 34, 35, 36, 37, 38, 39, 40, 41, 42, 43, 44, 45, 46, 47, 48, 49, 50, 51, 52, 53, 54, 55, 56, 57, 58, 59, 60, 61, 62, 63, 64, 65, 66, 67, 68, 69, 70, 71, 72, 73, 74, 75, 76, 77, 78, 79, 80, 81, 82, 83, 84, 85, 86, 87, 88, 89, 90, 91, 92, 93, 94, 95, 96, 97, 98, 99, 100, 101, 102, 103, 104, 105, 106, 107, 108, 109, 110, 111, 112, 113, 114, 115, 116, 117, 118, 119, 120, 121, 122, 123, 124, 125, 126, 127, 128, 129, 130, 131, 132, 133, 134, 135, 136, 137, 138, 139, 140, 141, 142, 143, 144, 145, 146, 147, 148, 149, 150, 151, 152, 153, 154, 155, 156, 157, 158, 159, 160, 161, 162, 163, 164, 165, 166, 167, 168, 169, 170, 171, 172, 173, 174, 175, 176, 177, 178, 179, 180, 181, 182, 183, 184, 185, 186, 187, 188, 189, 190, 191, 192],
      "AcquisitionTime": ["144843.610000", "144844.610000", "144845.610000", "144846.610000", "144847.610000", "144848.610000", "144849.610000", "144850.610000", "144851.610000", "144852.610000", "144853.610000", "144854.610000", "144855.610000", "144856.610000", "144857.610000", "144858.610000", "144859.610000", "144900.610000", "144901.610000", "144902.610000", "144903.610000", "144904.610000", "144905.610000", "144906.610000", "144907.610000", "144908.610000", "144909.610000", "144910.610000", "144911.610000", "144912.610000", "144913.610000", "144914.610000", "144915.610000", "144916.610000", "144917.610000", "144918.610000", "144919.610000", "144920.610000", "144921.610000", "144922.610000", "144923.610000", "144924.610000", "144925.610000", "144926.610000", "144927.610000", "144928.610000", "144929.610000", "144930.610000", "144931.610000", "144932.610000", "144933.610000", "144934.610000", "144935.610000", "144936.610000", "144937.610000", "144938.610000", "144939.610000", "144940.610000", "144941.610000", "144942.610000", "144943.610000", "144944.610000", "144945.610000", "144946.610000", "144947.610000", "144948.610000", "144949.610000", "144950.610000", "144951.610000", "144952.610000", "144953.610000", "144954.610000", "144955.610000", "144956.610000", "144957.610000", "144958.610000", "144959.610000", "145000.610000", "145001.610000", "145002.610000", "145003.610000", "145004.610000", "145005.610000", "145006.610000", "145007.610000", "145008.610000", "145009.610000", "145010.610000", "145011.610000", "145012.610000", "145013.610000", "145014.610000", "145015.610000", "145016.610000", "145017.610000", "145018.610000", "145019.610000", "145020.610000", "145021.610000", "145022.610000", "145023.610000", "145024.610000", "145025.610000", "145026.610000", "145027.610000", "145028.610000", "145029.610000", "145030.610000", "145031.610000", "145032.610000", "145033.610000", "145034.610000", "145035.610000", "145036.610000", "145037.610000", "145038.610000", "145039.610000", "145040.610000", "145041.610000", "145042.610000", "145043.610000", "145044.610000", "145045.610000", "145046.610000", "145047.610000", "145048.610000", "145049.610000", "145050.610000", "145051.610000", "145052.610000", "145053.610000", "145054.610000", "145055.610000", "145056.610000", "145057.610000", "145058.610000", "145059.610000", "145100.610000", "145101.610000", "145102.610000", "145103.610000", "145104.610000", "145105.610000", "145106.610000", "145107.610000", "145108.610000", "145109.610000", "145110.610000", "145111.610000", "145112.610000", "145113.610000", "145114.610000", "145115.610000", "145116.610000", "145117.610000", "145118.610000", "145119.610000", "145120.610000", "145121.610000", "145122.610000", "145123.610000", "145124.610000", "145125.610000", "145126.610000", "145127.610000", "145128.610000", "145129.610000", "145130.610000", "145131.610000", "145132.610000", "145133.610000", "145134.610000", "145135.610000", "145136.610000", "145137.610000", "145138.610000", "145139.610000", "145140.610000", "145141.610000", "145142.610000", "145143.610000", "145144.610000", "145145.610000", "145146.610000", "145147.610000", "145148.610000", "145149.610000", "145150.610000", "145151.610000", "145152.610000", "145153.610000", "145154.610000"],
      "ContentTime": ["144940.524000", "144940.528000", "144945.489000", "144945.492000", "144945.503000", "144945.506000", "144945.508000", "144945.511000", "144945.514000", "144950.489000", "144950.492000", "144950.495000", "144950.498000", "144950.501000", "144950.503000", "144950.506000", "144955.489000", "144955.492000", "144955.496000", "144955.499000", "144955.502000", "144955.505000", "144955.508000", "145000.505000", "145000.508000", "145000.511000", "145000.514000", "145000.517000", "145000.519000", "145000.522000", "145005.489000", "145005.492000", "145005.495000", "145005.498000", "145005.501000", "145005.503000", "145005.506000", "145010.489000", "145010.492000", "145010.495000", "145010.498000", "145010.501000", "145010.503000", "145010.506000", "145015.489000", "145015.492000", "145015.495000", "145015.498000", "145015.500000", "145015.503000", "145015.506000", "145020.489000", "145020.492000", "145020.495000", "145020.503000", "145020.506000", "145020.509000", "145020.512000", "145020.515000", "145025.489000", "145025.492000", "145025.495000", "145025.498000", "145025.501000", "145025.503000", "145025.506000", "145030.489000", "145030.492000", "145030.495000", "145030.498000", "145030.501000", "145030.504000", "145030.506000", "145035.489000", "145035.492000", "145035.495000", "145035.498000", "145035.501000", "145035.504000", "145035.506000", "145040.489000", "145040.492000", "145040.495000", "145040.498000", "145040.501000", "145040.504000", "145040.506000", "145045.489000", "145045.492000", "145045.495000", "145045.498000", "145045.501000", "145045.504000", "145045.506000", "145050.489000", "145050.492000", "145050.495000", "145050.498000", "145050.501000", "145050.512000", "145050.514000", "145055.489000", "145055.492000", "145055.495000", "145055.498000", "145055.501000", "145055.503000", "145055.506000", "145100.489000", "145100.492000", "145100.495000", "145100.498000", "145100.501000", "145100.504000", "145100.506000", "145105.489000", "145105.492000", "145105.495000", "145105.498000", "145105.501000", "145105.503000", "145105.506000", "145110.489000", "145110.492000", "145110.495000", "145110.498000", "145110.501000", "145110.504000", "145110.507000", "145115.489000", "145115.492000", "145115.495000", "145115.498000", "145115.501000", "145115.504000", "145115.506000", "145115.509000", "145120.489000", "145120.492000", "145120.495000", "145120.498000", "145120.501000", "145120.503000", "145120.506000", "145125.489000", "145125.492000", "145125.495000", "145125.498000", "145125.501000", "145125.504000", "145125.507000", "145130.489000", "145130.492000", "145130.495000", "145130.498000", "145130.501000", "145130.504000", "145130.506000", "145135.489000", "145135.492000", "145135.495000", "145135.498000", "145135.501000", "145135.504000", "145135.507000", "145140.489000", "145140.492000", "145140.495000", "145140.498000", "145140.501000", "145140.504000", "145140.506000", "145145.489000", "145145.492000", "145145.495000", "145145.498000", "145145.501000", "145145.504000", "145145.506000", "145150.489000", "145150.492000", "145150.495000", "145150.498000", "145150.501000", "145150.504000", "145150.507000", "145155.489000", "145155.492000", "145155.495000", "145155.498000", "145155.501000", "145155.896000"],
      "InstanceCreationTime": ["144940.524000", "144940.528000", "144945.489000", "144945.492000", "144945.503000", "144945.506000", "144945.508000", "144945.511000", "144945.514000", "144950.489000", "144950.492000", "144950.495000", "144950.498000", "144950.501000", "144950.503000", "144950.506000", "144955.489000", "144955.492000", "144955.496000", "144955.499000", "144955.502000", "144955.505000", "144955.508000", "145000.505000", "145000.508000", "145000.511000", "145000.514000", "145000.517000", "145000.519000", "145000.522000", "145005.489000", "145005.492000", "145005.495000", "145005.498000", "145005.501000", "145005.503000", "145005.506000", "145010.489000", "145010.492000", "145010.495000", "145010.498000", "145010.501000", "145010.503000", "145010.506000", "145015.489000", "145015.492000", "145015.495000", "145015.498000", "145015.500000", "145015.503000", "145015.506000", "145020.489000", "145020.492000", "145020.495000", "145020.503000", "145020.506000", "145020.509000", "145020.512000", "145020.515000", "145025.489000", "145025.492000", "145025.495000", "145025.498000", "145025.501000", "145025.503000", "145025.506000", "145030.489000", "145030.492000", "145030.495000", "145030.498000", "145030.501000", "145030.504000", "145030.506000", "145035.489000", "145035.492000", "145035.495000", "145035.498000", "145035.501000", "145035.504000", "145035.506000", "145040.489000", "145040.492000", "145040.495000", "145040.498000", "145040.501000", "145040.504000", "145040.506000", "145045.489000", "145045.492000", "145045.495000", "145045.498000", "145045.501000", "145045.504000", "145045.506000", "145050.489000", "145050.492000", "145050.495000", "145050.498000", "145050.501000", "145050.512000", "145050.514000", "145055.489000", "145055.492000", "145055.495000", "145055.498000", "145055.501000", "145055.503000", "145055.506000", "145100.489000", "145100.492000", "145100.495000", "145100.498000", "145100.501000", "145100.504000", "145100.506000", "145105.489000", "145105.492000", "145105.495000", "145105.498000", "145105.501000", "145105.503000", "145105.506000", "145110.489000", "145110.492000", "145110.495000", "145110.498000", "145110.501000", "145110.504000", "145110.507000", "145115.489000", "145115.492000", "145115.495000", "145115.498000", "145115.501000", "145115.504000", "145115.506000", "145115.509000", "145120.489000", "145120.492000", "145120.495000", "145120.498000", "145120.501000", "145120.503000", "145120.506000", "145125.489000", "145125.492000", "145125.495000", "145125.498000", "145125.501000", "145125.504000", "145125.507000", "145130.489000", "145130.492000", "145130.495000", "145130.498000", "145130.501000", "145130.504000", "145130.506000", "145135.489000", "145135.492000", "145135.495000", "145135.498000", "145135.501000", "145135.504000", "145135.507000", "145140.489000", "145140.492000", "145140.495000", "145140.498000", "145140.501000", "145140.504000", "145140.506000", "145145.489000", "145145.492000", "145145.495000", "145145.498000", "145145.501000", "145145.504000", "145145.506000", "145150.489000", "145150.492000", "145150.495000", "145150.498000", "145150.501000", "145150.504000", "145150.507000", "145155.489000", "145155.492000", "145155.495000", "145155.498000", "145155.501000", "145155.896000"],
      "InstanceNumber": [1, 2, 3, 4, 5, 6, 7, 8, 9, 10, 11, 12, 13, 14, 15, 16, 17, 18, 19, 20, 21, 22, 23, 24, 25, 26, 27, 28, 29, 30, 31, 32, 33, 34, 35, 36, 37, 38, 39, 40, 41, 42, 43, 44, 45, 46, 47, 48, 49, 50, 51, 52, 53, 54, 55, 56, 57, 58, 59, 60, 61, 62, 63, 64, 65, 66, 67, 68, 69, 70, 71, 72, 73, 74, 75, 76, 77, 78, 79, 80, 81, 82, 83, 84, 85, 86, 87, 88, 89, 90, 91, 92, 93, 94, 95, 96, 97, 98, 99, 100, 101, 102, 103, 104, 105, 106, 107, 108, 109, 110, 111, 112, 113, 114, 115, 116, 117, 118, 119, 120, 121, 122, 123, 124, 125, 126, 127, 128, 129, 130, 131, 132, 133, 134, 135, 136, 137, 138, 139, 140, 141, 142, 143, 144, 145, 146, 147, 148, 149, 150, 151, 152, 153, 154, 155, 156, 157, 158, 159, 160, 161, 162, 163, 164, 165, 166, 167, 168, 169, 170, 171, 172, 173, 174, 175, 176, 177, 178, 179, 180, 181, 182, 183, 184, 185, 186, 187, 188, 189, 190, 191, 192],
      "LargestImagePixelValue": [48034, 47229, 46107, 45998, 45531, 45272, 44898, 44597, 45040, 44972, 43964, 44607, 44605, 44218, 44086, 44374, 44673, 44574, 43708, 44703, 43828, 44142, 44500, 44814, 43708, 44550, 44289, 44167, 44403, 43433, 44095, 44546, 43511, 44437, 43643, 44263, 43351, 43858, 44243, 43374, 43746, 44155, 43481, 44324, 42808, 43739, 43784, 43444, 43280, 43493, 43710, 43079, 43667, 43551, 43202, 43394, 43269, 43486, 44126, 42984, 43266, 43980, 42645, 43139, 43592, 43378, 43816, 43680, 42749, 43261, 43731, 42664, 43515, 43628, 43054, 44214, 43731, 43312, 43308, 43482, 43818, 43953, 42754, 43703, 43314, 42749, 43100, 43117, 43227, 43561, 43296, 43385, 43705, 42656, 43690, 43447, 42663, 43303, 43689, 42381, 43172, 43745, 43046, 43788, 43364, 43156, 43588, 43042, 43535, 43734, 42878, 43936, 43761, 43618, 43511, 42986, 43364, 43625, 42444, 43266, 43865, 43269, 43140, 42742, 43195, 43154, 43376, 43406, 43508, 42747, 43362, 43080, 42963, 43483, 43618, 42408, 43301, 43593, 43146, 43641, 43611, 42919, 43828, 43725, 42947, 43808, 42634, 43328, 43473, 42952, 43799, 43961, 43228, 43273, 43181, 43671, 42613, 43406, 43228, 43778, 42904, 43514, 43654, 43154, 43926, 42794, 43813, 43526, 43736, 43992, 42898, 44004, 44136, 43298, 43716, 44142, 43231, 44195, 43226, 43336, 43709, 43939, 43971, 43844, 43654, 43880, 43565, 43922, 43760, 43997, 43982, 43261],
      "WindowCenter": [10643.0, 10605.0, 10578.0, 10579.0, 10581.0, 10581.0, 10576.0, 10568.0, 10573.0, 10578.0, 10563.0, 10566.0, 10565.0, 10567.0, 10577.0, 10583.0, 10598.0, 10585.0, 10568.0, 10575.0, 10558.0, 10557.0, 10556.0, 10551.0, 10533.0, 10537.0, 10537.0, 10545.0, 10558.0, 10551.0, 10556.0, 10560.0, 10545.0, 10553.0, 10543.0, 10555.0, 10545.0, 10554.0, 10553.0, 10534.0, 10531.0, 10537.0, 10535.0, 10551.0, 10538.0, 10547.0, 10546.0, 10542.0, 10531.0, 10534.0, 10547.0, 10536.0, 10527.0, 10524.0, 10513.0, 10517.0, 10518.0, 10520.0, 10532.0, 10527.0, 10528.0, 10537.0, 10524.0, 10540.0, 10540.0, 10534.0, 10538.0, 10534.0, 10522.0, 10529.0, 10539.0, 10533.0, 10551.0, 10551.0, 10541.0, 10548.0, 10541.0, 10536.0, 10531.0, 10533.0, 10533.0, 10540.0, 10544.0, 10557.0, 10550.0, 10539.0, 10531.0, 10536.0, 10542.0, 10536.0, 10522.0, 10521.0, 10520.0, 10509.0, 10525.0, 10528.0, 10518.0, 10516.0, 10519.0, 10505.0, 10516.0, 10527.0, 10521.0, 10525.0, 10527.0, 10536.0, 10550.0, 10546.0, 10549.0, 10548.0, 10546.0, 10555.0, 10548.0, 10537.0, 10536.0, 10530.0, 10535.0, 10536.0, 10533.0, 10534.0, 10541.0, 10526.0, 10523.0, 10518.0, 10524.0, 10523.0, 10515.0, 10515.0, 10528.0, 10525.0, 10529.0, 10523.0, 10523.0, 10528.0, 10529.0, 10525.0, 10529.0, 10527.0, 10522.0, 10528.0, 10528.0, 10523.0, 10533.0, 10533.0, 10524.0, 10537.0, 10535.0, 10552.0, 10553.0, 10541.0, 10536.0, 10529.0, 10514.0, 10513.0, 10511.0, 10516.0, 10514.0, 10533.0, 10537.0, 10541.0, 10529.0, 10535.0, 10535.0, 10531.0, 10535.0, 10532.0, 10544.0, 10537.0, 10531.0, 10528.0, 10509.0, 10517.0, 10517.0, 10500.0, 10508.0, 10508.0, 10507.0, 10525.0, 10520.0, 10522.0, 10526.0, 10524.0, 10519.0, 10525.0, 10535.0, 10541.0, 10537.0, 10535.0, 10523.0, 10519.0, 10520.0, 10508.0],
      "WindowWidth": [22995.0, 22876.0, 22796.0, 22793.0, 22795.0, 22793.0, 22783.0, 22760.0, 22769.0, 22778.0, 22745.0, 22751.0, 22743.0, 22753.0, 22781.0, 22794.0, 22829.0, 22799.0, 22760.0, 22775.0, 22735.0, 22729.0, 22726.0, 22713.0, 22673.0, 22679.0, 22681.0, 22700.0, 22731.0, 22721.0, 22729.0, 22734.0, 22701.0, 22713.0, 22694.0, 22722.0, 22700.0, 22718.0, 22714.0, 22670.0, 22662.0, 22676.0, 22675.0, 22711.0, 22686.0, 22703.0, 22700.0, 22691.0, 22665.0, 22670.0, 22698.0, 22673.0, 22652.0, 22644.0, 22617.0, 22627.0, 22630.0, 22637.0, 22665.0, 22656.0, 22657.0, 22674.0, 22650.0, 22682.0, 22684.0, 22670.0, 22678.0, 22670.0, 22641.0, 22656.0, 22679.0, 22670.0, 22711.0, 22712.0, 22689.0, 22704.0, 22685.0, 22672.0, 22661.0, 22661.0, 22662.0, 22682.0, 22694.0, 22724.0, 22707.0, 22680.0, 22663.0, 22674.0, 22688.0, 22675.0, 22641.0, 22634.0, 22633.0, 22611.0, 22644.0, 22656.0, 22635.0, 22626.0, 22631.0, 22604.0, 22627.0, 22650.0, 22636.0, 22645.0, 22652.0, 22675.0, 22708.0, 22699.0, 22702.0, 22703.0, 22699.0, 22720.0, 22705.0, 22676.0, 22673.0, 22660.0, 22669.0, 22671.0, 22669.0, 22670.0, 22682.0, 22650.0, 22643.0, 22632.0, 22647.0, 22642.0, 22621.0, 22621.0, 22653.0, 22648.0, 22655.0, 22643.0, 22639.0, 22652.0, 22655.0, 22647.0, 22656.0, 22652.0, 22639.0, 22653.0, 22655.0, 22644.0, 22666.0, 22665.0, 22645.0, 22677.0, 22676.0, 22713.0, 22717.0, 22687.0, 22674.0, 22656.0, 22621.0, 22616.0, 22612.0, 22620.0, 22622.0, 22666.0, 22681.0, 22687.0, 22658.0, 22672.0, 22674.0, 22663.0, 22669.0, 22665.0, 22692.0, 22675.0, 22659.0, 22648.0, 22607.0, 22622.0, 22623.0, 22588.0, 22600.0, 22602.0, 22604.0, 22644.0, 22637.0, 22641.0, 22646.0, 22640.0, 22629.0, 22643.0, 22671.0, 22685.0, 22675.0, 22667.0, 22639.0, 22630.0, 22632.0, 22605.0]
    },
    "slices": {}
  },
  "NumberOfVolumes": 192
}