{
  "AcquisitionMatrixPE": 104,
  "AcquisitionNumber": 1,
  "AcquisitionTime": "16:45:12.452500",
  "BandwidthPerPixelPhaseEncode": 16.578,
  "BaseResolution": 104,
  "BodyPartExamined": "BRAIN",
  "ConsistencyInfo": "N4_VE11C_LATEST_20160120",
  "ConversionSoftware": "dcm2niix",
  "ConversionSoftwareVersion": "v1.0.20190410  GCC6.3.0",
  "DerivedVendorReportedEchoSpacing": 0.000580009,
  "DeviceSerialNumber": "166018",
  "DwellTime": 2.1e-06,
  "EchoTime": 0.037,
  "EchoTrainLength": 104,
  "EffectiveEchoSpacing": 0.000580009,
  "FlipAngle": 68,
  "ImageComments": "Unaliased_MB6_PE3_LB",
  "ImageOrientationPatientDICOM": [0.992628, 0.11781, 0.0284809, -0.11608, 0.991647, -0.0562373],
  "ImageType": [
    "ORIGINAL",
    "PRIMARY",
    "M",
    "MB",
    "ND",
    "MOSAIC"
],
  "ImagingFrequency": 123.191,
  "InPlanePhaseEncodingDirectionDICOM": "COL",
  "InstitutionAddress": "Washington_Place_6_NYC_NYC_US_10003",
  "InstitutionName": "NYU_-_CBI",
  "InstitutionalDepartmentName": "Department",
  "MRAcquisitionType": "2D",
  "MagneticFieldStrength": 3,
  "Manufacturer": "Siemens",
  "ManufacturersModelName": "Prisma",
  "Modality": "MR",
  "MultibandAccelerationFactor": 6,
  "PartialFourier": 1,
  "PatientPosition": "HFS",
  "PercentPhaseFOV": 100,
  "PhaseEncodingDirection": "j",
  "PhaseEncodingSteps": 104,
  "PhaseResolution": 1,
  "PixelBandwidth": 2290,
  "ProcedureStepDescription": "Investigators_Winawer",
  "ProtocolName": "cmrr_mbepi_s6_2mm_66sl_PA_TR1.0",
  "PulseSequenceDetails": "%CustomerSeq%_cmrr_mbep2d_bold",
  "ReceiveCoilActiveElements": "HC1-7",
  "ReceiveCoilName": "HeadNeck_64",
  "ReconMatrixPE": 104,
  "RepetitionTime": 1,
  "SAR": 0.094829,
  "ScanOptions": "FS",
  "ScanningSequence": "EP",
  "SequenceName": "epfid2d1_104",
  "SequenceVariant": "SK_SS",
  "SeriesDescription": "cmrr_mbepi_s6_2mm_66sl_PA_TR1.0",
  "SeriesNumber": 13,
  "ShimSetting": [278, -12586, -8467, 420, 14, -7, 117, -10],
  "SliceThickness": 2,
  "SliceTiming": [0, 0.535, 0.09, 0.6225, 0.1775, 0.7125, 0.2675, 0.8025, 0.355, 0.89, 0.445, 0, 0.535, 0.09, 0.6225, 0.1775, 0.7125, 0.2675, 0.8025, 0.355, 0.89, 0.445, 0, 0.535, 0.09, 0.6225, 0.1775, 0.7125, 0.2675, 0.8025, 0.355, 0.89, 0.445, 0, 0.535, 0.09, 0.6225, 0.1775, 0.7125, 0.2675, 0.8025, 0.355, 0.89, 0.445, 0, 0.535, 0.09, 0.6225, 0.1775, 0.7125, 0.2675, 0.8025, 0.355, 0.89, 0.445, 0, 0.535, 0.09, 0.6225, 0.1775, 0.7125, 0.2675, 0.8025, 0.355, 0.89, 0.445],
  "SoftwareVersions": "syngo_MR_E11",
  "SpacingBetweenSlices": 2,
  "StationName": "AWP166018",
  "TaskName": "prf",
  "TotalReadoutTime": 0.0597409,
  "TxRefAmp": 249.597,
  "WipMemBlock": "378e3d9d-94cd-453b-9b79-7487a7b1d39e||Sequence: ve11c/master r/ab69a6c; Apr 19 2017 09:47:47 by eja",
  "dcmmeta_affine": [
    [-1.985255241394043, -0.23216015100479126, 0.06973659247159958, 117.7916030883789],
    [-0.23562020063400269, 1.983293056488037, -0.10503323376178741, -64.5477294921875],
    [0.0569617785513401, 0.11247456073760986, 1.996022343635559, -72.51181030273438],
    [0.0, 0.0, 0.0, 1.0]
],
  "dcmmeta_reorient_transform": [
    [0.0, -1.0, 0.0, 103.0],
    [1.0, 0.0, 0.0, 0.0],
    [0.0, 0.0, 1.0, 0.0],
    [0.0, 0.0, 0.0, 1.0]
],
  "dcmmeta_shape": [104, 104, 66, 192],
  "dcmmeta_slice_dim": 2,
  "dcmmeta_version": 0.6,
  "global": {
    "const": {
      "AccessionNumber": "j7kn9geb",
      "AcquisitionMatrix": [104, 0, 0, 104],
      "AngioFlag": "N",
      "BitsAllocated": 16,
      "BitsStored": 16,
      "BodyPartExamined": "BRAIN",
      "Columns": 936,
      "EchoNumbers": 1,
      "EchoTime": 37.0,
      "EchoTrainLength": 104,
      "FlipAngle": 68.0,
      "HighBit": 15,
      "ImageOrientationPatient": [0.99262763332945, 0.11781010333735, 0.02848089012673, -0.1160800739755, 0.99164650197298, -0.0562372790113],
      "ImagePositionPatient": [-823.16667737666, -1062.7993420889, -37.833614822178],
      "ImageType": [
        "ORIGINAL",
        "PRIMARY",
        "M",
        "MB",
        "ND",
        "MOSAIC"
],
      "ImagedNucleus": "1H",
      "ImagingFrequency": 123.19134,
      "InPlanePhaseEncodingDirection": "COL",
      "MRAcquisitionType": "2D",
      "MagneticFieldStrength": 3.0,
      "Manufacturer": "SIEMENS",
      "ManufacturerModelName": "Prisma",
      "Modality": "MR",
      "NumberOfAverages": 1.0,
      "NumberOfPhaseEncodingSteps": 104,
      "PercentPhaseFieldOfView": 100.0,
      "PercentSampling": 100.0,
      "PerformedProcedureStepStartTime": "162143.637000",
      "PhotometricInterpretation": "MONOCHROME2",
      "PixelBandwidth": 2290.0,
      "PixelRepresentation": 0,
      "PixelSpacing": [2.0, 2.0],
      "ProtocolName": "cmrr_mbepi_s6_2mm_66sl_PA_TR1.0",
      "RepetitionTime": 1000.0,
      "Rows": 936,
      "SAR": 0.09482904661685,
      "SamplesPerPixel": 1,
      "ScanOptions": "FS",
      "ScanningSequence": "EP",
      "SequenceName": "epfid2d1_104",
      "SequenceVariant": [
        "SK",
        "SS"
],
      "SeriesDescription": "cmrr_mbepi_s6_2mm_66sl_PA_TR1.0",
      "SeriesNumber": 13,
      "SeriesTime": "164631.817000",
      "SliceLocation": -64.870572317908,
      "SliceThickness": 2.0,
      "SmallestImagePixelValue": 0,
      "SoftwareVersions": "syngo MR E11",
      "SpacingBetweenSlices": 2.0000000752904,
      "SpecificCharacterSet": "ISO_IR 100",
      "StudyID": "1",
      "StudyTime": "162143.546000",
      "TransmitCoilName": "Body",
      "VariableFlipAngleFlag": "N",
      "WindowCenterWidthExplanation": "Algo1",
      "dBdt": 0.0},
    "slices": {}
  },
  "time": {
    "samples": {
      "AcquisitionNumber": [1, 2, 3, 4, 5, 6, 7, 8, 9, 10, 11, 12, 13, 14, 15, 16, 17, 18, 19, 20, 21, 22, 23, 24, 25, 26, 27, 28, 29, 30, 31, 32, 33, 34, 35, 36, 37, 38, 39, 40, 41, 42, 43, 44, 45, 46, 47, 48, 49, 50, 51, 52, 53, 54, 55, 56, 57, 58, 59, 60, 61, 62, 63, 64, 65, 66, 67, 68, 69, 70, 71, 72, 73, 74, 75, 76, 77, 78, 79, 80, 81, 82, 83, 84, 85, 86, 87, 88, 89, 90, 91, 92, 93, 94, 95, 96, 97, 98, 99, 100, 101, 102, 103, 104, 105, 106, 107, 108, 109, 110, 111, 112, 113, 114, 115, 116, 117, 118, 119, 120, 121, 122, 123, 124, 125, 126, 127, 128, 129, 130, 131, 132, 133, 134, 135, 136, 137, 138, 139, 140, 141, 142, 143, 144, 145, 146, 147, 148, 149, 150, 151, 152, 153, 154, 155, 156, 157, 158, 159, 160, 161, 162, 163, 164, 165, 166, 167, 168, 169, 170, 171, 172, 173, 174, 175, 176, 177, 178, 179, 180, 181, 182, 183, 184, 185, 186, 187, 188, 189, 190, 191, 192],
      "AcquisitionTime": ["164512.452500", "164513.452500", "164514.452500", "164515.452500", "164516.452500", "164517.452500", "164518.452500", "164519.452500", "164520.452500", "164521.452500", "164522.452500", "164523.452500", "164524.452500", "164525.452500", "164526.452500", "164527.452500", "164528.452500", "164529.452500", "164530.452500", "164531.452500", "164532.452500", "164533.452500", "164534.452500", "164535.452500", "164536.452500", "164537.452500", "164538.452500", "164539.452500", "164540.452500", "164541.452500", "164542.452500", "164543.452500", "164544.452500", "164545.452500", "164546.452500", "164547.452500", "164548.452500", "164549.452500", "164550.452500", "164551.452500", "164552.452500", "164553.452500", "164554.452500", "164555.452500", "164556.452500", "164557.452500", "164558.452500", "164559.452500", "164600.452500", "164601.452500", "164602.452500", "164603.452500", "164604.452500", "164605.452500", "164606.452500", "164607.452500", "164608.452500", "164609.452500", "164610.452500", "164611.452500", "164612.452500", "164613.452500", "164614.452500", "164615.452500", "164616.452500", "164617.452500", "164618.452500", "164619.452500", "164620.452500", "164621.452500", "164622.452500", "164623.452500", "164624.452500", "164625.452500", "164626.452500", "164627.452500", "164628.452500", "164629.452500", "164630.452500", "164631.452500", "164632.452500", "164633.452500", "164634.452500", "164635.452500", "164636.452500", "164637.452500", "164638.452500", "164639.452500", "164640.452500", "164641.452500", "164642.452500", "164643.452500", "164644.452500", "164645.452500", "164646.452500", "164647.452500", "164648.452500", "164649.452500", "164650.452500", "164651.452500", "164652.452500", "164653.452500", "164654.452500", "164655.452500", "164656.452500", "164657.452500", "164658.452500", "164659.452500", "164700.452500", "164701.452500", "164702.452500", "164703.452500", "164704.452500", "164705.452500", "164706.452500", "164707.452500", "164708.452500", "164709.452500", "164710.452500", "164711.452500", "164712.452500", "164713.452500", "164714.452500", "164715.452500", "164716.452500", "164717.452500", "164718.452500", "164719.452500", "164720.452500", "164721.452500", "164722.452500", "164723.452500", "164724.452500", "164725.452500", "164726.452500", "164727.452500", "164728.452500", "164729.452500", "164730.452500", "164731.452500", "164732.452500", "164733.452500", "164734.452500", "164735.452500", "164736.452500", "164737.452500", "164738.452500", "164739.452500", "164740.452500", "164741.452500", "164742.452500", "164743.452500", "164744.452500", "164745.452500", "164746.452500", "164747.452500", "164748.452500", "164749.452500", "164750.452500", "164751.452500", "164752.452500", "164753.452500", "164754.452500", "164755.452500", "164756.452500", "164757.452500", "164758.452500", "164759.452500", "164800.452500", "164801.452500", "164802.452500", "164803.452500", "164804.452500", "164805.452500", "164806.452500", "164807.452500", "164808.452500", "164809.452500", "164810.452500", "164811.452500", "164812.452500", "164813.452500", "164814.452500", "164815.452500", "164816.452500", "164817.452500", "164818.452500", "164819.452500", "164820.452500", "164821.452500", "164822.452500", "164823.452500"],
      "ContentTime": ["164631.820000", "164631.824000", "164631.827000", "164631.829000", "164631.832000", "164631.835000", "164631.838000", "164631.841000", "164631.844000", "164631.847000", "164631.858000", "164631.861000", "164631.863000", "164631.866000", "164631.869000", "164631.872000", "164631.875000", "164631.878000", "164631.881000", "164631.883000", "164631.893000", "164631.896000", "164631.899000", "164631.901000", "164631.904000", "164631.907000", "164631.910000", "164631.913000", "164631.916000", "164631.919000", "164631.921000", "164631.924000", "164631.927000", "164651.773000", "164651.776000", "164651.779000", "164651.782000", "164651.785000", "164651.787000", "164651.790000", "164651.793000", "164651.796000", "164651.799000", "164651.802000", "164651.804000", "164651.807000", "164651.810000", "164651.813000", "164651.823000", "164651.826000", "164651.837000", "164651.840000", "164651.843000", "164651.846000", "164651.849000", "164651.852000", "164651.854000", "164651.857000", "164651.860000", "164651.863000", "164651.866000", "164711.773000", "164711.776000", "164711.779000", "164711.782000", "164711.785000", "164711.788000", "164711.791000", "164711.794000", "164711.797000", "164711.799000", "164711.802000", "164711.805000", "164711.808000", "164711.811000", "164711.814000", "164711.816000", "164711.819000", "164711.822000", "164711.825000", "164711.828000", "164711.831000", "164711.834000", "164711.836000", "164711.839000", "164711.842000", "164711.845000", "164711.848000", "164711.851000", "164711.854000", "164731.773000", "164731.776000", "164731.779000", "164731.788000", "164731.790000", "164731.793000", "164731.796000", "164731.799000", "164731.802000", "164731.805000", "164731.808000", "164731.810000", "164731.813000", "164731.816000", "164731.819000", "164731.822000", "164731.825000", "164731.828000", "164731.831000", "164731.834000", "164731.836000", "164731.839000", "164731.842000", "164731.845000", "164731.848000", "164731.851000", "164731.854000", "164731.857000", "164751.773000", "164751.776000", "164751.779000", "164751.782000", "164751.785000", "164751.788000", "164751.791000", "164751.794000", "164751.797000", "164751.800000", "164751.802000", "164751.805000", "164751.808000", "164751.811000", "164751.814000", "164751.817000", "164751.819000", "164751.822000", "164751.825000", "164751.828000", "164751.831000", "164751.834000", "164751.837000", "164751.840000", "164751.843000", "164751.846000", "164751.849000", "164751.852000", "164811.773000", "164811.776000", "164811.779000", "164811.782000", "164811.785000", "164811.788000", "164811.791000", "164811.794000", "164811.797000", "164811.799000", "164811.802000", "164811.805000", "164811.808000", "164811.811000", "164811.814000", "164811.817000", "164811.820000", "164811.822000", "164811.825000", "164811.828000", "164811.831000", "164811.834000", "164811.837000", "164811.840000", "164811.846000", "164811.849000", "164811.852000", "164811.855000", "164811.857000", "164825.140000", "164825.143000", "164825.146000", "164825.149000", "164825.152000", "164825.155000", "164825.158000", "164825.161000", "164825.164000", "164825.166000", "164825.169000", "164825.172000", "164825.175000", "164825.178000", "164825.181000", "164825.184000", "164825.186000"],
      "InstanceCreationTime": ["164631.820000", "164631.824000", "164631.827000", "164631.829000", "164631.832000", "164631.835000", "164631.838000", "164631.841000", "164631.844000", "164631.847000", "164631.858000", "164631.861000", "164631.863000", "164631.866000", "164631.869000", "164631.872000", "164631.875000", "164631.878000", "164631.881000", "164631.883000", "164631.893000", "164631.896000", "164631.899000", "164631.901000", "164631.904000", "164631.907000", "164631.910000", "164631.913000", "164631.916000", "164631.919000", "164631.921000", "164631.924000", "164631.927000", "164651.773000", "164651.776000", "164651.779000", "164651.782000", "164651.785000", "164651.787000", "164651.790000", "164651.793000", "164651.796000", "164651.799000", "164651.802000", "164651.804000", "164651.807000", "164651.810000", "164651.813000", "164651.823000", "164651.826000", "164651.837000", "164651.840000", "164651.843000", "164651.846000", "164651.849000", "164651.852000", "164651.854000", "164651.857000", "164651.860000", "164651.863000", "164651.866000", "164711.773000", "164711.776000", "164711.779000", "164711.782000", "164711.785000", "164711.788000", "164711.791000", "164711.794000", "164711.797000", "164711.799000", "164711.802000", "164711.805000", "164711.808000", "164711.811000", "164711.814000", "164711.816000", "164711.819000", "164711.822000", "164711.825000", "164711.828000", "164711.831000", "164711.834000", "164711.836000", "164711.839000", "164711.842000", "164711.845000", "164711.848000", "164711.851000", "164711.854000", "164731.773000", "164731.776000", "164731.779000", "164731.788000", "164731.790000", "164731.793000", "164731.796000", "164731.799000", "164731.802000", "164731.805000", "164731.808000", "164731.810000", "164731.813000", "164731.816000", "164731.819000", "164731.822000", "164731.825000", "164731.828000", "164731.831000", "164731.834000", "164731.836000", "164731.839000", "164731.842000", "164731.845000", "164731.848000", "164731.851000", "164731.854000", "164731.857000", "164751.773000", "164751.776000", "164751.779000", "164751.782000", "164751.785000", "164751.788000", "164751.791000", "164751.794000", "164751.797000", "164751.800000", "164751.802000", "164751.805000", "164751.808000", "164751.811000", "164751.814000", "164751.817000", "164751.819000", "164751.822000", "164751.825000", "164751.828000", "164751.831000", "164751.834000", "164751.837000", "164751.840000", "164751.843000", "164751.846000", "164751.849000", "164751.852000", "164811.773000", "164811.776000", "164811.779000", "164811.782000", "164811.785000", "164811.788000", "164811.791000", "164811.794000", "164811.797000", "164811.799000", "164811.802000", "164811.805000", "164811.808000", "164811.811000", "164811.814000", "164811.817000", "164811.820000", "164811.822000", "164811.825000", "164811.828000", "164811.831000", "164811.834000", "164811.837000", "164811.840000", "164811.846000", "164811.849000", "164811.852000", "164811.855000", "164811.857000", "164825.140000", "164825.143000", "164825.146000", "164825.149000", "164825.152000", "164825.155000", "164825.158000", "164825.161000", "164825.164000", "164825.166000", "164825.169000", "164825.172000", "164825.175000", "164825.178000", "164825.181000", "164825.184000", "164825.186000"],
      "InstanceNumber": [1, 2, 3, 4, 5, 6, 7, 8, 9, 10, 11, 12, 13, 14, 15, 16, 17, 18, 19, 20, 21, 22, 23, 24, 25, 26, 27, 28, 29, 30, 31, 32, 33, 34, 35, 36, 37, 38, 39, 40, 41, 42, 43, 44, 45, 46, 47, 48, 49, 50, 51, 52, 53, 54, 55, 56, 57, 58, 59, 60, 61, 62, 63, 64, 65, 66, 67, 68, 69, 70, 71, 72, 73, 74, 75, 76, 77, 78, 79, 80, 81, 82, 83, 84, 85, 86, 87, 88, 89, 90, 91, 92, 93, 94, 95, 96, 97, 98, 99, 100, 101, 102, 103, 104, 105, 106, 107, 108, 109, 110, 111, 112, 113, 114, 115, 116, 117, 118, 119, 120, 121, 122, 123, 124, 125, 126, 127, 128, 129, 130, 131, 132, 133, 134, 135, 136, 137, 138, 139, 140, 141, 142, 143, 144, 145, 146, 147, 148, 149, 150, 151, 152, 153, 154, 155, 156, 157, 158, 159, 160, 161, 162, 163, 164, 165, 166, 167, 168, 169, 170, 171, 172, 173, 174, 175, 176, 177, 178, 179, 180, 181, 182, 183, 184, 185, 186, 187, 188, 189, 190, 191, 192],
      "LargestImagePixelValue": [30330, 30874, 29572, 30059, 29280, 29598, 30051, 29240, 29856, 30055, 29146, 29336, 29308, 29181, 28691, 29164, 28311, 28511, 28796, 28396, 28610, 29230, 28858, 28756, 29852, 29384, 30017, 29240, 28877, 29009, 29206, 29290, 28597, 28439, 28590, 29567, 28750, 28907, 29324, 28944, 29355, 29486, 29089, 29001, 29928, 29318, 29370, 29353, 29722, 29557, 29087, 29061, 28843, 29267, 28741, 29413, 29042, 29561, 29875, 28296, 28640, 28449, 28664, 28523, 28690, 29007, 29080, 29213, 29120, 28517, 28852, 29257, 28803, 29511, 28610, 28638, 28363, 28440, 28269, 29409, 28411, 28489, 29214, 28725, 28818, 29175, 29017, 28683, 29272, 28682, 29074, 29565, 29169, 29361, 29116, 28875, 28856, 28576, 28350, 28735, 28362, 28444, 28290, 29008, 28131, 28096, 28424, 28701, 28443, 28495, 28557, 28648, 28629, 28606, 28762, 29233, 28718, 28850, 29294, 29396, 27949, 28117, 28099, 28536, 28933, 28588, 28852, 29067, 28804, 28635, 28521, 28536, 28639, 28959, 29018, 28744, 28986, 28705, 29164, 29114, 28920, 29090, 29541, 28524, 28991, 29371, 28861, 28997, 29510, 29534, 28468, 28689, 29120, 29358, 28963, 28625, 29520, 28859, 29304, 29204, 28574, 28718, 29075, 29245, 28806, 28952, 29724, 29327, 29306, 29372, 29137, 29064, 28341, 28647, 28653, 28678, 29572, 29023, 28583, 29292, 29178, 29027, 29195, 28521, 29242, 29824, 28993, 29441, 29153, 28806, 29068, 28805],
      "WindowCenter": [9442.0, 9410.0, 9378.0, 9374.0, 9351.0, 9342.0, 9354.0, 9344.0, 9348.0, 9355.0, 9343.0, 9341.0, 9340.0, 9334.0, 9327.0, 9327.0, 9315.0, 9314.0, 9311.0, 9314.0, 9312.0, 9326.0, 9323.0, 9337.0, 9351.0, 9355.0, 9365.0, 9348.0, 9338.0, 9338.0, 9337.0, 9336.0, 9322.0, 9321.0, 9321.0, 9335.0, 9329.0, 9328.0, 9336.0, 9332.0, 9344.0, 9352.0, 9355.0, 9355.0, 9365.0, 9354.0, 9353.0, 9347.0, 9361.0, 9355.0, 9355.0, 9356.0, 9350.0, 9355.0, 9348.0, 9344.0, 9337.0, 9342.0, 9340.0, 9325.0, 9326.0, 9321.0, 9327.0, 9321.0, 9322.0, 9328.0, 9321.0, 9326.0, 9328.0, 9316.0, 9329.0, 9336.0, 9330.0, 9336.0, 9325.0, 9324.0, 9330.0, 9325.0, 9324.0, 9342.0, 9331.0, 9331.0, 9338.0, 9339.0, 9337.0, 9344.0, 9347.0, 9347.0, 9355.0, 9350.0, 9348.0, 9353.0, 9346.0, 9342.0, 9330.0, 9321.0, 9319.0, 9313.0, 9305.0, 9311.0, 9314.0, 9313.0, 9314.0, 9329.0, 9317.0, 9317.0, 9324.0, 9331.0, 9324.0, 9317.0, 9317.0, 9320.0, 9307.0, 9308.0, 9312.0, 9312.0, 9312.0, 9312.0, 9318.0, 9325.0, 9308.0, 9315.0, 9318.0, 9325.0, 9331.0, 9334.0, 9339.0, 9338.0, 9333.0, 9332.0, 9341.0, 9341.0, 9340.0, 9341.0, 9348.0, 9342.0, 9350.0, 9345.0, 9349.0, 9343.0, 9340.0, 9339.0, 9340.0, 9335.0, 9345.0, 9348.0, 9350.0, 9358.0, 9365.0, 9364.0, 9338.0, 9339.0, 9331.0, 9330.0, 9329.0, 9316.0, 9327.0, 9322.0, 9326.0, 9318.0, 9300.0, 9304.0, 9309.0, 9311.0, 9311.0, 9310.0, 9322.0, 9308.0, 9307.0, 9306.0, 9300.0, 9300.0, 9295.0, 9302.0, 9309.0, 9312.0, 9333.0, 9337.0, 9335.0, 9361.0, 9357.0, 9351.0, 9357.0, 9352.0, 9359.0, 9365.0, 9358.0, 9357.0, 9351.0, 9350.0, 9350.0, 9353.0],
      "WindowWidth": [19979.0, 19898.0, 19832.0, 19816.0, 19771.0, 19751.0, 19772.0, 19753.0, 19760.0, 19770.0, 19749.0, 19744.0, 19741.0, 19730.0, 19720.0, 19720.0, 19700.0, 19697.0, 19689.0, 19696.0, 19689.0, 19715.0, 19714.0, 19742.0, 19766.0, 19776.0, 19792.0, 19764.0, 19743.0, 19741.0, 19737.0, 19737.0, 19709.0, 19707.0, 19708.0, 19733.0, 19722.0, 19722.0, 19737.0, 19734.0, 19757.0, 19774.0, 19782.0, 19779.0, 19795.0, 19775.0, 19773.0, 19763.0, 19790.0, 19780.0, 19780.0, 19781.0, 19772.0, 19778.0, 19763.0, 19752.0, 19738.0, 19744.0, 19738.0, 19715.0, 19712.0, 19704.0, 19717.0, 19706.0, 19710.0, 19720.0, 19710.0, 19718.0, 19722.0, 19703.0, 19726.0, 19738.0, 19727.0, 19737.0, 19718.0, 19714.0, 19726.0, 19719.0, 19717.0, 19746.0, 19729.0, 19729.0, 19742.0, 19743.0, 19739.0, 19755.0, 19764.0, 19765.0, 19781.0, 19774.0, 19768.0, 19772.0, 19757.0, 19747.0, 19725.0, 19704.0, 19698.0, 19688.0, 19671.0, 19682.0, 19690.0, 19690.0, 19694.0, 19720.0, 19702.0, 19700.0, 19713.0, 19726.0, 19716.0, 19705.0, 19706.0, 19707.0, 19683.0, 19685.0, 19690.0, 19689.0, 19688.0, 19688.0, 19699.0, 19711.0, 19683.0, 19694.0, 19702.0, 19717.0, 19729.0, 19737.0, 19742.0, 19741.0, 19734.0, 19732.0, 19750.0, 19752.0, 19749.0, 19754.0, 19766.0, 19758.0, 19772.0, 19767.0, 19769.0, 19757.0, 19749.0, 19746.0, 19748.0, 19739.0, 19757.0, 19764.0, 19770.0, 19790.0, 19803.0, 19796.0, 19750.0, 19745.0, 19726.0, 19722.0, 19720.0, 19702.0, 19717.0, 19709.0, 19713.0, 19699.0, 19667.0, 19674.0, 19680.0, 19684.0, 19684.0, 19683.0, 19700.0, 19672.0, 19670.0, 19667.0, 19657.0, 19654.0, 19649.0, 19663.0, 19676.0, 19687.0, 19726.0, 19738.0, 19742.0, 19789.0, 19783.0, 19773.0, 19783.0, 19777.0, 19789.0, 19800.0, 19788.0, 19784.0, 19772.0, 19770.0, 19771.0, 19779.0]
    },
    "slices": {}
  },
  "NumberOfVolumes": 192
}