{
  "AcquisitionMatrixPE": 104,
  "AcquisitionNumber": 1,
  "AcquisitionTime": "16:56:43.497500",
  "BandwidthPerPixelPhaseEncode": 16.578,
  "BaseResolution": 104,
  "BodyPartExamined": "BRAIN",
  "ConsistencyInfo": "N4_VE11C_LATEST_20160120",
  "ConversionSoftware": "dcm2niix",
  "ConversionSoftwareVersion": "v1.0.20190410  GCC6.3.0",
  "DerivedVendorReportedEchoSpacing": 0.000580009,
  "DeviceSerialNumber": "166018",
  "DwellTime": 2.1e-06,
  "EchoTime": 0.037,
  "EchoTrainLength": 104,
  "EffectiveEchoSpacing": 0.000580009,
  "FlipAngle": 68,
  "ImageComments": "Unaliased_MB6_PE3_LB",
  "ImageOrientationPatientDICOM": [0.992628, 0.11781, 0.0284809, -0.11608, 0.991647, -0.0562373],
  "ImageType": [
    "ORIGINAL",
    "PRIMARY",
    "M",
    "MB",
    "ND",
    "MOSAIC"
],
  "ImagingFrequency": 123.191,
  "InPlanePhaseEncodingDirectionDICOM": "COL",
  "InstitutionAddress": "Washington_Place_6_NYC_NYC_US_10003",
  "InstitutionName": "NYU_-_CBI",
  "InstitutionalDepartmentName": "Department",
  "MRAcquisitionType": "2D",
  "MagneticFieldStrength": 3,
  "Manufacturer": "Siemens",
  "ManufacturersModelName": "Prisma",
  "Modality": "MR",
  "MultibandAccelerationFactor": 6,
  "PartialFourier": 1,
  "PatientPosition": "HFS",
  "PercentPhaseFOV": 100,
  "PhaseEncodingDirection": "j",
  "PhaseEncodingSteps": 104,
  "PhaseResolution": 1,
  "PixelBandwidth": 2290,
  "ProcedureStepDescription": "Investigators_Winawer",
  "ProtocolName": "cmrr_mbepi_s6_2mm_66sl_PA_TR1.0",
  "PulseSequenceDetails": "%CustomerSeq%_cmrr_mbep2d_bold",
  "ReceiveCoilActiveElements": "HC1-7",
  "ReceiveCoilName": "HeadNeck_64",
  "ReconMatrixPE": 104,
  "RepetitionTime": 1,
  "SAR": 0.094829,
  "ScanOptions": "FS",
  "ScanningSequence": "EP",
  "SequenceName": "epfid2d1_104",
  "SequenceVariant": "SK_SS",
  "SeriesDescription": "cmrr_mbepi_s6_2mm_66sl_PA_TR1.0",
  "SeriesNumber": 19,
  "ShimSetting": [278, -12586, -8467, 420, 14, -7, 117, -10],
  "SliceThickness": 2,
  "SliceTiming": [0, 0.535, 0.09, 0.625, 0.1775, 0.7125, 0.2675, 0.8025, 0.3575, 0.89, 0.445, 0, 0.535, 0.09, 0.625, 0.1775, 0.7125, 0.2675, 0.8025, 0.3575, 0.89, 0.445, 0, 0.535, 0.09, 0.625, 0.1775, 0.7125, 0.2675, 0.8025, 0.3575, 0.89, 0.445, 0, 0.535, 0.09, 0.625, 0.1775, 0.7125, 0.2675, 0.8025, 0.3575, 0.89, 0.445, 0, 0.535, 0.09, 0.625, 0.1775, 0.7125, 0.2675, 0.8025, 0.3575, 0.89, 0.445, 0, 0.535, 0.09, 0.625, 0.1775, 0.7125, 0.2675, 0.8025, 0.3575, 0.89, 0.445],
  "SoftwareVersions": "syngo_MR_E11",
  "SpacingBetweenSlices": 2,
  "StationName": "AWP166018",
  "TaskName": "prf",
  "TotalReadoutTime": 0.0597409,
  "TxRefAmp": 249.597,
  "WipMemBlock": "378e3d9d-94cd-453b-9b79-7487a7b1d39e||Sequence: ve11c/master r/ab69a6c; Apr 19 2017 09:47:47 by eja",
  "dcmmeta_affine": [
    [-1.985255241394043, -0.23216015100479126, 0.06973659247159958, 117.7916030883789],
    [-0.23562020063400269, 1.983293056488037, -0.10503323376178741, -64.5477294921875],
    [0.0569617785513401, 0.11247456073760986, 1.996022343635559, -72.51181030273438],
    [0.0, 0.0, 0.0, 1.0]
],
  "dcmmeta_reorient_transform": [
    [0.0, -1.0, 0.0, 103.0],
    [1.0, 0.0, 0.0, 0.0],
    [0.0, 0.0, 1.0, 0.0],
    [0.0, 0.0, 0.0, 1.0]
],
  "dcmmeta_shape": [104, 104, 66, 192],
  "dcmmeta_slice_dim": 2,
  "dcmmeta_version": 0.6,
  "global": {
    "const": {
      "AccessionNumber": "j7kn9geb",
      "AcquisitionMatrix": [104, 0, 0, 104],
      "AngioFlag": "N",
      "BitsAllocated": 16,
      "BitsStored": 16,
      "BodyPartExamined": "BRAIN",
      "Columns": 936,
      "EchoNumbers": 1,
      "EchoTime": 37.0,
      "EchoTrainLength": 104,
      "FlipAngle": 68.0,
      "HighBit": 15,
      "ImageOrientationPatient": [0.99262763332945, 0.11781010333735, 0.02848089012673, -0.1160800739755, 0.99164650197298, -0.0562372790113],
      "ImagePositionPatient": [-823.16667737666, -1062.7993420889, -37.833614822178],
      "ImageType": [
        "ORIGINAL",
        "PRIMARY",
        "M",
        "MB",
        "ND",
        "MOSAIC"
],
      "ImagedNucleus": "1H",
      "ImagingFrequency": 123.19134,
      "InPlanePhaseEncodingDirection": "COL",
      "MRAcquisitionType": "2D",
      "MagneticFieldStrength": 3.0,
      "Manufacturer": "SIEMENS",
      "ManufacturerModelName": "Prisma",
      "Modality": "MR",
      "NumberOfAverages": 1.0,
      "NumberOfPhaseEncodingSteps": 104,
      "PercentPhaseFieldOfView": 100.0,
      "PercentSampling": 100.0,
      "PerformedProcedureStepStartTime": "162143.637000",
      "PhotometricInterpretation": "MONOCHROME2",
      "PixelBandwidth": 2290.0,
      "PixelRepresentation": 0,
      "PixelSpacing": [2.0, 2.0],
      "ProtocolName": "cmrr_mbepi_s6_2mm_66sl_PA_TR1.0",
      "RepetitionTime": 1000.0,
      "Rows": 936,
      "SAR": 0.09482904661685,
      "SamplesPerPixel": 1,
      "ScanOptions": "FS",
      "ScanningSequence": "EP",
      "SequenceName": "epfid2d1_104",
      "SequenceVariant": [
        "SK",
        "SS"
],
      "SeriesDescription": "cmrr_mbepi_s6_2mm_66sl_PA_TR1.0",
      "SeriesNumber": 19,
      "SeriesTime": "165811.818000",
      "SliceLocation": -64.870572317908,
      "SliceThickness": 2.0,
      "SmallestImagePixelValue": 0,
      "SoftwareVersions": "syngo MR E11",
      "SpacingBetweenSlices": 2.0000000752904,
      "SpecificCharacterSet": "ISO_IR 100",
      "StudyID": "1",
      "StudyTime": "162143.546000",
      "TransmitCoilName": "Body",
      "VariableFlipAngleFlag": "N",
      "WindowCenterWidthExplanation": "Algo1",
      "dBdt": 0.0},
    "slices": {}
  },
  "time": {
    "samples": {
      "AcquisitionNumber": [1, 2, 3, 4, 5, 6, 7, 8, 9, 10, 11, 12, 13, 14, 15, 16, 17, 18, 19, 20, 21, 22, 23, 24, 25, 26, 27, 28, 29, 30, 31, 32, 33, 34, 35, 36, 37, 38, 39, 40, 41, 42, 43, 44, 45, 46, 47, 48, 49, 50, 51, 52, 53, 54, 55, 56, 57, 58, 59, 60, 61, 62, 63, 64, 65, 66, 67, 68, 69, 70, 71, 72, 73, 74, 75, 76, 77, 78, 79, 80, 81, 82, 83, 84, 85, 86, 87, 88, 89, 90, 91, 92, 93, 94, 95, 96, 97, 98, 99, 100, 101, 102, 103, 104, 105, 106, 107, 108, 109, 110, 111, 112, 113, 114, 115, 116, 117, 118, 119, 120, 121, 122, 123, 124, 125, 126, 127, 128, 129, 130, 131, 132, 133, 134, 135, 136, 137, 138, 139, 140, 141, 142, 143, 144, 145, 146, 147, 148, 149, 150, 151, 152, 153, 154, 155, 156, 157, 158, 159, 160, 161, 162, 163, 164, 165, 166, 167, 168, 169, 170, 171, 172, 173, 174, 175, 176, 177, 178, 179, 180, 181, 182, 183, 184, 185, 186, 187, 188, 189, 190, 191, 192],
      "AcquisitionTime": ["165643.497500", "165644.497500", "165645.497500", "165646.497500", "165647.497500", "165648.497500", "165649.497500", "165650.497500", "165651.497500", "165652.497500", "165653.497500", "165654.497500", "165655.497500", "165656.497500", "165657.497500", "165658.497500", "165659.497500", "165700.497500", "165701.497500", "165702.497500", "165703.497500", "165704.497500", "165705.497500", "165706.497500", "165707.497500", "165708.497500", "165709.497500", "165710.497500", "165711.497500", "165712.497500", "165713.497500", "165714.497500", "165715.497500", "165716.497500", "165717.497500", "165718.497500", "165719.497500", "165720.497500", "165721.497500", "165722.497500", "165723.497500", "165724.497500", "165725.497500", "165726.497500", "165727.497500", "165728.497500", "165729.497500", "165730.497500", "165731.497500", "165732.497500", "165733.497500", "165734.497500", "165735.497500", "165736.497500", "165737.497500", "165738.497500", "165739.497500", "165740.497500", "165741.497500", "165742.497500", "165743.497500", "165744.497500", "165745.497500", "165746.497500", "165747.497500", "165748.497500", "165749.497500", "165750.497500", "165751.497500", "165752.497500", "165753.497500", "165754.497500", "165755.497500", "165756.497500", "165757.497500", "165758.497500", "165759.497500", "165800.497500", "165801.497500", "165802.497500", "165803.497500", "165804.497500", "165805.497500", "165806.497500", "165807.497500", "165808.497500", "165809.497500", "165810.497500", "165811.497500", "165812.497500", "165813.497500", "165814.497500", "165815.497500", "165816.497500", "165817.497500", "165818.497500", "165819.497500", "165820.497500", "165821.497500", "165822.497500", "165823.497500", "165824.497500", "165825.497500", "165826.497500", "165827.497500", "165828.497500", "165829.497500", "165830.497500", "165831.497500", "165832.497500", "165833.497500", "165834.497500", "165835.497500", "165836.497500", "165837.497500", "165838.497500", "165839.497500", "165840.497500", "165841.497500", "165842.497500", "165843.497500", "165844.497500", "165845.497500", "165846.497500", "165847.497500", "165848.497500", "165849.497500", "165850.497500", "165851.497500", "165852.497500", "165853.497500", "165854.497500", "165855.497500", "165856.497500", "165857.497500", "165858.497500", "165859.497500", "165900.497500", "165901.497500", "165902.497500", "165903.497500", "165904.497500", "165905.497500", "165906.497500", "165907.497500", "165908.497500", "165909.497500", "165910.497500", "165911.497500", "165912.497500", "165913.497500", "165914.497500", "165915.497500", "165916.497500", "165917.497500", "165918.497500", "165919.497500", "165920.497500", "165921.497500", "165922.497500", "165923.497500", "165924.497500", "165925.497500", "165926.497500", "165927.497500", "165928.497500", "165929.497500", "165930.497500", "165931.497500", "165932.497500", "165933.497500", "165934.497500", "165935.497500", "165936.497500", "165937.497500", "165938.497500", "165939.497500", "165940.497500", "165941.497500", "165942.497500", "165943.497500", "165944.497500", "165945.497500", "165946.497500", "165947.497500", "165948.497500", "165949.497500", "165950.497500", "165951.497500", "165952.497500", "165953.497500", "165954.497500"],
      "ContentTime": ["165811.821000", "165811.824000", "165811.827000", "165811.830000", "165811.833000", "165811.836000", "165811.839000", "165811.842000", "165811.845000", "165811.848000", "165811.850000", "165811.853000", "165811.856000", "165811.859000", "165811.862000", "165811.870000", "165811.873000", "165811.876000", "165811.879000", "165811.882000", "165811.885000", "165811.888000", "165811.890000", "165811.893000", "165811.896000", "165811.899000", "165811.902000", "165811.905000", "165811.908000", "165811.910000", "165811.913000", "165811.916000", "165811.919000", "165811.922000", "165811.925000", "165811.928000", "165811.930000", "165811.933000", "165811.936000", "165811.939000", "165811.942000", "165811.945000", "165811.948000", "165811.956000", "165811.959000", "165811.961000", "165831.773000", "165831.776000", "165831.779000", "165831.782000", "165831.785000", "165831.788000", "165831.790000", "165831.793000", "165831.796000", "165831.799000", "165831.802000", "165831.810000", "165831.813000", "165831.816000", "165831.819000", "165831.822000", "165831.825000", "165831.828000", "165831.831000", "165831.834000", "165831.837000", "165831.840000", "165831.842000", "165831.845000", "165831.848000", "165831.851000", "165831.854000", "165831.857000", "165851.773000", "165851.776000", "165851.779000", "165851.782000", "165851.785000", "165851.788000", "165851.790000", "165851.793000", "165851.796000", "165851.799000", "165851.802000", "165851.805000", "165851.808000", "165851.811000", "165851.813000", "165851.816000", "165851.819000", "165851.822000", "165851.825000", "165851.828000", "165851.831000", "165851.834000", "165851.836000", "165851.839000", "165851.842000", "165851.845000", "165851.848000", "165851.851000", "165911.773000", "165911.776000", "165911.779000", "165911.782000", "165911.785000", "165911.788000", "165911.790000", "165911.793000", "165911.796000", "165911.799000", "165911.802000", "165911.805000", "165911.808000", "165911.810000", "165911.813000", "165911.816000", "165911.819000", "165911.822000", "165911.825000", "165911.828000", "165911.831000", "165911.834000", "165911.837000", "165911.840000", "165911.842000", "165911.845000", "165911.848000", "165911.851000", "165931.773000", "165931.776000", "165931.779000", "165931.782000", "165931.785000", "165931.788000", "165931.790000", "165931.793000", "165931.796000", "165931.799000", "165931.802000", "165931.805000", "165931.807000", "165931.810000", "165931.813000", "165931.816000", "165931.819000", "165931.822000", "165931.825000", "165931.828000", "165931.831000", "165931.834000", "165931.837000", "165931.840000", "165931.843000", "165931.846000", "165931.848000", "165931.851000", "165951.773000", "165951.776000", "165951.779000", "165951.782000", "165951.785000", "165951.788000", "165951.790000", "165951.793000", "165951.796000", "165951.799000", "165951.802000", "165951.805000", "165951.808000", "165951.810000", "165951.813000", "165951.816000", "165951.819000", "165951.822000", "165951.825000", "165951.828000", "165951.831000", "165951.834000", "165951.836000", "165951.839000", "165951.842000", "165951.845000", "165951.848000", "165951.869000", "165951.872000", "165956.520000", "165956.523000", "165956.526000", "165956.529000", "165956.532000"],
      "InstanceCreationTime": ["165811.821000", "165811.824000", "165811.827000", "165811.830000", "165811.833000", "165811.836000", "165811.839000", "165811.842000", "165811.845000", "165811.848000", "165811.850000", "165811.853000", "165811.856000", "165811.859000", "165811.862000", "165811.870000", "165811.873000", "165811.876000", "165811.879000", "165811.882000", "165811.885000", "165811.888000", "165811.890000", "165811.893000", "165811.896000", "165811.899000", "165811.902000", "165811.905000", "165811.908000", "165811.910000", "165811.913000", "165811.916000", "165811.919000", "165811.922000", "165811.925000", "165811.928000", "165811.930000", "165811.933000", "165811.936000", "165811.939000", "165811.942000", "165811.945000", "165811.948000", "165811.956000", "165811.959000", "165811.961000", "165831.773000", "165831.776000", "165831.779000", "165831.782000", "165831.785000", "165831.788000", "165831.790000", "165831.793000", "165831.796000", "165831.799000", "165831.802000", "165831.810000", "165831.813000", "165831.816000", "165831.819000", "165831.822000", "165831.825000", "165831.828000", "165831.831000", "165831.834000", "165831.837000", "165831.840000", "165831.842000", "165831.845000", "165831.848000", "165831.851000", "165831.854000", "165831.857000", "165851.773000", "165851.776000", "165851.779000", "165851.782000", "165851.785000", "165851.788000", "165851.790000", "165851.793000", "165851.796000", "165851.799000", "165851.802000", "165851.805000", "165851.808000", "165851.811000", "165851.813000", "165851.816000", "165851.819000", "165851.822000", "165851.825000", "165851.828000", "165851.831000", "165851.834000", "165851.836000", "165851.839000", "165851.842000", "165851.845000", "165851.848000", "165851.851000", "165911.773000", "165911.776000", "165911.779000", "165911.782000", "165911.785000", "165911.788000", "165911.790000", "165911.793000", "165911.796000", "165911.799000", "165911.802000", "165911.805000", "165911.808000", "165911.810000", "165911.813000", "165911.816000", "165911.819000", "165911.822000", "165911.825000", "165911.828000", "165911.831000", "165911.834000", "165911.837000", "165911.840000", "165911.842000", "165911.845000", "165911.848000", "165911.851000", "165931.773000", "165931.776000", "165931.779000", "165931.782000", "165931.785000", "165931.788000", "165931.790000", "165931.793000", "165931.796000", "165931.799000", "165931.802000", "165931.805000", "165931.807000", "165931.810000", "165931.813000", "165931.816000", "165931.819000", "165931.822000", "165931.825000", "165931.828000", "165931.831000", "165931.834000", "165931.837000", "165931.840000", "165931.843000", "165931.846000", "165931.848000", "165931.851000", "165951.773000", "165951.776000", "165951.779000", "165951.782000", "165951.785000", "165951.788000", "165951.790000", "165951.793000", "165951.796000", "165951.799000", "165951.802000", "165951.805000", "165951.808000", "165951.810000", "165951.813000", "165951.816000", "165951.819000", "165951.822000", "165951.825000", "165951.828000", "165951.831000", "165951.834000", "165951.836000", "165951.839000", "165951.842000", "165951.845000", "165951.848000", "165951.869000", "165951.872000", "165956.520000", "165956.523000", "165956.526000", "165956.529000", "165956.532000"],
      "InstanceNumber": [1, 2, 3, 4, 5, 6, 7, 8, 9, 10, 11, 12, 13, 14, 15, 16, 17, 18, 19, 20, 21, 22, 23, 24, 25, 26, 27, 28, 29, 30, 31, 32, 33, 34, 35, 36, 37, 38, 39, 40, 41, 42, 43, 44, 45, 46, 47, 48, 49, 50, 51, 52, 53, 54, 55, 56, 57, 58, 59, 60, 61, 62, 63, 64, 65, 66, 67, 68, 69, 70, 71, 72, 73, 74, 75, 76, 77, 78, 79, 80, 81, 82, 83, 84, 85, 86, 87, 88, 89, 90, 91, 92, 93, 94, 95, 96, 97, 98, 99, 100, 101, 102, 103, 104, 105, 106, 107, 108, 109, 110, 111, 112, 113, 114, 115, 116, 117, 118, 119, 120, 121, 122, 123, 124, 125, 126, 127, 128, 129, 130, 131, 132, 133, 134, 135, 136, 137, 138, 139, 140, 141, 142, 143, 144, 145, 146, 147, 148, 149, 150, 151, 152, 153, 154, 155, 156, 157, 158, 159, 160, 161, 162, 163, 164, 165, 166, 167, 168, 169, 170, 171, 172, 173, 174, 175, 176, 177, 178, 179, 180, 181, 182, 183, 184, 185, 186, 187, 188, 189, 190, 191, 192],
      "LargestImagePixelValue": [34964, 35590, 29470, 29391, 29391, 29451, 33140, 36360, 34242, 28983, 31331, 30013, 35741, 36074, 29204, 29942, 30756, 36149, 35467, 29045, 29583, 31155, 36093, 35768, 29417, 29180, 29214, 30996, 36024, 36873, 32786, 29293, 29509, 32793, 38326, 37810, 35980, 29114, 34089, 38629, 37909, 37917, 35145, 29254, 29518, 31582, 33165, 32408, 38977, 38097, 37609, 34878, 29605, 31625, 31561, 32015, 39185, 38386, 32358, 29942, 30916, 31621, 34766, 38671, 29460, 30918, 36137, 37394, 29925, 29350, 29370, 33261, 37043, 29025, 29407, 34802, 36434, 36212, 29303, 31226, 31378, 35732, 35804, 36840, 36576, 29480, 31788, 35944, 36390, 29548, 30255, 32699, 28911, 29417, 28808, 28907, 28512, 29087, 33181, 28313, 31026, 29066, 29611, 29544, 30311, 34509, 34055, 29396, 30356, 31228, 28586, 30070, 31139, 29234, 29259, 31214, 31491, 29494, 35749, 28766, 29241, 28865, 29667, 29536, 33565, 31434, 33093, 28923, 29763, 29694, 29359, 33968, 34411, 28560, 29838, 31401, 33536, 29528, 29346, 29221, 28934, 29069, 35358, 29325, 29768, 29003, 31320, 29341, 31298, 31706, 35857, 29928, 29442, 29414, 29749, 35902, 32807, 32927, 35252, 28829, 29199, 32426, 30559, 33176, 38000, 38417, 28594, 29171, 31340, 33364, 37405, 29561, 30035, 29133, 33083, 36674, 29634, 34865, 31377, 29265, 30483, 33878, 31196, 32323, 36325, 35121, 28797, 30087, 29871, 31007, 30390, 34098],
      "WindowCenter": [9416.0, 9401.0, 9318.0, 9306.0, 9298.0, 9299.0, 9337.0, 9374.0, 9342.0, 9296.0, 9323.0, 9311.0, 9370.0, 9378.0, 9309.0, 9320.0, 9326.0, 9379.0, 9384.0, 9311.0, 9310.0, 9332.0, 9378.0, 9380.0, 9308.0, 9299.0, 9290.0, 9315.0, 9367.0, 9375.0, 9335.0, 9296.0, 9296.0, 9332.0, 9392.0, 9395.0, 9372.0, 9300.0, 9362.0, 9411.0, 9405.0, 9398.0, 9367.0, 9292.0, 9297.0, 9328.0, 9346.0, 9341.0, 9407.0, 9404.0, 9404.0, 9376.0, 9324.0, 9356.0, 9363.0, 9371.0, 9445.0, 9449.0, 9392.0, 9368.0, 9373.0, 9386.0, 9415.0, 9451.0, 9359.0, 9393.0, 9447.0, 9460.0, 9382.0, 9359.0, 9347.0, 9378.0, 9411.0, 9329.0, 9341.0, 9393.0, 9409.0, 9414.0, 9335.0, 9352.0, 9344.0, 9388.0, 9371.0, 9365.0, 9366.0, 9314.0, 9355.0, 9407.0, 9415.0, 9344.0, 9342.0, 9365.0, 9317.0, 9331.0, 9306.0, 9288.0, 9271.0, 9283.0, 9330.0, 9272.0, 9316.0, 9302.0, 9327.0, 9335.0, 9330.0, 9372.0, 9369.0, 9338.0, 9360.0, 9363.0, 9313.0, 9338.0, 9348.0, 9314.0, 9297.0, 9316.0, 9306.0, 9270.0, 9344.0, 9291.0, 9309.0, 9293.0, 9296.0, 9291.0, 9348.0, 9324.0, 9334.0, 9278.0, 9289.0, 9286.0, 9278.0, 9326.0, 9342.0, 9286.0, 9306.0, 9316.0, 9339.0, 9284.0, 9291.0, 9292.0, 9258.0, 9262.0, 9336.0, 9280.0, 9295.0, 9273.0, 9295.0, 9271.0, 9296.0, 9293.0, 9343.0, 9292.0, 9291.0, 9283.0, 9286.0, 9347.0, 9323.0, 9324.0, 9349.0, 9276.0, 9283.0, 9319.0, 9296.0, 9332.0, 9377.0, 9386.0, 9276.0, 9280.0, 9303.0, 9329.0, 9372.0, 9297.0, 9298.0, 9282.0, 9323.0, 9375.0, 9298.0, 9359.0, 9316.0, 9292.0, 9311.0, 9349.0, 9309.0, 9300.0, 9324.0, 9327.0, 9282.0, 9302.0, 9279.0, 9290.0, 9292.0, 9328.0],
      "WindowWidth": [19893.0, 19849.0, 19704.0, 19675.0, 19656.0, 19656.0, 19713.0, 19779.0, 19725.0, 19652.0, 19698.0, 19678.0, 19774.0, 19789.0, 19681.0, 19697.0, 19712.0, 19796.0, 19808.0, 19688.0, 19685.0, 19717.0, 19786.0, 19791.0, 19674.0, 19656.0, 19636.0, 19677.0, 19762.0, 19779.0, 19714.0, 19648.0, 19647.0, 19705.0, 19803.0, 19811.0, 19776.0, 19662.0, 19765.0, 19848.0, 19840.0, 19824.0, 19771.0, 19647.0, 19652.0, 19700.0, 19730.0, 19726.0, 19834.0, 19834.0, 19833.0, 19790.0, 19707.0, 19763.0, 19776.0, 19793.0, 19918.0, 19930.0, 19840.0, 19803.0, 19810.0, 19831.0, 19879.0, 19941.0, 19794.0, 19855.0, 19948.0, 19971.0, 19838.0, 19794.0, 19763.0, 19803.0, 19854.0, 19725.0, 19743.0, 19824.0, 19849.0, 19864.0, 19735.0, 19763.0, 19746.0, 19810.0, 19775.0, 19756.0, 19759.0, 19686.0, 19763.0, 19857.0, 19871.0, 19755.0, 19745.0, 19779.0, 19701.0, 19723.0, 19669.0, 19629.0, 19598.0, 19620.0, 19696.0, 19604.0, 19680.0, 19661.0, 19712.0, 19731.0, 19713.0, 19781.0, 19782.0, 19740.0, 19783.0, 19783.0, 19699.0, 19740.0, 19755.0, 19693.0, 19656.0, 19679.0, 19656.0, 19592.0, 19714.0, 19638.0, 19679.0, 19644.0, 19647.0, 19641.0, 19736.0, 19697.0, 19707.0, 19615.0, 19631.0, 19622.0, 19606.0, 19683.0, 19714.0, 19633.0, 19671.0, 19683.0, 19716.0, 19625.0, 19639.0, 19641.0, 19569.0, 19575.0, 19697.0, 19615.0, 19645.0, 19601.0, 19632.0, 19594.0, 19631.0, 19627.0, 19711.0, 19634.0, 19637.0, 19624.0, 19624.0, 19722.0, 19683.0, 19689.0, 19730.0, 19612.0, 19626.0, 19685.0, 19648.0, 19709.0, 19773.0, 19788.0, 19606.0, 19611.0, 19647.0, 19691.0, 19764.0, 19650.0, 19649.0, 19618.0, 19685.0, 19772.0, 19648.0, 19748.0, 19678.0, 19638.0, 19671.0, 19736.0, 19664.0, 19637.0, 19670.0, 19679.0, 19620.0, 19657.0, 19611.0, 19626.0, 19634.0, 19691.0]
    },
    "slices": {}
  },
  "NumberOfVolumes": 192
}