{
  "AcquisitionMatrixPE": 104,
  "AcquisitionNumber": 1,
  "AcquisitionTime": "17:07:4.270000",
  "BandwidthPerPixelPhaseEncode": 16.297,
  "BaseResolution": 104,
  "BodyPartExamined": "BRAIN",
  "ConsistencyInfo": "N4_VE11C_LATEST_20160120",
  "ConversionSoftware": "dcm2niix",
  "ConversionSoftwareVersion": "v1.0.20210317",
  "DerivedVendorReportedEchoSpacing": 0.000590009,
  "DeviceSerialNumber": "166018",
  "DwellTime": 2.1e-06,
  "EchoTime": 0.0376,
  "EchoTrainLength": 104,
  "EffectiveEchoSpacing": 0.000590009,
  "FlipAngle": 68,
  "ImageComments": "Unaliased MB6/PE3/LB",
  "ImageOrientationPatientDICOM": [0.998793, 0.0424046, 0.0247703, -0.0305159, 0.931098, -0.36349],
  "ImageType": [
    "ORIGINAL",
    "PRIMARY",
    "M",
    "MB",
    "ND",
    "MOSAIC"
],
  "ImagingFrequency": 123.197,
  "InPlanePhaseEncodingDirectionDICOM": "COL",
  "InstitutionAddress": "Washington Place 6,NYC,NYC,US,10003",
  "InstitutionName": "NYU - CBI",
  "InstitutionalDepartmentName": "Department",
  "MRAcquisitionType": "2D",
  "MagneticFieldStrength": 3,
  "Manufacturer": "Siemens",
  "ManufacturersModelName": "Prisma",
  "Modality": "MR",
  "MultibandAccelerationFactor": 6,
  "PartialFourier": 1,
  "PatientPosition": "HFS",
  "PercentPhaseFOV": 100,
  "PercentSampling": 100,
  "PhaseEncodingDirection": "j",
  "PhaseEncodingSteps": 104,
  "PhaseResolution": 1,
  "PixelBandwidth": 2290,
  "ProcedureStepDescription": "Investigators^Winawer",
  "ProtocolName": "cmrr_mbepi_s6_2mm_66sl_PA_task-bar2",
  "PulseSequenceDetails": "%CustomerSeq%\\cmrr_mbep2d_bold",
  "ReceiveCoilActiveElements": "HC1-7",
  "ReceiveCoilName": "HeadNeck_64",
  "ReconMatrixPE": 104,
  "RepetitionTime": 1,
  "SAR": 0.0813628,
  "ScanOptions": "FS",
  "ScanningSequence": "EP",
  "SequenceName": "epfid2d1_104",
  "SequenceVariant": "SK\\SS",
  "SeriesDescription": "cmrr_mbepi_s6_2mm_66sl_PA_task-bar2",
  "SeriesNumber": 12,
  "ShimSetting": [285, -12611, -8474, 241, -40, -323, -177, 48],
  "SliceThickness": 2,
  "SliceTiming": [0, 0.535, 0.09, 0.6225, 0.1775, 0.7125, 0.2675, 0.8025, 0.3575, 0.89, 0.445, 0, 0.535, 0.09, 0.6225, 0.1775, 0.7125, 0.2675, 0.8025, 0.3575, 0.89, 0.445, 0, 0.535, 0.09, 0.6225, 0.1775, 0.7125, 0.2675, 0.8025, 0.3575, 0.89, 0.445, 0, 0.535, 0.09, 0.6225, 0.1775, 0.7125, 0.2675, 0.8025, 0.3575, 0.89, 0.445, 0, 0.535, 0.09, 0.6225, 0.1775, 0.7125, 0.2675, 0.8025, 0.3575, 0.89, 0.445, 0, 0.535, 0.09, 0.6225, 0.1775, 0.7125, 0.2675, 0.8025, 0.3575, 0.89, 0.445],
  "SoftwareVersions": "syngo MR E11",
  "SpacingBetweenSlices": 2,
  "StationName": "AWP166018",
  "TaskName": "bar2",
  "TotalReadoutTime": 0.060771,
  "TxRefAmp": 230.983,
  "VendorReportedEchoSpacing": 0.00059,
  "WipMemBlock": "e369e021-c62b-4ede-9684-12b7c13ccffa||Sequence: R016 ve11c/master r/8780670; Nov 27 2017 15:05:12 by eja",
  "dcmmeta_affine": [
    [-1.9975868463516235, -0.06103174760937691, 0.07695453613996506, 110.06312561035156],
    [-0.08480917662382126, 1.8621960878372192, -0.7245916724205017, -53.47993850708008],
    [0.049540672451257706, 0.7269806265830994, 1.8625372648239136, -73.64340209960938],
    [0.0, 0.0, 0.0, 1.0]
],
  "dcmmeta_reorient_transform": [
    [0.0, -1.0, 0.0, 103.0],
    [1.0, 0.0, 0.0, 0.0],
    [0.0, 0.0, 1.0, 0.0],
    [0.0, 0.0, 0.0, 1.0]
],
  "dcmmeta_shape": [104, 104, 66, 300],
  "dcmmeta_slice_dim": 2,
  "dcmmeta_version": 0.6,
  "global": {
    "const": {
      "AccessionNumber": "LfbLcsgL",
      "AcquisitionMatrix": [104, 0, 0, 104],
      "AngioFlag": "N",
      "BitsAllocated": 16,
      "BitsStored": 16,
      "BodyPartExamined": "BRAIN",
      "Columns": 936,
      "EchoNumbers": 1,
      "EchoTime": 37.6,
      "EchoTrainLength": 104,
      "FlipAngle": 68.0,
      "HighBit": 15,
      "ImageOrientationPatient": [0.99879341268941, 0.04240458926074, 0.02477033665256, -0.0305158733587, 0.9310980516803, -0.3634903019756],
      "ImagePositionPatient": [-909.38376868255, -948.28045739444, 283.05061175501],
      "ImageType": [
        "ORIGINAL",
        "PRIMARY",
        "M",
        "MB",
        "ND",
        "MOSAIC"
],
      "ImagedNucleus": "1H",
      "ImagingFrequency": 123.196814,
      "InPlanePhaseEncodingDirection": "COL",
      "MRAcquisitionType": "2D",
      "MagneticFieldStrength": 3.0,
      "Manufacturer": "SIEMENS",
      "ManufacturerModelName": "Prisma",
      "Modality": "MR",
      "NumberOfAverages": 1.0,
      "NumberOfPhaseEncodingSteps": 104,
      "PercentPhaseFieldOfView": 100.0,
      "PercentSampling": 100.0,
      "PerformedProcedureStepStartTime": "163533.754000",
      "PhotometricInterpretation": "MONOCHROME2",
      "PixelBandwidth": 2290.0,
      "PixelRepresentation": 0,
      "PixelSpacing": [2.0, 2.0],
      "ProtocolName": "cmrr_mbepi_s6_2mm_66sl_PA_task-bar2",
      "RepetitionTime": 1000.0,
      "Rows": 936,
      "SAR": 0.0813627763422,
      "SamplesPerPixel": 1,
      "ScanOptions": "FS",
      "ScanningSequence": "EP",
      "SequenceName": "epfid2d1_104",
      "SequenceVariant": [
        "SK",
        "SS"
],
      "SeriesDescription": "cmrr_mbepi_s6_2mm_66sl_PA_task-bar2",
      "SeriesNumber": 12,
      "SeriesTime": "170803.289000",
      "SliceLocation": -44.971301244449,
      "SliceThickness": 2.0,
      "SmallestImagePixelValue": 0,
      "SoftwareVersions": "syngo MR E11",
      "SpacingBetweenSlices": 2.0000000220009,
      "SpecificCharacterSet": "ISO_IR 100",
      "StudyID": "1",
      "StudyTime": "163533.680000",
      "TransmitCoilName": "Body",
      "VariableFlipAngleFlag": "N",
      "WindowCenterWidthExplanation": "Algo1",
      "dBdt": 0.0},
    "slices": {}
  },
  "time": {
    "samples": {
      "AcquisitionNumber": [1, 2, 3, 4, 5, 6, 7, 8, 9, 10, 11, 12, 13, 14, 15, 16, 17, 18, 19, 20, 21, 22, 23, 24, 25, 26, 27, 28, 29, 30, 31, 32, 33, 34, 35, 36, 37, 38, 39, 40, 41, 42, 43, 44, 45, 46, 47, 48, 49, 50, 51, 52, 53, 54, 55, 56, 57, 58, 59, 60, 61, 62, 63, 64, 65, 66, 67, 68, 69, 70, 71, 72, 73, 74, 75, 76, 77, 78, 79, 80, 81, 82, 83, 84, 85, 86, 87, 88, 89, 90, 91, 92, 93, 94, 95, 96, 97, 98, 99, 100, 101, 102, 103, 104, 105, 106, 107, 108, 109, 110, 111, 112, 113, 114, 115, 116, 117, 118, 119, 120, 121, 122, 123, 124, 125, 126, 127, 128, 129, 130, 131, 132, 133, 134, 135, 136, 137, 138, 139, 140, 141, 142, 143, 144, 145, 146, 147, 148, 149, 150, 151, 152, 153, 154, 155, 156, 157, 158, 159, 160, 161, 162, 163, 164, 165, 166, 167, 168, 169, 170, 171, 172, 173, 174, 175, 176, 177, 178, 179, 180, 181, 182, 183, 184, 185, 186, 187, 188, 189, 190, 191, 192, 193, 194, 195, 196, 197, 198, 199, 200, 201, 202, 203, 204, 205, 206, 207, 208, 209, 210, 211, 212, 213, 214, 215, 216, 217, 218, 219, 220, 221, 222, 223, 224, 225, 226, 227, 228, 229, 230, 231, 232, 233, 234, 235, 236, 237, 238, 239, 240, 241, 242, 243, 244, 245, 246, 247, 248, 249, 250, 251, 252, 253, 254, 255, 256, 257, 258, 259, 260, 261, 262, 263, 264, 265, 266, 267, 268, 269, 270, 271, 272, 273, 274, 275, 276, 277, 278, 279, 280, 281, 282, 283, 284, 285, 286, 287, 288, 289, 290, 291, 292, 293, 294, 295, 296, 297, 298, 299, 300],
      "AcquisitionTime": ["170704.270000", "170705.270000", "170706.270000", "170707.270000", "170708.270000", "170709.270000", "170710.270000", "170711.270000", "170712.270000", "170713.270000", "170714.270000", "170715.270000", "170716.270000", "170717.270000", "170718.270000", "170719.270000", "170720.270000", "170721.270000", "170722.270000", "170723.270000", "170724.270000", "170725.270000", "170726.270000", "170727.270000", "170728.270000", "170729.270000", "170730.270000", "170731.270000", "170732.270000", "170733.270000", "170734.270000", "170735.270000", "170736.270000", "170737.270000", "170738.270000", "170739.270000", "170740.270000", "170741.270000", "170742.270000", "170743.270000", "170744.270000", "170745.270000", "170746.270000", "170747.270000", "170748.270000", "170749.270000", "170750.270000", "170751.270000", "170752.270000", "170753.270000", "170754.270000", "170755.270000", "170756.270000", "170757.270000", "170758.270000", "170759.270000", "170800.270000", "170801.270000", "170802.270000", "170803.270000", "170804.270000", "170805.270000", "170806.270000", "170807.270000", "170808.270000", "170809.270000", "170810.270000", "170811.270000", "170812.270000", "170813.270000", "170814.270000", "170815.270000", "170816.270000", "170817.270000", "170818.270000", "170819.270000", "170820.270000", "170821.270000", "170822.270000", "170823.270000", "170824.270000", "170825.270000", "170826.270000", "170827.270000", "170828.270000", "170829.270000", "170830.270000", "170831.270000", "170832.270000", "170833.270000", "170834.270000", "170835.270000", "170836.270000", "170837.270000", "170838.270000", "170839.270000", "170840.270000", "170841.270000", "170842.270000", "170843.270000", "170844.270000", "170845.270000", "170846.270000", "170847.270000", "170848.270000", "170849.270000", "170850.270000", "170851.270000", "170852.270000", "170853.270000", "170854.270000", "170855.270000", "170856.270000", "170857.270000", "170858.270000", "170859.270000", "170900.270000", "170901.270000", "170902.270000", "170903.270000", "170904.270000", "170905.270000", "170906.270000", "170907.270000", "170908.270000", "170909.270000", "170910.270000", "170911.270000", "170912.270000", "170913.270000", "170914.270000", "170915.270000", "170916.270000", "170917.270000", "170918.270000", "170919.270000", "170920.270000", "170921.270000", "170922.270000", "170923.270000", "170924.270000", "170925.270000", "170926.270000", "170927.270000", "170928.270000", "170929.270000", "170930.270000", "170931.270000", "170932.270000", "170933.270000", "170934.270000", "170935.270000", "170936.270000", "170937.270000", "170938.270000", "170939.270000", "170940.270000", "170941.270000", "170942.270000", "170943.270000", "170944.270000", "170945.270000", "170946.270000", "170947.270000", "170948.270000", "170949.270000", "170950.270000", "170951.270000", "170952.270000", "170953.270000", "170954.270000", "170955.270000", "170956.270000", "170957.270000", "170958.270000", "170959.270000", "171000.270000", "171001.270000", "171002.270000", "171003.270000", "171004.270000", "171005.270000", "171006.270000", "171007.270000", "171008.270000", "171009.270000", "171010.270000", "171011.270000", "171012.270000", "171013.270000", "171014.270000", "171015.270000", "171016.270000", "171017.270000", "171018.270000", "171019.270000", "171020.270000", "171021.270000", "171022.270000", "171023.270000", "171024.270000", "171025.270000", "171026.270000", "171027.270000", "171028.270000", "171029.270000", "171030.270000", "171031.270000", "171032.270000", "171033.270000", "171034.270000", "171035.270000", "171036.270000", "171037.270000", "171038.270000", "171039.270000", "171040.270000", "171041.270000", "171042.270000", "171043.270000", "171044.270000", "171045.270000", "171046.270000", "171047.270000", "171048.270000", "171049.270000", "171050.270000", "171051.270000", "171052.270000", "171053.270000", "171054.270000", "171055.270000", "171056.270000", "171057.270000", "171058.270000", "171059.270000", "171100.270000", "171101.270000", "171102.270000", "171103.270000", "171104.270000", "171105.270000", "171106.270000", "171107.270000", "171108.270000", "171109.270000", "171110.270000", "171111.270000", "171112.270000", "171113.270000", "171114.270000", "171115.270000", "171116.270000", "171117.270000", "171118.270000", "171119.270000", "171120.270000", "171121.270000", "171122.270000", "171123.270000", "171124.270000", "171125.270000", "171126.270000", "171127.270000", "171128.270000", "171129.270000", "171130.270000", "171131.270000", "171132.270000", "171133.270000", "171134.270000", "171135.270000", "171136.270000", "171137.270000", "171138.270000", "171139.270000", "171140.270000", "171141.270000", "171142.270000", "171143.270000", "171144.270000", "171145.270000", "171146.270000", "171147.270000", "171148.270000", "171149.270000", "171150.270000", "171151.270000", "171152.270000", "171153.270000", "171154.270000", "171155.270000", "171156.270000", "171157.270000", "171158.270000", "171159.270000", "171200.270000", "171201.270000", "171202.270000", "171203.270000"],
      "ContentTime": ["170803.292000", "170803.295000", "170803.298000", "170803.301000", "170803.304000", "170808.251000", "170808.254000", "170808.257000", "170808.260000", "170808.263000", "170808.266000", "170808.275000", "170813.252000", "170813.255000", "170813.258000", "170813.261000", "170813.264000", "170813.267000", "170813.270000", "170813.273000", "170818.252000", "170818.255000", "170818.258000", "170818.261000", "170818.264000", "170818.267000", "170818.270000", "170823.251000", "170823.254000", "170823.257000", "170823.260000", "170823.263000", "170823.270000", "170823.273000", "170828.252000", "170828.255000", "170828.258000", "170828.261000", "170828.264000", "170828.267000", "170828.270000", "170833.252000", "170833.255000", "170833.258000", "170833.261000", "170833.264000", "170833.267000", "170833.270000", "170838.251000", "170838.254000", "170838.257000", "170838.260000", "170838.263000", "170838.266000", "170838.269000", "170843.251000", "170843.254000", "170843.257000", "170843.260000", "170843.263000", "170843.266000", "170843.269000", "170848.252000", "170848.264000", "170848.267000", "170848.270000", "170848.273000", "170848.276000", "170848.279000", "170853.252000", "170853.255000", "170853.258000", "170853.261000", "170853.264000", "170853.267000", "170853.270000", "170858.251000", "170858.254000", "170858.257000", "170858.260000", "170858.263000", "170858.266000", "170858.269000", "170903.252000", "170903.255000", "170903.258000", "170903.261000", "170903.264000", "170903.267000", "170903.270000", "170908.252000", "170908.257000", "170908.260000", "170908.264000", "170908.267000", "170908.270000", "170908.274000", "170913.251000", "170913.254000", "170913.257000", "170913.260000", "170913.263000", "170913.266000", "170913.269000", "170913.272000", "170918.251000", "170918.254000", "170918.257000", "170918.260000", "170918.263000", "170918.266000", "170918.269000", "170923.252000", "170923.255000", "170923.258000", "170923.261000", "170923.264000", "170923.267000", "170923.270000", "170928.252000", "170928.255000", "170928.258000", "170928.261000", "170928.264000", "170928.267000", "170928.270000", "170933.251000", "170933.254000", "170933.257000", "170933.260000", "170933.263000", "170933.266000", "170933.269000", "170938.252000", "170938.255000", "170938.258000", "170938.261000", "170938.264000", "170938.267000", "170938.270000", "170943.252000", "170943.255000", "170943.258000", "170943.261000", "170943.264000", "170943.267000", "170943.270000", "170948.251000", "170948.254000", "170948.257000", "170948.260000", "170948.263000", "170948.266000", "170948.269000", "170953.251000", "170953.254000", "170953.257000", "170953.260000", "170953.263000", "170953.266000", "170953.269000", "170953.272000", "170958.252000", "170958.255000", "170958.258000", "170958.261000", "170958.264000", "170958.267000", "170958.281000", "171003.252000", "171003.255000", "171003.258000", "171003.261000", "171003.264000", "171003.267000", "171003.270000", "171008.251000", "171008.254000", "171008.257000", "171008.260000", "171008.263000", "171008.266000", "171013.252000", "171013.256000", "171013.259000", "171013.262000", "171013.266000", "171018.252000", "171018.255000", "171018.258000", "171018.261000", "171018.264000", "171023.251000", "171023.254000", "171023.257000", "171023.260000", "171023.263000", "171028.251000", "171028.254000", "171028.257000", "171028.260000", "171028.263000", "171033.252000", "171033.255000", "171033.259000", "171033.262000", "171033.265000", "171038.252000", "171038.255000", "171038.260000", "171038.263000", "171038.266000", "171043.251000", "171043.254000", "171043.257000", "171043.260000", "171043.263000", "171048.252000", "171048.256000", "171048.259000", "171048.262000", "171048.265000", "171053.252000", "171053.257000", "171053.260000", "171053.263000", "171053.266000", "171058.252000", "171058.257000", "171058.261000", "171058.264000", "171058.267000", "171103.251000", "171103.255000", "171103.260000", "171103.264000", "171103.268000", "171108.252000", "171108.256000", "171108.259000", "171108.262000", "171108.265000", "171113.252000", "171113.255000", "171113.258000", "171113.262000", "171113.265000", "171118.251000", "171118.254000", "171118.257000", "171118.260000", "171118.263000", "171123.252000", "171123.257000", "171123.261000", "171123.264000", "171123.267000", "171128.252000", "171128.255000", "171128.260000", "171128.264000", "171128.268000", "171133.251000", "171133.254000", "171133.257000", "171133.260000", "171133.263000", "171138.251000", "171138.254000", "171138.257000", "171138.260000", "171138.264000", "171143.252000", "171143.255000", "171143.260000", "171143.263000", "171143.267000", "171148.252000", "171148.255000", "171148.260000", "171148.263000", "171148.266000", "171153.251000", "171153.255000", "171153.258000", "171153.262000", "171153.264000", "171158.253000", "171158.257000", "171158.260000", "171158.263000", "171158.267000", "171203.252000", "171203.255000", "171203.259000", "171203.263000", "171203.266000", "171205.322000", "171205.326000", "171205.329000"],
      "InstanceCreationTime": ["170803.292000", "170803.295000", "170803.298000", "170803.301000", "170803.304000", "170808.251000", "170808.254000", "170808.257000", "170808.260000", "170808.263000", "170808.266000", "170808.275000", "170813.252000", "170813.255000", "170813.258000", "170813.261000", "170813.264000", "170813.267000", "170813.270000", "170813.273000", "170818.252000", "170818.255000", "170818.258000", "170818.261000", "170818.264000", "170818.267000", "170818.270000", "170823.251000", "170823.254000", "170823.257000", "170823.260000", "170823.263000", "170823.270000", "170823.273000", "170828.252000", "170828.255000", "170828.258000", "170828.261000", "170828.264000", "170828.267000", "170828.270000", "170833.252000", "170833.255000", "170833.258000", "170833.261000", "170833.264000", "170833.267000", "170833.270000", "170838.251000", "170838.254000", "170838.257000", "170838.260000", "170838.263000", "170838.266000", "170838.269000", "170843.251000", "170843.254000", "170843.257000", "170843.260000", "170843.263000", "170843.266000", "170843.269000", "170848.252000", "170848.264000", "170848.267000", "170848.270000", "170848.273000", "170848.276000", "170848.279000", "170853.252000", "170853.255000", "170853.258000", "170853.261000", "170853.264000", "170853.267000", "170853.270000", "170858.251000", "170858.254000", "170858.257000", "170858.260000", "170858.263000", "170858.266000", "170858.269000", "170903.252000", "170903.255000", "170903.258000", "170903.261000", "170903.264000", "170903.267000", "170903.270000", "170908.252000", "170908.257000", "170908.260000", "170908.264000", "170908.267000", "170908.270000", "170908.274000", "170913.251000", "170913.254000", "170913.257000", "170913.260000", "170913.263000", "170913.266000", "170913.269000", "170913.272000", "170918.251000", "170918.254000", "170918.257000", "170918.260000", "170918.263000", "170918.266000", "170918.269000", "170923.252000", "170923.255000", "170923.258000", "170923.261000", "170923.264000", "170923.267000", "170923.270000", "170928.252000", "170928.255000", "170928.258000", "170928.261000", "170928.264000", "170928.267000", "170928.270000", "170933.251000", "170933.254000", "170933.257000", "170933.260000", "170933.263000", "170933.266000", "170933.269000", "170938.252000", "170938.255000", "170938.258000", "170938.261000", "170938.264000", "170938.267000", "170938.270000", "170943.252000", "170943.255000", "170943.258000", "170943.261000", "170943.264000", "170943.267000", "170943.270000", "170948.251000", "170948.254000", "170948.257000", "170948.260000", "170948.263000", "170948.266000", "170948.269000", "170953.251000", "170953.254000", "170953.257000", "170953.260000", "170953.263000", "170953.266000", "170953.269000", "170953.272000", "170958.252000", "170958.255000", "170958.258000", "170958.261000", "170958.264000", "170958.267000", "170958.281000", "171003.252000", "171003.255000", "171003.258000", "171003.261000", "171003.264000", "171003.267000", "171003.270000", "171008.251000", "171008.254000", "171008.257000", "171008.260000", "171008.263000", "171008.266000", "171013.252000", "171013.256000", "171013.259000", "171013.262000", "171013.266000", "171018.252000", "171018.255000", "171018.258000", "171018.261000", "171018.264000", "171023.251000", "171023.254000", "171023.257000", "171023.260000", "171023.263000", "171028.251000", "171028.254000", "171028.257000", "171028.260000", "171028.263000", "171033.252000", "171033.255000", "171033.259000", "171033.262000", "171033.265000", "171038.252000", "171038.255000", "171038.260000", "171038.263000", "171038.266000", "171043.251000", "171043.254000", "171043.257000", "171043.260000", "171043.263000", "171048.252000", "171048.256000", "171048.259000", "171048.262000", "171048.265000", "171053.252000", "171053.257000", "171053.260000", "171053.263000", "171053.266000", "171058.252000", "171058.257000", "171058.261000", "171058.264000", "171058.267000", "171103.251000", "171103.255000", "171103.260000", "171103.264000", "171103.268000", "171108.252000", "171108.256000", "171108.259000", "171108.262000", "171108.265000", "171113.252000", "171113.255000", "171113.258000", "171113.262000", "171113.265000", "171118.251000", "171118.254000", "171118.257000", "171118.260000", "171118.263000", "171123.252000", "171123.257000", "171123.261000", "171123.264000", "171123.267000", "171128.252000", "171128.255000", "171128.260000", "171128.264000", "171128.268000", "171133.251000", "171133.254000", "171133.257000", "171133.260000", "171133.263000", "171138.251000", "171138.254000", "171138.257000", "171138.260000", "171138.264000", "171143.252000", "171143.255000", "171143.260000", "171143.263000", "171143.267000", "171148.252000", "171148.255000", "171148.260000", "171148.263000", "171148.266000", "171153.251000", "171153.255000", "171153.258000", "171153.262000", "171153.264000", "171158.253000", "171158.257000", "171158.260000", "171158.263000", "171158.267000", "171203.252000", "171203.255000", "171203.259000", "171203.263000", "171203.266000", "171205.322000", "171205.326000", "171205.329000"],
      "InstanceNumber": [1, 2, 3, 4, 5, 6, 7, 8, 9, 10, 11, 12, 13, 14, 15, 16, 17, 18, 19, 20, 21, 22, 23, 24, 25, 26, 27, 28, 29, 30, 31, 32, 33, 34, 35, 36, 37, 38, 39, 40, 41, 42, 43, 44, 45, 46, 47, 48, 49, 50, 51, 52, 53, 54, 55, 56, 57, 58, 59, 60, 61, 62, 63, 64, 65, 66, 67, 68, 69, 70, 71, 72, 73, 74, 75, 76, 77, 78, 79, 80, 81, 82, 83, 84, 85, 86, 87, 88, 89, 90, 91, 92, 93, 94, 95, 96, 97, 98, 99, 100, 101, 102, 103, 104, 105, 106, 107, 108, 109, 110, 111, 112, 113, 114, 115, 116, 117, 118, 119, 120, 121, 122, 123, 124, 125, 126, 127, 128, 129, 130, 131, 132, 133, 134, 135, 136, 137, 138, 139, 140, 141, 142, 143, 144, 145, 146, 147, 148, 149, 150, 151, 152, 153, 154, 155, 156, 157, 158, 159, 160, 161, 162, 163, 164, 165, 166, 167, 168, 169, 170, 171, 172, 173, 174, 175, 176, 177, 178, 179, 180, 181, 182, 183, 184, 185, 186, 187, 188, 189, 190, 191, 192, 193, 194, 195, 196, 197, 198, 199, 200, 201, 202, 203, 204, 205, 206, 207, 208, 209, 210, 211, 212, 213, 214, 215, 216, 217, 218, 219, 220, 221, 222, 223, 224, 225, 226, 227, 228, 229, 230, 231, 232, 233, 234, 235, 236, 237, 238, 239, 240, 241, 242, 243, 244, 245, 246, 247, 248, 249, 250, 251, 252, 253, 254, 255, 256, 257, 258, 259, 260, 261, 262, 263, 264, 265, 266, 267, 268, 269, 270, 271, 272, 273, 274, 275, 276, 277, 278, 279, 280, 281, 282, 283, 284, 285, 286, 287, 288, 289, 290, 291, 292, 293, 294, 295, 296, 297, 298, 299, 300],
      "LargestImagePixelValue": [44477, 43687, 42819, 41928, 42280, 42591, 42664, 42426, 42306, 42615, 42744, 42610, 42123, 42470, 42501, 42205, 41816, 41210, 42359, 41537, 41669, 42279, 42643, 42315, 42628, 42317, 42664, 42377, 41716, 42554, 41793, 42211, 42828, 42955, 41969, 42307, 41611, 41691, 41443, 41652, 41709, 42350, 41786, 41657, 41536, 41747, 42266, 41982, 42185, 41391, 41649, 41750, 41786, 42110, 41676, 41737, 41789, 41502, 41348, 41216, 41557, 41692, 41783, 41525, 41781, 41665, 41545, 41614, 42061, 41736, 41840, 41531, 41816, 41442, 41478, 41441, 41716, 41452, 41312, 41653, 41849, 41644, 41462, 41287, 41609, 41629, 41374, 42025, 41625, 41562, 41840, 41770, 41699, 42004, 41988, 41434, 41741, 41934, 41672, 41644, 41801, 41818, 41540, 41657, 41364, 41253, 41482, 41689, 42010, 42035, 41789, 41151, 41345, 41432, 41426, 41720, 41663, 41353, 41908, 41794, 41287, 41524, 41591, 41639, 41808, 41883, 41621, 41506, 41597, 41594, 41643, 41514, 41591, 41449, 41301, 41485, 41571, 41632, 41684, 41443, 41461, 41711, 41568, 41784, 41311, 41747, 41516, 41577, 41528, 41833, 41509, 41975, 41316, 41778, 41686, 41666, 41542, 41761, 41590, 41639, 41412, 41711, 41922, 41770, 41734, 41614, 41703, 42003, 41853, 41514, 41545, 41850, 41742, 41654, 41779, 41534, 41211, 41848, 41935, 42190, 41804, 41714, 41573, 41996, 41559, 41727, 41773, 41930, 41799, 42169, 42016, 42077, 41573, 41750, 41914, 41735, 41964, 41643, 41781, 41807, 41831, 41750, 41775, 41481, 41831, 41356, 42122, 42605, 42068, 41612, 41735, 41811, 42114, 41610, 41722, 41739, 42273, 42181, 42083, 41896, 42117, 42054, 42047, 41872, 41655, 42115, 42111, 41623, 42375, 42206, 41856, 41866, 42180, 42004, 42272, 42073, 42304, 42151, 41740, 42021, 41744, 41765, 42374, 42224, 41444, 42109, 42154, 42366, 41764, 41238, 42010, 41780, 41860, 41708, 41720, 41684, 41620, 41683, 42033, 41805, 41338, 41738, 42233, 41488, 41676, 41904, 41852, 42038, 41778, 41898, 41651, 42025, 41832, 41599, 41714, 42222, 41675, 42101, 41956, 41666, 42291, 41594, 42136, 41595, 42340, 41593, 41646, 41912, 42140, 41734, 42174, 42448, 42012, 41819, 41882, 41990, 41735, 41577, 41923, 41763],
      "WindowCenter": [10380.0, 10330.0, 10303.0, 10288.0, 10285.0, 10290.0, 10290.0, 10291.0, 10291.0, 10290.0, 10296.0, 10297.0, 10293.0, 10298.0, 10297.0, 10291.0, 10284.0, 10272.0, 10273.0, 10280.0, 10288.0, 10301.0, 10308.0, 10303.0, 10314.0, 10307.0, 10304.0, 10299.0, 10287.0, 10297.0, 10291.0, 10291.0, 10302.0, 10302.0, 10290.0, 10296.0, 10292.0, 10295.0, 10300.0, 10295.0, 10294.0, 10298.0, 10290.0, 10277.0, 10277.0, 10276.0, 10281.0, 10275.0, 10279.0, 10261.0, 10259.0, 10257.0, 10264.0, 10272.0, 10267.0, 10267.0, 10266.0, 10266.0, 10261.0, 10268.0, 10275.0, 10277.0, 10284.0, 10286.0, 10297.0, 10287.0, 10292.0, 10288.0, 10285.0, 10279.0, 10285.0, 10278.0, 10277.0, 10270.0, 10269.0, 10267.0, 10266.0, 10267.0, 10262.0, 10267.0, 10272.0, 10267.0, 10261.0, 10255.0, 10260.0, 10259.0, 10254.0, 10265.0, 10261.0, 10261.0, 10268.0, 10284.0, 10280.0, 10292.0, 10293.0, 10281.0, 10280.0, 10286.0, 10279.0, 10278.0, 10277.0, 10283.0, 10271.0, 10270.0, 10269.0, 10262.0, 10260.0, 10259.0, 10257.0, 10259.0, 10268.0, 10272.0, 10282.0, 10283.0, 10282.0, 10288.0, 10289.0, 10290.0, 10297.0, 10297.0, 10285.0, 10291.0, 10284.0, 10289.0, 10288.0, 10288.0, 10281.0, 10279.0, 10279.0, 10279.0, 10279.0, 10278.0, 10277.0, 10270.0, 10264.0, 10271.0, 10278.0, 10271.0, 10270.0, 10277.0, 10286.0, 10288.0, 10287.0, 10285.0, 10273.0, 10272.0, 10271.0, 10271.0, 10277.0, 10281.0, 10288.0, 10288.0, 10282.0, 10285.0, 10272.0, 10270.0, 10269.0, 10269.0, 10270.0, 10269.0, 10272.0, 10279.0, 10281.0, 10280.0, 10275.0, 10280.0, 10279.0, 10279.0, 10279.0, 10274.0, 10279.0, 10280.0, 10281.0, 10280.0, 10287.0, 10283.0, 10283.0, 10286.0, 10281.0, 10286.0, 10281.0, 10276.0, 10276.0, 10283.0, 10277.0, 10278.0, 10282.0, 10274.0, 10272.0, 10278.0, 10275.0, 10275.0, 10279.0, 10294.0, 10295.0, 10295.0, 10299.0, 10287.0, 10284.0, 10281.0, 10264.0, 10248.0, 10243.0, 10235.0, 10243.0, 10245.0, 10270.0, 10286.0, 10281.0, 10281.0, 10275.0, 10271.0, 10270.0, 10262.0, 10264.0, 10273.0, 10286.0, 10296.0, 10312.0, 10317.0, 10316.0, 10313.0, 10316.0, 10314.0, 10300.0, 10302.0, 10300.0, 10285.0, 10283.0, 10279.0, 10272.0, 10271.0, 10277.0, 10272.0, 10278.0, 10273.0, 10279.0, 10274.0, 10270.0, 10274.0, 10269.0, 10273.0, 10277.0, 10272.0, 10272.0, 10286.0, 10297.0, 10297.0, 10293.0, 10288.0, 10294.0, 10291.0, 10282.0, 10276.0, 10276.0, 10277.0, 10277.0, 10276.0, 10275.0, 10273.0, 10255.0, 10268.0, 10273.0, 10273.0, 10266.0, 10266.0, 10271.0, 10273.0, 10279.0, 10275.0, 10276.0, 10291.0, 10298.0, 10294.0, 10295.0, 10299.0, 10286.0, 10283.0, 10275.0, 10269.0, 10274.0, 10270.0, 10275.0, 10276.0, 10282.0, 10278.0, 10278.0, 10284.0, 10289.0, 10278.0, 10282.0, 10288.0, 10278.0, 10283.0, 10284.0, 10280.0, 10272.0, 10272.0, 10277.0, 10278.0],
