{
  "AcquisitionMatrixPE": 104,
  "AcquisitionNumber": 1,
  "AcquisitionTime": "17:14:25.625000",
  "BandwidthPerPixelPhaseEncode": 16.297,
  "BaseResolution": 104,
  "BodyPartExamined": "BRAIN",
  "ConsistencyInfo": "N4_VE11C_LATEST_20160120",
  "ConversionSoftware": "dcm2niix",
  "ConversionSoftwareVersion": "v1.0.20210317",
  "DerivedVendorReportedEchoSpacing": 0.000590009,
  "DeviceSerialNumber": "166018",
  "DwellTime": 2.1e-06,
  "EchoTime": 0.0376,
  "EchoTrainLength": 104,
  "EffectiveEchoSpacing": 0.000590009,
  "FlipAngle": 68,
  "ImageComments": "Unaliased MB6/PE3/LB",
  "ImageOrientationPatientDICOM": [0.998793, 0.0424046, 0.0247703, -0.0305159, 0.931098, -0.36349],
  "ImageType": [
    "ORIGINAL",
    "PRIMARY",
    "M",
    "MB",
    "ND",
    "MOSAIC"
],
  "ImagingFrequency": 123.197,
  "InPlanePhaseEncodingDirectionDICOM": "COL",
  "InstitutionAddress": "Washington Place 6,NYC,NYC,US,10003",
  "InstitutionName": "NYU - CBI",
  "InstitutionalDepartmentName": "Department",
  "MRAcquisitionType": "2D",
  "MagneticFieldStrength": 3,
  "Manufacturer": "Siemens",
  "ManufacturersModelName": "Prisma",
  "Modality": "MR",
  "MultibandAccelerationFactor": 6,
  "PartialFourier": 1,
  "PatientPosition": "HFS",
  "PercentPhaseFOV": 100,
  "PercentSampling": 100,
  "PhaseEncodingDirection": "j",
  "PhaseEncodingSteps": 104,
  "PhaseResolution": 1,
  "PixelBandwidth": 2290,
  "ProcedureStepDescription": "Investigators^Winawer",
  "ProtocolName": "cmrr_mbepi_s6_2mm_66sl_PA_task-wedgering2",
  "PulseSequenceDetails": "%CustomerSeq%\\cmrr_mbep2d_bold",
  "ReceiveCoilActiveElements": "HC1-7",
  "ReceiveCoilName": "HeadNeck_64",
  "ReconMatrixPE": 104,
  "RepetitionTime": 1,
  "SAR": 0.0813628,
  "ScanOptions": "FS",
  "ScanningSequence": "EP",
  "SequenceName": "epfid2d1_104",
  "SequenceVariant": "SK\\SS",
  "SeriesDescription": "cmrr_mbepi_s6_2mm_66sl_PA_task-wedgering2",
  "SeriesNumber": 14,
  "ShimSetting": [285, -12611, -8474, 241, -40, -323, -177, 48],
  "SliceThickness": 2,
  "SliceTiming": [0, 0.535, 0.09, 0.6225, 0.1775, 0.7125, 0.2675, 0.8025, 0.3575, 0.89, 0.445, 0, 0.535, 0.09, 0.6225, 0.1775, 0.7125, 0.2675, 0.8025, 0.3575, 0.89, 0.445, 0, 0.535, 0.09, 0.6225, 0.1775, 0.7125, 0.2675, 0.8025, 0.3575, 0.89, 0.445, 0, 0.535, 0.09, 0.6225, 0.1775, 0.7125, 0.2675, 0.8025, 0.3575, 0.89, 0.445, 0, 0.535, 0.09, 0.6225, 0.1775, 0.7125, 0.2675, 0.8025, 0.3575, 0.89, 0.445, 0, 0.535, 0.09, 0.6225, 0.1775, 0.7125, 0.2675, 0.8025, 0.3575, 0.89, 0.445],
  "SoftwareVersions": "syngo MR E11",
  "SpacingBetweenSlices": 2,
  "StationName": "AWP166018",
  "TaskName": "wedgering2",
  "TotalReadoutTime": 0.060771,
  "TxRefAmp": 230.983,
  "VendorReportedEchoSpacing": 0.00059,
  "WipMemBlock": "7c4ecaf5-4c8e-4f87-bc08-a5f38bb37e0f||Sequence: R016 ve11c/master r/8780670; Nov 27 2017 15:05:12 by eja",
  "dcmmeta_affine": [
    [-1.9975868463516235, -0.06103174760937691, 0.07695453613996506, 110.06312561035156],
    [-0.08480917662382126, 1.8621960878372192, -0.7245916724205017, -53.47993850708008],
    [0.049540672451257706, 0.7269806265830994, 1.8625372648239136, -73.64340209960938],
    [0.0, 0.0, 0.0, 1.0]
],
  "dcmmeta_reorient_transform": [
    [0.0, -1.0, 0.0, 103.0],
    [1.0, 0.0, 0.0, 0.0],
    [0.0, 0.0, 1.0, 0.0],
    [0.0, 0.0, 0.0, 1.0]
],
  "dcmmeta_shape": [104, 104, 66, 300],
  "dcmmeta_slice_dim": 2,
  "dcmmeta_version": 0.6,
  "global": {
    "const": {
      "AccessionNumber": "LfbLcsgL",
      "AcquisitionMatrix": [104, 0, 0, 104],
      "AngioFlag": "N",
      "BitsAllocated": 16,
      "BitsStored": 16,
      "BodyPartExamined": "BRAIN",
      "Columns": 936,
      "EchoNumbers": 1,
      "EchoTime": 37.6,
      "EchoTrainLength": 104,
      "FlipAngle": 68.0,
      "HighBit": 15,
      "ImageOrientationPatient": [0.99879341268941, 0.04240458926074, 0.02477033665256, -0.0305158733587, 0.9310980516803, -0.3634903019756],
      "ImagePositionPatient": [-909.38376868255, -948.28045739444, 283.05061175501],
      "ImageType": [
        "ORIGINAL",
        "PRIMARY",
        "M",
        "MB",
        "ND",
        "MOSAIC"
],
      "ImagedNucleus": "1H",
      "ImagingFrequency": 123.196818,
      "InPlanePhaseEncodingDirection": "COL",
      "MRAcquisitionType": "2D",
      "MagneticFieldStrength": 3.0,
      "Manufacturer": "SIEMENS",
      "ManufacturerModelName": "Prisma",
      "Modality": "MR",
      "NumberOfAverages": 1.0,
      "NumberOfPhaseEncodingSteps": 104,
      "PercentPhaseFieldOfView": 100.0,
      "PercentSampling": 100.0,
      "PerformedProcedureStepStartTime": "163533.754000",
      "PhotometricInterpretation": "MONOCHROME2",
      "PixelBandwidth": 2290.0,
      "PixelRepresentation": 0,
      "PixelSpacing": [2.0, 2.0],
      "ProtocolName": "cmrr_mbepi_s6_2mm_66sl_PA_task-wedgering2",
      "RepetitionTime": 1000.0,
      "Rows": 936,
      "SAR": 0.0813627763422,
      "SamplesPerPixel": 1,
      "ScanOptions": "FS",
      "ScanningSequence": "EP",
      "SequenceName": "epfid2d1_104",
      "SequenceVariant": [
        "SK",
        "SS"
],
      "SeriesDescription": "cmrr_mbepi_s6_2mm_66sl_PA_task-wedgering2",
      "SeriesNumber": 14,
      "SeriesTime": "171523.744000",
      "SliceLocation": -44.971301244449,
      "SliceThickness": 2.0,
      "SmallestImagePixelValue": 0,
      "SoftwareVersions": "syngo MR E11",
      "SpacingBetweenSlices": 2.0000000220009,
      "SpecificCharacterSet": "ISO_IR 100",
      "StudyID": "1",
      "StudyTime": "163533.680000",
      "TransmitCoilName": "Body",
      "VariableFlipAngleFlag": "N",
      "WindowCenterWidthExplanation": "Algo1",
      "dBdt": 0.0},
    "slices": {}
  },
  "time": {
    "samples": {
      "AcquisitionNumber": [1, 2, 3, 4, 5, 6, 7, 8, 9, 10, 11, 12, 13, 14, 15, 16, 17, 18, 19, 20, 21, 22, 23, 24, 25, 26, 27, 28, 29, 30, 31, 32, 33, 34, 35, 36, 37, 38, 39, 40, 41, 42, 43, 44, 45, 46, 47, 48, 49, 50, 51, 52, 53, 54, 55, 56, 57, 58, 59, 60, 61, 62, 63, 64, 65, 66, 67, 68, 69, 70, 71, 72, 73, 74, 75, 76, 77, 78, 79, 80, 81, 82, 83, 84, 85, 86, 87, 88, 89, 90, 91, 92, 93, 94, 95, 96, 97, 98, 99, 100, 101, 102, 103, 104, 105, 106, 107, 108, 109, 110, 111, 112, 113, 114, 115, 116, 117, 118, 119, 120, 121, 122, 123, 124, 125, 126, 127, 128, 129, 130, 131, 132, 133, 134, 135, 136, 137, 138, 139, 140, 141, 142, 143, 144, 145, 146, 147, 148, 149, 150, 151, 152, 153, 154, 155, 156, 157, 158, 159, 160, 161, 162, 163, 164, 165, 166, 167, 168, 169, 170, 171, 172, 173, 174, 175, 176, 177, 178, 179, 180, 181, 182, 183, 184, 185, 186, 187, 188, 189, 190, 191, 192, 193, 194, 195, 196, 197, 198, 199, 200, 201, 202, 203, 204, 205, 206, 207, 208, 209, 210, 211, 212, 213, 214, 215, 216, 217, 218, 219, 220, 221, 222, 223, 224, 225, 226, 227, 228, 229, 230, 231, 232, 233, 234, 235, 236, 237, 238, 239, 240, 241, 242, 243, 244, 245, 246, 247, 248, 249, 250, 251, 252, 253, 254, 255, 256, 257, 258, 259, 260, 261, 262, 263, 264, 265, 266, 267, 268, 269, 270, 271, 272, 273, 274, 275, 276, 277, 278, 279, 280, 281, 282, 283, 284, 285, 286, 287, 288, 289, 290, 291, 292, 293, 294, 295, 296, 297, 298, 299, 300],
      "AcquisitionTime": ["171425.625000", "171426.625000", "171427.625000", "171428.625000", "171429.625000", "171430.625000", "171431.625000", "171432.625000", "171433.625000", "171434.625000", "171435.625000", "171436.625000", "171437.625000", "171438.625000", "171439.625000", "171440.625000", "171441.625000", "171442.625000", "171443.625000", "171444.625000", "171445.625000", "171446.625000", "171447.625000", "171448.625000", "171449.625000", "171450.625000", "171451.625000", "171452.625000", "171453.625000", "171454.625000", "171455.625000", "171456.625000", "171457.625000", "171458.625000", "171459.625000", "171500.625000", "171501.625000", "171502.625000", "171503.625000", "171504.625000", "171505.625000", "171506.625000", "171507.625000", "171508.625000", "171509.625000", "171510.625000", "171511.625000", "171512.625000", "171513.625000", "171514.625000", "171515.625000", "171516.625000", "171517.625000", "171518.625000", "171519.625000", "171520.625000", "171521.625000", "171522.625000", "171523.625000", "171524.625000", "171525.625000", "171526.625000", "171527.625000", "171528.625000", "171529.625000", "171530.625000", "171531.625000", "171532.625000", "171533.625000", "171534.625000", "171535.625000", "171536.625000", "171537.625000", "171538.625000", "171539.625000", "171540.625000", "171541.625000", "171542.625000", "171543.625000", "171544.625000", "171545.625000", "171546.625000", "171547.625000", "171548.625000", "171549.625000", "171550.625000", "171551.625000", "171552.625000", "171553.625000", "171554.625000", "171555.625000", "171556.625000", "171557.625000", "171558.625000", "171559.625000", "171600.625000", "171601.625000", "171602.625000", "171603.625000", "171604.625000", "171605.625000", "171606.625000", "171607.625000", "171608.625000", "171609.625000", "171610.625000", "171611.625000", "171612.625000", "171613.625000", "171614.625000", "171615.625000", "171616.625000", "171617.625000", "171618.625000", "171619.625000", "171620.625000", "171621.625000", "171622.625000", "171623.625000", "171624.625000", "171625.625000", "171626.625000", "171627.625000", "171628.625000", "171629.625000", "171630.625000", "171631.625000", "171632.625000", "171633.625000", "171634.625000", "171635.625000", "171636.625000", "171637.625000", "171638.625000", "171639.625000", "171640.625000", "171641.625000", "171642.625000", "171643.625000", "171644.625000", "171645.625000", "171646.625000", "171647.625000", "171648.625000", "171649.625000", "171650.625000", "171651.625000", "171652.625000", "171653.625000", "171654.625000", "171655.625000", "171656.625000", "171657.625000", "171658.625000", "171659.625000", "171700.625000", "171701.625000", "171702.625000", "171703.625000", "171704.625000", "171705.625000", "171706.625000", "171707.625000", "171708.625000", "171709.625000", "171710.625000", "171711.625000", "171712.625000", "171713.625000", "171714.625000", "171715.625000", "171716.625000", "171717.625000", "171718.625000", "171719.625000", "171720.625000", "171721.625000", "171722.625000", "171723.625000", "171724.625000", "171725.625000", "171726.625000", "171727.625000", "171728.625000", "171729.625000", "171730.625000", "171731.625000", "171732.625000", "171733.625000", "171734.625000", "171735.625000", "171736.625000", "171737.625000", "171738.625000", "171739.625000", "171740.625000", "171741.625000", "171742.625000", "171743.625000", "171744.625000", "171745.625000", "171746.625000", "171747.625000", "171748.625000", "171749.625000", "171750.625000", "171751.625000", "171752.625000", "171753.625000", "171754.625000", "171755.625000", "171756.625000", "171757.625000", "171758.625000", "171759.625000", "171800.625000", "171801.625000", "171802.625000", "171803.625000", "171804.625000", "171805.625000", "171806.625000", "171807.625000", "171808.625000", "171809.625000", "171810.625000", "171811.625000", "171812.625000", "171813.625000", "171814.625000", "171815.625000", "171816.625000", "171817.625000", "171818.625000", "171819.625000", "171820.625000", "171821.625000", "171822.625000", "171823.625000", "171824.625000", "171825.625000", "171826.625000", "171827.625000", "171828.625000", "171829.625000", "171830.625000", "171831.625000", "171832.625000", "171833.625000", "171834.625000", "171835.625000", "171836.625000", "171837.625000", "171838.625000", "171839.625000", "171840.625000", "171841.625000", "171842.625000", "171843.625000", "171844.625000", "171845.625000", "171846.625000", "171847.625000", "171848.625000", "171849.625000", "171850.625000", "171851.625000", "171852.625000", "171853.625000", "171854.625000", "171855.625000", "171856.625000", "171857.625000", "171858.625000", "171859.625000", "171900.625000", "171901.625000", "171902.625000", "171903.625000", "171904.625000", "171905.625000", "171906.625000", "171907.625000", "171908.625000", "171909.625000", "171910.625000", "171911.625000", "171912.625000", "171913.625000", "171914.625000", "171915.625000", "171916.625000", "171917.625000", "171918.625000", "171919.625000", "171920.625000", "171921.625000", "171922.625000", "171923.625000", "171924.625000"],
      "ContentTime": ["171523.748000", "171523.751000", "171528.717000", "171528.720000", "171528.723000", "171528.726000", "171528.729000", "171528.732000", "171528.749000", "171533.717000", "171533.726000", "171533.729000", "171533.732000", "171533.735000", "171533.738000", "171533.741000", "171538.717000", "171538.720000", "171538.723000", "171538.726000", "171538.729000", "171538.738000", "171538.741000", "171543.716000", "171543.719000", "171543.722000", "171543.725000", "171543.728000", "171543.731000", "171543.734000", "171543.737000", "171548.717000", "171548.720000", "171548.723000", "171548.726000", "171548.743000", "171548.746000", "171548.749000", "171553.717000", "171553.720000", "171553.723000", "171553.726000", "171553.729000", "171553.732000", "171553.735000", "171558.717000", "171558.720000", "171558.723000", "171558.726000", "171558.729000", "171558.732000", "171558.735000", "171603.717000", "171603.720000", "171603.729000", "171603.732000", "171603.735000", "171603.738000", "171603.741000", "171608.717000", "171608.720000", "171608.723000", "171608.726000", "171608.729000", "171608.732000", "171608.735000", "171613.717000", "171613.720000", "171613.723000", "171613.726000", "171613.729000", "171613.732000", "171613.735000", "171618.716000", "171618.719000", "171618.722000", "171618.725000", "171618.728000", "171618.731000", "171618.734000", "171623.717000", "171623.720000", "171623.723000", "171623.726000", "171623.729000", "171623.732000", "171623.735000", "171628.717000", "171628.720000", "171628.723000", "171628.726000", "171628.729000", "171628.732000", "171628.735000", "171633.717000", "171633.720000", "171633.723000", "171633.726000", "171633.729000", "171633.732000", "171633.735000", "171638.717000", "171638.720000", "171638.723000", "171638.726000", "171638.729000", "171638.732000", "171638.735000", "171638.738000", "171643.717000", "171643.720000", "171643.723000", "171643.726000", "171643.729000", "171643.732000", "171643.735000", "171648.717000", "171648.720000", "171648.723000", "171648.726000", "171648.729000", "171648.732000", "171648.735000", "171653.716000", "171653.719000", "171653.722000", "171653.725000", "171653.728000", "171653.731000", "171653.734000", "171658.717000", "171658.720000", "171658.723000", "171658.726000", "171658.729000", "171658.732000", "171658.735000", "171703.717000", "171703.720000", "171703.723000", "171703.726000", "171703.729000", "171703.732000", "171703.735000", "171708.717000", "171708.720000", "171708.723000", "171708.726000", "171708.729000", "171708.732000", "171708.735000", "171713.717000", "171713.720000", "171713.723000", "171713.726000", "171713.729000", "171713.732000", "171713.735000", "171718.717000", "171718.720000", "171718.723000", "171718.726000", "171718.729000", "171718.732000", "171718.735000", "171723.717000", "171723.720000", "171723.723000", "171723.726000", "171723.729000", "171723.732000", "171723.735000", "171728.716000", "171728.719000", "171728.722000", "171728.725000", "171728.728000", "171728.731000", "171728.734000", "171733.717000", "171733.720000", "171733.723000", "171733.726000", "171733.729000", "171733.732000", "171733.735000", "171738.717000", "171738.720000", "171738.723000", "171738.726000", "171738.729000", "171738.732000", "171743.717000", "171743.720000", "171743.723000", "171743.726000", "171743.729000", "171748.717000", "171748.720000", "171748.723000", "171748.726000", "171748.729000", "171753.717000", "171753.720000", "171753.723000", "171753.726000", "171753.729000", "171758.717000", "171758.720000", "171758.723000", "171758.741000", "171758.744000", "171803.716000", "171803.719000", "171803.722000", "171803.725000", "171803.728000", "171808.717000", "171808.720000", "171808.723000", "171808.726000", "171808.729000", "171813.717000", "171813.720000", "171813.723000", "171813.726000", "171813.729000", "171818.717000", "171818.720000", "171818.731000", "171818.734000", "171818.737000", "171823.717000", "171823.720000", "171823.723000", "171823.726000", "171823.729000", "171828.717000", "171828.720000", "171828.723000", "171828.726000", "171828.729000", "171833.717000", "171833.720000", "171833.723000", "171833.726000", "171833.729000", "171838.716000", "171838.719000", "171838.722000", "171838.725000", "171838.728000", "171843.717000", "171843.720000", "171843.723000", "171843.726000", "171843.729000", "171848.717000", "171848.720000", "171848.723000", "171848.726000", "171848.729000", "171853.717000", "171853.720000", "171853.723000", "171853.726000", "171853.729000", "171858.717000", "171858.720000", "171858.723000", "171858.726000", "171858.729000", "171903.717000", "171903.720000", "171903.723000", "171903.726000", "171903.729000", "171908.717000", "171908.720000", "171908.723000", "171908.726000", "171908.729000", "171913.716000", "171913.719000", "171913.722000", "171913.725000", "171913.728000", "171918.717000", "171918.720000", "171918.723000", "171918.726000", "171918.730000", "171923.717000", "171923.720000", "171923.723000", "171923.726000", "171923.729000", "171926.063000", "171926.066000", "171926.069000"],
      "InstanceCreationTime": ["171523.748000", "171523.751000", "171528.717000", "171528.720000", "171528.723000", "171528.726000", "171528.729000", "171528.732000", "171528.749000", "171533.717000", "171533.726000", "171533.729000", "171533.732000", "171533.735000", "171533.738000", "171533.741000", "171538.717000", "171538.720000", "171538.723000", "171538.726000", "171538.729000", "171538.738000", "171538.741000", "171543.716000", "171543.719000", "171543.722000", "171543.725000", "171543.728000", "171543.731000", "171543.734000", "171543.737000", "171548.717000", "171548.720000", "171548.723000", "171548.726000", "171548.743000", "171548.746000", "171548.749000", "171553.717000", "171553.720000", "171553.723000", "171553.726000", "171553.729000", "171553.732000", "171553.735000", "171558.717000", "171558.720000", "171558.723000", "171558.726000", "171558.729000", "171558.732000", "171558.735000", "171603.717000", "171603.720000", "171603.729000", "171603.732000", "171603.735000", "171603.738000", "171603.741000", "171608.717000", "171608.720000", "171608.723000", "171608.726000", "171608.729000", "171608.732000", "171608.735000", "171613.717000", "171613.720000", "171613.723000", "171613.726000", "171613.729000", "171613.732000", "171613.735000", "171618.716000", "171618.719000", "171618.722000", "171618.725000", "171618.728000", "171618.731000", "171618.734000", "171623.717000", "171623.720000", "171623.723000", "171623.726000", "171623.729000", "171623.732000", "171623.735000", "171628.717000", "171628.720000", "171628.723000", "171628.726000", "171628.729000", "171628.732000", "171628.735000", "171633.717000", "171633.720000", "171633.723000", "171633.726000", "171633.729000", "171633.732000", "171633.735000", "171638.717000", "171638.720000", "171638.723000", "171638.726000", "171638.729000", "171638.732000", "171638.735000", "171638.738000", "171643.717000", "171643.720000", "171643.723000", "171643.726000", "171643.729000", "171643.732000", "171643.735000", "171648.717000", "171648.720000", "171648.723000", "171648.726000", "171648.729000", "171648.732000", "171648.735000", "171653.716000", "171653.719000", "171653.722000", "171653.725000", "171653.728000", "171653.731000", "171653.734000", "171658.717000", "171658.720000", "171658.723000", "171658.726000", "171658.729000", "171658.732000", "171658.735000", "171703.717000", "171703.720000", "171703.723000", "171703.726000", "171703.729000", "171703.732000", "171703.735000", "171708.717000", "171708.720000", "171708.723000", "171708.726000", "171708.729000", "171708.732000", "171708.735000", "171713.717000", "171713.720000", "171713.723000", "171713.726000", "171713.729000", "171713.732000", "171713.735000", "171718.717000", "171718.720000", "171718.723000", "171718.726000", "171718.729000", "171718.732000", "171718.735000", "171723.717000", "171723.720000", "171723.723000", "171723.726000", "171723.729000", "171723.732000", "171723.735000", "171728.716000", "171728.719000", "171728.722000", "171728.725000", "171728.728000", "171728.731000", "171728.734000", "171733.717000", "171733.720000", "171733.723000", "171733.726000", "171733.729000", "171733.732000", "171733.735000", "171738.717000", "171738.720000", "171738.723000", "171738.726000", "171738.729000", "171738.732000", "171743.717000", "171743.720000", "171743.723000", "171743.726000", "171743.729000", "171748.717000", "171748.720000", "171748.723000", "171748.726000", "171748.729000", "171753.717000", "171753.720000", "171753.723000", "171753.726000", "171753.729000", "171758.717000", "171758.720000", "171758.723000", "171758.741000", "171758.744000", "171803.716000", "171803.719000", "171803.722000", "171803.725000", "171803.728000", "171808.717000", "171808.720000", "171808.723000", "171808.726000", "171808.729000", "171813.717000", "171813.720000", "171813.723000", "171813.726000", "171813.729000", "171818.717000", "171818.720000", "171818.731000", "171818.734000", "171818.737000", "171823.717000", "171823.720000", "171823.723000", "171823.726000", "171823.729000", "171828.717000", "171828.720000", "171828.723000", "171828.726000", "171828.729000", "171833.717000", "171833.720000", "171833.723000", "171833.726000", "171833.729000", "171838.716000", "171838.719000", "171838.722000", "171838.725000", "171838.728000", "171843.717000", "171843.720000", "171843.723000", "171843.726000", "171843.729000", "171848.717000", "171848.720000", "171848.723000", "171848.726000", "171848.729000", "171853.717000", "171853.720000", "171853.723000", "171853.726000", "171853.729000", "171858.717000", "171858.720000", "171858.723000", "171858.726000", "171858.729000", "171903.717000", "171903.720000", "171903.723000", "171903.726000", "171903.729000", "171908.717000", "171908.720000", "171908.723000", "171908.726000", "171908.729000", "171913.716000", "171913.719000", "171913.722000", "171913.725000", "171913.728000", "171918.717000", "171918.720000", "171918.723000", "171918.726000", "171918.730000", "171923.717000", "171923.720000", "171923.723000", "171923.726000", "171923.729000", "171926.063000", "171926.066000", "171926.069000"],
      "InstanceNumber": [1, 2, 3, 4, 5, 6, 7, 8, 9, 10, 11, 12, 13, 14, 15, 16, 17, 18, 19, 20, 21, 22, 23, 24, 25, 26, 27, 28, 29, 30, 31, 32, 33, 34, 35, 36, 37, 38, 39, 40, 41, 42, 43, 44, 45, 46, 47, 48, 49, 50, 51, 52, 53, 54, 55, 56, 57, 58, 59, 60, 61, 62, 63, 64, 65, 66, 67, 68, 69, 70, 71, 72, 73, 74, 75, 76, 77, 78, 79, 80, 81, 82, 83, 84, 85, 86, 87, 88, 89, 90, 91, 92, 93, 94, 95, 96, 97, 98, 99, 100, 101, 102, 103, 104, 105, 106, 107, 108, 109, 110, 111, 112, 113, 114, 115, 116, 117, 118, 119, 120, 121, 122, 123, 124, 125, 126, 127, 128, 129, 130, 131, 132, 133, 134, 135, 136, 137, 138, 139, 140, 141, 142, 143, 144, 145, 146, 147, 148, 149, 150, 151, 152, 153, 154, 155, 156, 157, 158, 159, 160, 161, 162, 163, 164, 165, 166, 167, 168, 169, 170, 171, 172, 173, 174, 175, 176, 177, 178, 179, 180, 181, 182, 183, 184, 185, 186, 187, 188, 189, 190, 191, 192, 193, 194, 195, 196, 197, 198, 199, 200, 201, 202, 203, 204, 205, 206, 207, 208, 209, 210, 211, 212, 213, 214, 215, 216, 217, 218, 219, 220, 221, 222, 223, 224, 225, 226, 227, 228, 229, 230, 231, 232, 233, 234, 235, 236, 237, 238, 239, 240, 241, 242, 243, 244, 245, 246, 247, 248, 249, 250, 251, 252, 253, 254, 255, 256, 257, 258, 259, 260, 261, 262, 263, 264, 265, 266, 267, 268, 269, 270, 271, 272, 273, 274, 275, 276, 277, 278, 279, 280, 281, 282, 283, 284, 285, 286, 287, 288, 289, 290, 291, 292, 293, 294, 295, 296, 297, 298, 299, 300],
      "LargestImagePixelValue": [46627, 45481, 44766, 44428, 44928, 44844, 44457, 44069, 44391, 43440, 43401, 43836, 44471, 44253, 44039, 44163, 44104, 44142, 43883, 43428, 43833, 43944, 43838, 43896, 43472, 43651, 44069, 44532, 44526, 43737, 44098, 44291, 43933, 43587, 43450, 44217, 43640, 43599, 43941, 43710, 43392, 44172, 44294, 44246, 44234, 44296, 44020, 43803, 43621, 43676, 43921, 44140, 43520, 43799, 43729, 43942, 43737, 43153, 43530, 43653, 43730, 44216, 43732, 43734, 43705, 43002, 43332, 43243, 42506, 42399, 43300, 43595, 42882, 43368, 43543, 43313, 43364, 43824, 43138, 43671, 42737, 42677, 43072, 43488, 42854, 42598, 42714, 43092, 42862, 42748, 43103, 43524, 42820, 42843, 43320, 43322, 42997, 42837, 43461, 42666, 42968, 43327, 43256, 42497, 42553, 42673, 42425, 42449, 42530, 42279, 42443, 43134, 43274, 42848, 42471, 42967, 42602, 42127, 43103, 43045, 42741, 42309, 43026, 43009, 42742, 41992, 42211, 42828, 42111, 42362, 42809, 42866, 42755, 41908, 42092, 42490, 42146, 41844, 41827, 42313, 42345, 42907, 42347, 41761, 42494, 42568, 41966, 41916, 41832, 41430, 41432, 42095, 42516, 42246, 42196, 42508, 41948, 42050, 42062, 42242, 42227, 42149, 42749, 41904, 41974, 42984, 42333, 42176, 42654, 42419, 41883, 42164, 42392, 42017, 42296, 42483, 42019, 42175, 42306, 42152, 41956, 41587, 41339, 42204, 42210, 42005, 41549, 41331, 42089, 42533, 42162, 41702, 41260, 41770, 41172, 41447, 42302, 41970, 42478, 41919, 42456, 41727, 41299, 41456, 42024, 41818, 42046, 41892, 41985, 41614, 41887, 41831, 41908, 41816, 42060, 42266, 42009, 42074, 41304, 42150, 42421, 42606, 42414, 42080, 41803, 41430, 41749, 41853, 41696, 42143, 42035, 42158, 41782, 42107, 42143, 42236, 42166, 41430, 41847, 41739, 42221, 42096, 41790, 42118, 42027, 42244, 42168, 41888, 41503, 41726, 41744, 42082, 41610, 41474, 41407, 42185, 41654, 41424, 41849, 42074, 41879, 41340, 41884, 41835, 41855, 41667, 41894, 41374, 41637, 41776, 41820, 41642, 41417, 42039, 42170, 42128, 42658, 41966, 41954, 41846, 42263, 41043, 41473, 42247, 41871, 41828, 41719, 42343, 41805, 41769, 41576, 41395, 41822, 41821, 41437, 41669, 41287, 41137, 41387, 41099],
      "WindowCenter": [10409.0, 10370.0, 10350.0, 10339.0, 10335.0, 10334.0, 10329.0, 10324.0, 10326.0, 10322.0, 10327.0, 10335.0, 10337.0, 10328.0, 10324.0, 10318.0, 10311.0, 10310.0, 10308.0, 10305.0, 10304.0, 10310.0, 10317.0, 10313.0, 10308.0, 10313.0, 10320.0, 10332.0, 10333.0, 10328.0, 10335.0, 10327.0, 10326.0, 10320.0, 10313.0, 10321.0, 10310.0, 10317.0, 10317.0, 10323.0, 10320.0, 10324.0, 10330.0, 10331.0, 10332.0, 10325.0, 10323.0, 10316.0, 10310.0, 10309.0, 10316.0, 10324.0, 10319.0, 10325.0, 10326.0, 10326.0, 10318.0, 10306.0, 10305.0, 10306.0, 10303.0, 10310.0, 10311.0, 10310.0, 10317.0, 10308.0, 10307.0, 10305.0, 10294.0, 10294.0, 10298.0, 10302.0, 10298.0, 10304.0, 10311.0, 10307.0, 10320.0, 10315.0, 10315.0, 10322.0, 10310.0, 10305.0, 10321.0, 10322.0, 10317.0, 10312.0, 10319.0, 10324.0, 10317.0, 10317.0, 10323.0, 10323.0, 10313.0, 10319.0, 10318.0, 10318.0, 10312.0, 10318.0, 10313.0, 10311.0, 10318.0, 10324.0, 10319.0, 10312.0, 10309.0, 10295.0, 10292.0, 10287.0, 10284.0, 10276.0, 10277.0, 10288.0, 10287.0, 10283.0, 10282.0, 10282.0, 10275.0, 10270.0, 10274.0, 10273.0, 10275.0, 10272.0, 10284.0, 10287.0, 10294.0, 10290.0, 10290.0, 10295.0, 10291.0, 10297.0, 10303.0, 10310.0, 10311.0, 10301.0, 10299.0, 10311.0, 10306.0, 10305.0, 10305.0, 10314.0, 10318.0, 10331.0, 10325.0, 10318.0, 10313.0, 10304.0, 10291.0, 10290.0, 10291.0, 10287.0, 10289.0, 10298.0, 10302.0, 10296.0, 10298.0, 10297.0, 10298.0, 10294.0, 10295.0, 10306.0, 10315.0, 10317.0, 10323.0, 10313.0, 10313.0, 10327.0, 10316.0, 10316.0, 10314.0, 10315.0, 10303.0, 10308.0, 10302.0, 10303.0, 10309.0, 10315.0, 10304.0, 10310.0, 10313.0, 10320.0, 10313.0, 10314.0, 10304.0, 10314.0, 10316.0, 10315.0, 10311.0, 10312.0, 10322.0, 10320.0, 10313.0, 10300.0, 10291.0, 10287.0, 10275.0, 10286.0, 10299.0, 10294.0, 10300.0, 10295.0, 10306.0, 10303.0, 10299.0, 10299.0, 10304.0, 10298.0, 10299.0, 10299.0, 10300.0, 10300.0, 10298.0, 10298.0, 10304.0, 10308.0, 10307.0, 10306.0, 10306.0, 10306.0, 10302.0, 10321.0, 10330.0, 10329.0, 10329.0, 10321.0, 10314.0, 10309.0, 10309.0, 10306.0, 10303.0, 10308.0, 10313.0, 10327.0, 10332.0, 10331.0, 10322.0, 10312.0, 10302.0, 10286.0, 10290.0, 10290.0, 10294.0, 10292.0, 10287.0, 10295.0, 10295.0, 10295.0, 10293.0, 10287.0, 10272.0, 10272.0, 10273.0, 10283.0, 10278.0, 10279.0, 10274.0, 10285.0, 10280.0, 10282.0, 10287.0, 10288.0, 10295.0, 10291.0, 10296.0, 10303.0, 10304.0, 10298.0, 10297.0, 10292.0, 10298.0, 10297.0, 10296.0, 10296.0, 10293.0, 10305.0, 10312.0, 10312.0, 10312.0, 10313.0, 10308.0, 10307.0, 10314.0, 10306.0, 10316.0, 10313.0, 10307.0, 10307.0, 10303.0, 10312.0, 10306.0, 10299.0, 10292.0, 10283.0, 10288.0, 10288.0, 10291.0, 10292.0, 10293.0, 10286.0, 10285.0, 10281.0],
