{
  "AcquisitionMatrixPE": 104,
  "AcquisitionNumber": 1,
  "AcquisitionTime": "15:08:22.392500",
  "BandwidthPerPixelPhaseEncode": 16.297,
  "BaseResolution": 104,
  "BodyPartExamined": "BRAIN",
  "ConsistencyInfo": "N4_VE11C_LATEST_20160120",
  "ConversionSoftware": "dcm2niix",
  "ConversionSoftwareVersion": "v1.0.20210317",
  "DerivedVendorReportedEchoSpacing": 0.000590009,
  "DeviceSerialNumber": "166018",
  "DwellTime": 2.1e-06,
  "EchoTime": 0.0376,
  "EchoTrainLength": 104,
  "EffectiveEchoSpacing": 0.000590009,
  "FlipAngle": 68,
  "ImageComments": "Unaliased MB6/PE3/LB",
  "ImageOrientationPatientDICOM": [0.999725, 0.0231718, 0.00356194, -0.0223378, 0.987615, -0.155299],
  "ImageType": [
    "ORIGINAL",
    "PRIMARY",
    "M",
    "MB",
    "ND",
    "MOSAIC"
],
  "ImagingFrequency": 123.197,
  "InPlanePhaseEncodingDirectionDICOM": "COL",
  "InstitutionAddress": "Washington Place 6,NYC,NYC,US,10003",
  "InstitutionName": "NYU - CBI",
  "InstitutionalDepartmentName": "Department",
  "MRAcquisitionType": "2D",
  "MagneticFieldStrength": 3,
  "Manufacturer": "Siemens",
  "ManufacturersModelName": "Prisma",
  "Modality": "MR",
  "MultibandAccelerationFactor": 6,
  "PartialFourier": 1,
  "PatientPosition": "HFS",
  "PercentPhaseFOV": 100,
  "PercentSampling": 100,
  "PhaseEncodingDirection": "j",
  "PhaseEncodingSteps": 104,
  "PhaseResolution": 1,
  "PixelBandwidth": 2290,
  "ProcedureStepDescription": "Investigators^Winawer",
  "ProtocolName": "cmrr_mbepi_s6_2mm_66sl_PA_task-bar3",
  "PulseSequenceDetails": "%CustomerSeq%\\cmrr_mbep2d_bold",
  "ReceiveCoilActiveElements": "HC1-7",
  "ReceiveCoilName": "HeadNeck_64",
  "ReconMatrixPE": 104,
  "RepetitionTime": 1,
  "SAR": 0.079926,
  "ScanOptions": "FS",
  "ScanningSequence": "EP",
  "SequenceName": "epfid2d1_104",
  "SequenceVariant": "SK\\SS",
  "SeriesDescription": "cmrr_mbepi_s6_2mm_66sl_PA_task-bar3",
  "SeriesNumber": 16,
  "ShimSetting": [311, -12527, -8503, 393, 47, 115, -115, -19],
  "SliceThickness": 2,
  "SliceTiming": [0, 0.535, 0.09, 0.625, 0.18, 0.7125, 0.2675, 0.8025, 0.3575, 0.8925, 0.4475, 0, 0.535, 0.09, 0.625, 0.18, 0.7125, 0.2675, 0.8025, 0.3575, 0.8925, 0.4475, 0, 0.535, 0.09, 0.625, 0.18, 0.7125, 0.2675, 0.8025, 0.3575, 0.8925, 0.4475, 0, 0.535, 0.09, 0.625, 0.18, 0.7125, 0.2675, 0.8025, 0.3575, 0.8925, 0.4475, 0, 0.535, 0.09, 0.625, 0.18, 0.7125, 0.2675, 0.8025, 0.3575, 0.8925, 0.4475, 0, 0.535, 0.09, 0.625, 0.18, 0.7125, 0.2675, 0.8025, 0.3575, 0.8925, 0.4475],
  "SoftwareVersions": "syngo MR E11",
  "SpacingBetweenSlices": 2,
  "StationName": "AWP166018",
  "TaskName": "bar3",
  "TotalReadoutTime": 0.060771,
  "TxRefAmp": 226.467,
  "VendorReportedEchoSpacing": 0.00059,
  "WipMemBlock": "1f0d0443-2fdc-4e47-a3c0-7a9ed464ea01||Sequence: R016 ve11c/master r/8780670; Nov 27 2017 15:05:12 by eja",
  "dcmmeta_affine": [
    [-1.9994503259658813, -0.04467553272843361, 0.014232752844691277, 108.60820770263672],
    [-0.04634355381131172, 1.9752298593521118, -0.3103536069393158, -69.26798248291016],
    [0.007123873103410006, 0.31059810519218445, 1.9757221937179565, -61.64011001586914],
    [0.0, 0.0, 0.0, 1.0]
],
  "dcmmeta_reorient_transform": [
    [0.0, -1.0, 0.0, 103.0],
    [1.0, 0.0, 0.0, 0.0],
    [0.0, 0.0, 1.0, 0.0],
    [0.0, 0.0, 0.0, 1.0]
],
  "dcmmeta_shape": [104, 104, 66, 300],
  "dcmmeta_slice_dim": 2,
  "dcmmeta_version": 0.6,
  "global": {
    "const": {
      "AccessionNumber": "Lesyk7be",
      "AcquisitionMatrix": [104, 0, 0, 104],
      "AngioFlag": "N",
      "BitsAllocated": 16,
      "BitsStored": 16,
      "BodyPartExamined": "BRAIN",
      "Columns": 936,
      "EchoNumbers": 1,
      "EchoTime": 37.6,
      "EchoTrainLength": 104,
      "FlipAngle": 68.0,
      "HighBit": 15,
      "ImageOrientationPatient": [0.99972515292378, 0.02317177636514, 0.00356193649675, -0.0223377661658, 0.98761491952668, -0.1552990500004],
      "ImagePositionPatient": [-917.19293522255, -975.15522529969, 96.596773352983],
      "ImageType": [
        "ORIGINAL",
        "PRIMARY",
        "M",
        "MB",
        "ND",
        "MOSAIC"
],
      "ImagedNucleus": "1H",
      "ImagingFrequency": 123.196877,
      "InPlanePhaseEncodingDirection": "COL",
      "MRAcquisitionType": "2D",
      "MagneticFieldStrength": 3.0,
      "Manufacturer": "SIEMENS",
      "ManufacturerModelName": "Prisma",
      "Modality": "MR",
      "NumberOfAverages": 1.0,
      "NumberOfPhaseEncodingSteps": 104,
      "PercentPhaseFieldOfView": 100.0,
      "PercentSampling": 100.0,
      "PerformedProcedureStepStartTime": "143710.221000",
      "PhotometricInterpretation": "MONOCHROME2",
      "PixelBandwidth": 2290.0,
      "PixelRepresentation": 0,
      "PixelSpacing": [2.0, 2.0],
      "ProtocolName": "cmrr_mbepi_s6_2mm_66sl_PA_task-bar3",
      "RepetitionTime": 1000.0,
      "Rows": 936,
      "SAR": 0.07992602501546,
      "SamplesPerPixel": 1,
      "ScanOptions": "FS",
      "ScanningSequence": "EP",
      "SequenceName": "epfid2d1_104",
      "SequenceVariant": [
        "SK",
        "SS"
],
      "SeriesDescription": "cmrr_mbepi_s6_2mm_66sl_PA_task-bar3",
      "SeriesNumber": 16,
      "SeriesTime": "150932.834000",
      "SliceLocation": -49.370184857626,
      "SliceThickness": 2.0,
      "SmallestImagePixelValue": 0,
      "SoftwareVersions": "syngo MR E11",
      "SpacingBetweenSlices": 1.9999999851331,
      "SpecificCharacterSet": "ISO_IR 100",
      "StudyID": "1",
      "StudyTime": "143710.077000",
      "TransmitCoilName": "Body",
      "VariableFlipAngleFlag": "N",
      "WindowCenterWidthExplanation": "Algo1",
      "dBdt": 0.0},
    "slices": {}
  },
  "time": {
    "samples": {
      "AcquisitionNumber": [1, 2, 3, 4, 5, 6, 7, 8, 9, 10, 11, 12, 13, 14, 15, 16, 17, 18, 19, 20, 21, 22, 23, 24, 25, 26, 27, 28, 29, 30, 31, 32, 33, 34, 35, 36, 37, 38, 39, 40, 41, 42, 43, 44, 45, 46, 47, 48, 49, 50, 51, 52, 53, 54, 55, 56, 57, 58, 59, 60, 61, 62, 63, 64, 65, 66, 67, 68, 69, 70, 71, 72, 73, 74, 75, 76, 77, 78, 79, 80, 81, 82, 83, 84, 85, 86, 87, 88, 89, 90, 91, 92, 93, 94, 95, 96, 97, 98, 99, 100, 101, 102, 103, 104, 105, 106, 107, 108, 109, 110, 111, 112, 113, 114, 115, 116, 117, 118, 119, 120, 121, 122, 123, 124, 125, 126, 127, 128, 129, 130, 131, 132, 133, 134, 135, 136, 137, 138, 139, 140, 141, 142, 143, 144, 145, 146, 147, 148, 149, 150, 151, 152, 153, 154, 155, 156, 157, 158, 159, 160, 161, 162, 163, 164, 165, 166, 167, 168, 169, 170, 171, 172, 173, 174, 175, 176, 177, 178, 179, 180, 181, 182, 183, 184, 185, 186, 187, 188, 189, 190, 191, 192, 193, 194, 195, 196, 197, 198, 199, 200, 201, 202, 203, 204, 205, 206, 207, 208, 209, 210, 211, 212, 213, 214, 215, 216, 217, 218, 219, 220, 221, 222, 223, 224, 225, 226, 227, 228, 229, 230, 231, 232, 233, 234, 235, 236, 237, 238, 239, 240, 241, 242, 243, 244, 245, 246, 247, 248, 249, 250, 251, 252, 253, 254, 255, 256, 257, 258, 259, 260, 261, 262, 263, 264, 265, 266, 267, 268, 269, 270, 271, 272, 273, 274, 275, 276, 277, 278, 279, 280, 281, 282, 283, 284, 285, 286, 287, 288, 289, 290, 291, 292, 293, 294, 295, 296, 297, 298, 299, 300],
      "AcquisitionTime": ["150822.392500", "150823.392500", "150824.392500", "150825.392500", "150826.392500", "150827.392500", "150828.392500", "150829.392500", "150830.392500", "150831.392500", "150832.392500", "150833.392500", "150834.392500", "150835.392500", "150836.392500", "150837.392500", "150838.392500", "150839.392500", "150840.392500", "150841.392500", "150842.392500", "150843.392500", "150844.392500", "150845.392500", "150846.392500", "150847.392500", "150848.392500", "150849.392500", "150850.392500", "150851.392500", "150852.392500", "150853.392500", "150854.392500", "150855.392500", "150856.392500", "150857.392500", "150858.392500", "150859.392500", "150900.392500", "150901.392500", "150902.392500", "150903.392500", "150904.392500", "150905.392500", "150906.392500", "150907.392500", "150908.392500", "150909.392500", "150910.392500", "150911.392500", "150912.392500", "150913.392500", "150914.392500", "150915.392500", "150916.392500", "150917.392500", "150918.392500", "150919.392500", "150920.392500", "150921.392500", "150922.392500", "150923.392500", "150924.392500", "150925.392500", "150926.392500", "150927.392500", "150928.392500", "150929.392500", "150930.392500", "150931.392500", "150932.392500", "150933.392500", "150934.392500", "150935.392500", "150936.392500", "150937.392500", "150938.392500", "150939.392500", "150940.392500", "150941.392500", "150942.392500", "150943.392500", "150944.392500", "150945.392500", "150946.392500", "150947.392500", "150948.392500", "150949.392500", "150950.392500", "150951.392500", "150952.392500", "150953.392500", "150954.392500", "150955.392500", "150956.392500", "150957.392500", "150958.392500", "150959.392500", "151000.392500", "151001.392500", "151002.392500", "151003.392500", "151004.392500", "151005.392500", "151006.392500", "151007.392500", "151008.392500", "151009.392500", "151010.392500", "151011.392500", "151012.392500", "151013.392500", "151014.392500", "151015.392500", "151016.392500", "151017.392500", "151018.392500", "151019.392500", "151020.392500", "151021.392500", "151022.392500", "151023.392500", "151024.392500", "151025.392500", "151026.392500", "151027.392500", "151028.392500", "151029.392500", "151030.392500", "151031.392500", "151032.392500", "151033.392500", "151034.392500", "151035.392500", "151036.392500", "151037.392500", "151038.392500", "151039.392500", "151040.392500", "151041.392500", "151042.392500", "151043.392500", "151044.392500", "151045.392500", "151046.392500", "151047.392500", "151048.392500", "151049.392500", "151050.392500", "151051.392500", "151052.392500", "151053.392500", "151054.392500", "151055.392500", "151056.392500", "151057.392500", "151058.392500", "151059.392500", "151100.392500", "151101.392500", "151102.392500", "151103.392500", "151104.392500", "151105.392500", "151106.392500", "151107.392500", "151108.392500", "151109.392500", "151110.392500", "151111.392500", "151112.392500", "151113.392500", "151114.392500", "151115.392500", "151116.392500", "151117.392500", "151118.392500", "151119.392500", "151120.392500", "151121.392500", "151122.392500", "151123.392500", "151124.392500", "151125.392500", "151126.392500", "151127.392500", "151128.392500", "151129.392500", "151130.392500", "151131.392500", "151132.392500", "151133.392500", "151134.392500", "151135.392500", "151136.392500", "151137.392500", "151138.392500", "151139.392500", "151140.392500", "151141.392500", "151142.392500", "151143.392500", "151144.392500", "151145.392500", "151146.392500", "151147.392500", "151148.392500", "151149.392500", "151150.392500", "151151.392500", "151152.392500", "151153.392500", "151154.392500", "151155.392500", "151156.392500", "151157.392500", "151158.392500", "151159.392500", "151200.392500", "151201.392500", "151202.392500", "151203.392500", "151204.392500", "151205.392500", "151206.392500", "151207.392500", "151208.392500", "151209.392500", "151210.392500", "151211.392500", "151212.392500", "151213.392500", "151214.392500", "151215.392500", "151216.392500", "151217.392500", "151218.392500", "151219.392500", "151220.392500", "151221.392500", "151222.392500", "151223.392500", "151224.392500", "151225.392500", "151226.392500", "151227.392500", "151228.392500", "151229.392500", "151230.392500", "151231.392500", "151232.392500", "151233.392500", "151234.392500", "151235.392500", "151236.392500", "151237.392500", "151238.392500", "151239.392500", "151240.392500", "151241.392500", "151242.392500", "151243.392500", "151244.392500", "151245.392500", "151246.392500", "151247.392500", "151248.392500", "151249.392500", "151250.392500", "151251.392500", "151252.392500", "151253.392500", "151254.392500", "151255.392500", "151256.392500", "151257.392500", "151258.392500", "151259.392500", "151300.392500", "151301.392500", "151302.392500", "151303.392500", "151304.392500", "151305.392500", "151306.392500", "151307.392500", "151308.392500", "151309.392500", "151310.392500", "151311.392500", "151312.392500", "151313.392500", "151314.392500", "151315.392500", "151316.392500", "151317.392500", "151318.392500", "151319.392500", "151320.392500", "151321.392500"],
      "ContentTime": ["150932.837000", "150932.840000", "150932.843000", "150932.846000", "150932.849000", "150932.852000", "150932.855000", "150932.858000", "150932.861000", "150932.872000", "150932.876000", "150932.896000", "150932.899000", "150932.904000", "150932.907000", "150932.910000", "150932.913000", "150932.916000", "150932.921000", "150932.924000", "150932.927000", "150932.930000", "150932.934000", "150932.937000", "150932.940000", "150932.943000", "150932.946000", "150932.949000", "150952.835000", "150952.838000", "150952.841000", "150952.844000", "150952.847000", "150952.850000", "150952.853000", "150952.856000", "150952.859000", "150952.862000", "150952.865000", "150952.868000", "150952.871000", "150952.874000", "150952.877000", "150952.880000", "150952.883000", "150952.886000", "150952.889000", "150952.892000", "150952.895000", "150952.898000", "150952.902000", "150952.905000", "150952.908000", "150952.911000", "150952.914000", "150952.917000", "150952.920000", "151012.836000", "151012.839000", "151012.842000", "151012.845000", "151012.848000", "151012.851000", "151012.854000", "151012.857000", "151012.860000", "151012.864000", "151012.867000", "151012.870000", "151012.873000", "151012.876000", "151012.879000", "151012.882000", "151012.885000", "151012.888000", "151012.891000", "151012.894000", "151012.897000", "151012.900000", "151012.903000", "151012.906000", "151012.909000", "151012.912000", "151012.915000", "151012.918000", "151032.836000", "151032.839000", "151032.842000", "151032.845000", "151032.848000", "151032.851000", "151032.854000", "151032.857000", "151032.860000", "151032.863000", "151032.866000", "151032.869000", "151032.873000", "151032.884000", "151032.887000", "151032.890000", "151032.893000", "151032.896000", "151032.899000", "151032.902000", "151032.905000", "151032.908000", "151032.911000", "151032.914000", "151032.917000", "151032.927000", "151032.930000", "151032.933000", "151052.836000", "151052.839000", "151052.842000", "151052.845000", "151052.848000", "151052.851000", "151052.854000", "151052.857000", "151052.860000", "151052.863000", "151052.870000", "151052.873000", "151052.876000", "151052.880000", "151052.883000", "151052.886000", "151052.888000", "151052.891000", "151052.894000", "151052.898000", "151052.901000", "151052.904000", "151052.907000", "151052.910000", "151052.913000", "151052.916000", "151052.919000", "151052.922000", "151052.925000", "151112.836000", "151112.839000", "151112.842000", "151112.846000", "151112.849000", "151112.852000", "151112.855000", "151112.858000", "151112.861000", "151112.864000", "151112.867000", "151112.877000", "151112.885000", "151112.888000", "151112.891000", "151112.894000", "151112.897000", "151112.900000", "151112.903000", "151112.906000", "151112.909000", "151112.912000", "151112.915000", "151112.918000", "151112.921000", "151112.924000", "151112.927000", "151112.931000", "151132.835000", "151132.838000", "151132.841000", "151132.844000", "151132.847000", "151132.850000", "151132.853000", "151132.856000", "151132.859000", "151132.862000", "151132.865000", "151132.868000", "151132.871000", "151132.874000", "151132.877000", "151132.881000", "151132.884000", "151132.887000", "151132.890000", "151132.893000", "151152.835000", "151152.838000", "151152.841000", "151152.854000", "151152.857000", "151152.860000", "151152.863000", "151152.866000", "151152.869000", "151152.872000", "151152.875000", "151152.878000", "151152.881000", "151152.884000", "151152.887000", "151152.890000", "151152.893000", "151152.896000", "151152.899000", "151152.902000", "151212.835000", "151212.838000", "151212.841000", "151212.844000", "151212.847000", "151212.850000", "151212.853000", "151212.856000", "151212.859000", "151212.862000", "151212.865000", "151212.868000", "151212.871000", "151212.874000", "151212.877000", "151212.880000", "151212.883000", "151212.886000", "151212.889000", "151212.892000", "151232.836000", "151232.839000", "151232.842000", "151232.845000", "151232.848000", "151232.851000", "151232.854000", "151232.857000", "151232.860000", "151232.869000", "151232.872000", "151232.875000", "151232.878000", "151232.881000", "151232.884000", "151232.887000", "151232.890000", "151232.893000", "151232.896000", "151232.899000", "151252.836000", "151252.839000", "151252.842000", "151252.845000", "151252.848000", "151252.851000", "151252.854000", "151252.857000", "151252.861000", "151252.864000", "151252.867000", "151252.870000", "151252.873000", "151252.876000", "151252.879000", "151252.882000", "151252.885000", "151252.888000", "151252.891000", "151252.894000", "151312.836000", "151312.839000", "151312.842000", "151312.845000", "151312.848000", "151312.852000", "151312.854000", "151312.858000", "151312.861000", "151312.864000", "151312.867000", "151312.870000", "151312.873000", "151312.876000", "151312.879000", "151312.882000", "151312.885000", "151312.888000", "151312.891000", "151312.894000", "151322.678000", "151322.681000", "151322.684000", "151322.687000", "151322.691000", "151322.694000", "151322.697000", "151322.700000", "151322.703000", "151322.706000"],
      "InstanceCreationTime": ["150932.837000", "150932.840000", "150932.843000", "150932.846000", "150932.849000", "150932.852000", "150932.855000", "150932.858000", "150932.861000", "150932.872000", "150932.876000", "150932.896000", "150932.899000", "150932.904000", "150932.907000", "150932.910000", "150932.913000", "150932.916000", "150932.921000", "150932.924000", "150932.927000", "150932.930000", "150932.934000", "150932.937000", "150932.940000", "150932.943000", "150932.946000", "150932.949000", "150952.835000", "150952.838000", "150952.841000", "150952.844000", "150952.847000", "150952.850000", "150952.853000", "150952.856000", "150952.859000", "150952.862000", "150952.865000", "150952.868000", "150952.871000", "150952.874000", "150952.877000", "150952.880000", "150952.883000", "150952.886000", "150952.889000", "150952.892000", "150952.895000", "150952.898000", "150952.902000", "150952.905000", "150952.908000", "150952.911000", "150952.914000", "150952.917000", "150952.920000", "151012.836000", "151012.839000", "151012.842000", "151012.845000", "151012.848000", "151012.851000", "151012.854000", "151012.857000", "151012.860000", "151012.864000", "151012.867000", "151012.870000", "151012.873000", "151012.876000", "151012.879000", "151012.882000", "151012.885000", "151012.888000", "151012.891000", "151012.894000", "151012.897000", "151012.900000", "151012.903000", "151012.906000", "151012.909000", "151012.912000", "151012.915000", "151012.918000", "151032.836000", "151032.839000", "151032.842000", "151032.845000", "151032.848000", "151032.851000", "151032.854000", "151032.857000", "151032.860000", "151032.863000", "151032.866000", "151032.869000", "151032.873000", "151032.884000", "151032.887000", "151032.890000", "151032.893000", "151032.896000", "151032.899000", "151032.902000", "151032.905000", "151032.908000", "151032.911000", "151032.914000", "151032.917000", "151032.927000", "151032.930000", "151032.933000", "151052.836000", "151052.839000", "151052.842000", "151052.845000", "151052.848000", "151052.851000", "151052.854000", "151052.857000", "151052.860000", "151052.863000", "151052.870000", "151052.873000", "151052.876000", "151052.880000", "151052.883000", "151052.886000", "151052.888000", "151052.891000", "151052.894000", "151052.898000", "151052.901000", "151052.904000", "151052.907000", "151052.910000", "151052.913000", "151052.916000", "151052.919000", "151052.922000", "151052.925000", "151112.836000", "151112.839000", "151112.842000", "151112.846000", "151112.849000", "151112.852000", "151112.855000", "151112.858000", "151112.861000", "151112.864000", "151112.867000", "151112.877000", "151112.885000", "151112.888000", "151112.891000", "151112.894000", "151112.897000", "151112.900000", "151112.903000", "151112.906000", "151112.909000", "151112.912000", "151112.915000", "151112.918000", "151112.921000", "151112.924000", "151112.927000", "151112.931000", "151132.835000", "151132.838000", "151132.841000", "151132.844000", "151132.847000", "151132.850000", "151132.853000", "151132.856000", "151132.859000", "151132.862000", "151132.865000", "151132.868000", "151132.871000", "151132.874000", "151132.877000", "151132.881000", "151132.884000", "151132.887000", "151132.890000", "151132.893000", "151152.835000", "151152.838000", "151152.841000", "151152.854000", "151152.857000", "151152.860000", "151152.863000", "151152.866000", "151152.869000", "151152.872000", "151152.875000", "151152.878000", "151152.881000", "151152.884000", "151152.887000", "151152.890000", "151152.893000", "151152.896000", "151152.899000", "151152.902000", "151212.835000", "151212.838000", "151212.841000", "151212.844000", "151212.847000", "151212.850000", "151212.853000", "151212.856000", "151212.859000", "151212.862000", "151212.865000", "151212.868000", "151212.871000", "151212.874000", "151212.877000", "151212.880000", "151212.883000", "151212.886000", "151212.889000", "151212.892000", "151232.836000", "151232.839000", "151232.842000", "151232.845000", "151232.848000", "151232.851000", "151232.854000", "151232.857000", "151232.860000", "151232.869000", "151232.872000", "151232.875000", "151232.878000", "151232.881000", "151232.884000", "151232.887000", "151232.890000", "151232.893000", "151232.896000", "151232.899000", "151252.836000", "151252.839000", "151252.842000", "151252.845000", "151252.848000", "151252.851000", "151252.854000", "151252.857000", "151252.861000", "151252.864000", "151252.867000", "151252.870000", "151252.873000", "151252.876000", "151252.879000", "151252.882000", "151252.885000", "151252.888000", "151252.891000", "151252.894000", "151312.836000", "151312.839000", "151312.842000", "151312.845000", "151312.848000", "151312.852000", "151312.854000", "151312.858000", "151312.861000", "151312.864000", "151312.867000", "151312.870000", "151312.873000", "151312.876000", "151312.879000", "151312.882000", "151312.885000", "151312.888000", "151312.891000", "151312.894000", "151322.678000", "151322.681000", "151322.684000", "151322.687000", "151322.691000", "151322.694000", "151322.697000", "151322.700000", "151322.703000", "151322.706000"],
      "InstanceNumber": [1, 2, 3, 4, 5, 6, 7, 8, 9, 10, 11, 12, 13, 14, 15, 16, 17, 18, 19, 20, 21, 22, 23, 24, 25, 26, 27, 28, 29, 30, 31, 32, 33, 34, 35, 36, 37, 38, 39, 40, 41, 42, 43, 44, 45, 46, 47, 48, 49, 50, 51, 52, 53, 54, 55, 56, 57, 58, 59, 60, 61, 62, 63, 64, 65, 66, 67, 68, 69, 70, 71, 72, 73, 74, 75, 76, 77, 78, 79, 80, 81, 82, 83, 84, 85, 86, 87, 88, 89, 90, 91, 92, 93, 94, 95, 96, 97, 98, 99, 100, 101, 102, 103, 104, 105, 106, 107, 108, 109, 110, 111, 112, 113, 114, 115, 116, 117, 118, 119, 120, 121, 122, 123, 124, 125, 126, 127, 128, 129, 130, 131, 132, 133, 134, 135, 136, 137, 138, 139, 140, 141, 142, 143, 144, 145, 146, 147, 148, 149, 150, 151, 152, 153, 154, 155, 156, 157, 158, 159, 160, 161, 162, 163, 164, 165, 166, 167, 168, 169, 170, 171, 172, 173, 174, 175, 176, 177, 178, 179, 180, 181, 182, 183, 184, 185, 186, 187, 188, 189, 190, 191, 192, 193, 194, 195, 196, 197, 198, 199, 200, 201, 202, 203, 204, 205, 206, 207, 208, 209, 210, 211, 212, 213, 214, 215, 216, 217, 218, 219, 220, 221, 222, 223, 224, 225, 226, 227, 228, 229, 230, 231, 232, 233, 234, 235, 236, 237, 238, 239, 240, 241, 242, 243, 244, 245, 246, 247, 248, 249, 250, 251, 252, 253, 254, 255, 256, 257, 258, 259, 260, 261, 262, 263, 264, 265, 266, 267, 268, 269, 270, 271, 272, 273, 274, 275, 276, 277, 278, 279, 280, 281, 282, 283, 284, 285, 286, 287, 288, 289, 290, 291, 292, 293, 294, 295, 296, 297, 298, 299, 300],
      "LargestImagePixelValue": [39411, 38694, 37724, 38122, 37812, 36672, 36535, 36310, 36607, 36782, 36659, 36463, 36736, 36896, 36887, 36223, 36351, 37080, 37003, 37051, 36931, 37675, 37634, 37262, 37682, 37340, 37577, 37081, 37576, 37403, 37180, 37164, 37077, 37123, 37049, 36825, 37173, 37012, 36975, 37238, 36455, 36421, 36495, 36473, 36651, 36936, 37182, 36927, 36804, 37217, 37421, 37463, 37214, 37116, 37391, 37228, 37196, 37027, 37486, 37415, 36417, 37055, 36992, 36238, 36414, 37278, 36712, 36337, 37506, 37537, 36289, 36477, 36518, 37738, 37073, 35878, 36478, 36378, 36706, 36684, 35916, 36414, 37120, 36774, 36175, 36392, 37192, 36558, 36126, 36461, 36916, 36689, 36477, 36730, 36908, 37035, 36849, 37139, 37108, 36946, 37202, 37016, 36951, 37166, 36752, 36994, 36625, 37187, 37278, 36719, 37335, 36904, 36660, 36759, 37172, 36118, 36698, 36619, 36327, 36234, 36670, 36082, 36486, 36506, 36596, 36634, 36462, 37138, 36803, 36821, 36938, 37295, 37015, 37269, 37147, 36729, 37231, 36922, 36831, 36916, 36842, 36691, 36807, 37270, 37066, 37387, 37036, 37433, 37317, 36716, 36658, 37159, 37175, 37008, 36574, 36643, 36886, 37100, 37343, 36962, 37256, 37480, 37154, 37025, 36900, 37214, 36870, 37277, 37030, 37271, 37573, 37457, 37112, 37687, 37242, 37715, 37181, 37051, 37317, 37530, 37333, 37192, 37205, 36780, 37006, 37351, 37371, 37112, 37001, 37286, 37643, 37113, 37085, 37335, 37135, 36828, 36894, 37200, 37491, 37095, 37032, 37062, 37119, 37129, 36890, 37757, 37259, 37314, 37413, 37458, 37656, 37430, 37488, 37714, 37508, 37490, 37368, 37632, 37426, 37376, 37521, 36869, 37347, 37121, 37223, 37221, 37324, 37505, 37397, 37050, 37165, 37201, 37373, 36819, 37053, 37567, 37689, 37219, 37485, 37431, 37098, 37375, 37186, 37424, 37258, 37038, 37104, 37405, 36952, 37179, 37489, 37754, 37154, 37759, 37578, 37358, 37503, 37431, 37473, 37417, 37700, 37290, 37300, 37377, 37216, 37450, 37033, 37546, 37251, 37632, 37287, 37255, 37542, 37442, 37559, 37805, 38041, 37764, 37662, 37564, 37316, 36981, 37209, 37523, 37342, 37487, 37276, 37313, 37429, 37115, 37748, 37285, 36997, 37058, 37424, 37579, 36931, 37749, 37406, 37420],
      "WindowCenter": [10401.0, 10354.0, 10333.0, 10321.0, 10309.0, 10288.0, 10281.0, 10275.0, 10270.0, 10269.0, 10261.0, 10260.0, 10268.0, 10267.0, 10261.0, 10255.0, 10269.0, 10282.0, 10285.0, 10290.0, 10292.0, 10298.0, 10297.0, 10285.0, 10287.0, 10279.0, 10273.0, 10266.0, 10272.0, 10282.0, 10287.0, 10291.0, 10292.0, 10300.0, 10310.0, 10302.0, 10294.0, 10283.0, 10273.0, 10259.0, 10244.0, 10248.0, 10249.0, 10256.0, 10265.0, 10278.0, 10288.0, 10300.0, 10284.0, 10289.0, 10288.0, 10279.0, 10279.0, 10279.0, 10284.0, 10275.0, 10272.0, 10281.0, 10279.0, 10275.0, 10250.0, 10238.0, 10237.0, 10233.0, 10253.0, 10268.0, 10270.0, 10266.0, 10271.0, 10267.0, 10242.0, 10250.0, 10249.0, 10256.0, 10245.0, 10227.0, 10237.0, 10245.0, 10245.0, 10254.0, 10243.0, 10248.0, 10245.0, 10230.0, 10238.0, 10245.0, 10252.0, 10248.0, 10243.0, 10247.0, 10246.0, 10244.0, 10253.0, 10260.0, 10271.0, 10271.0, 10271.0, 10271.0, 10268.0, 10257.0, 10263.0, 10263.0, 10258.0, 10270.0, 10257.0, 10261.0, 10258.0, 10277.0, 10278.0, 10271.0, 10270.0, 10249.0, 10247.0, 10238.0, 10250.0, 10241.0, 10261.0, 10259.0, 10256.0, 10251.0, 10249.0, 10233.0, 10239.0, 10231.0, 10246.0, 10255.0, 10272.0, 10286.0, 10281.0, 10280.0, 10272.0, 10285.0, 10284.0, 10279.0, 10279.0, 10272.0, 10272.0, 10271.0, 10272.0, 10264.0, 10262.0, 10260.0, 10263.0, 10275.0, 10275.0, 10284.0, 10288.0, 10287.0, 10288.0, 10273.0, 10262.0, 10253.0, 10258.0, 10251.0, 10257.0, 10269.0, 10269.0, 10284.0, 10283.0, 10278.0, 10273.0, 10269.0, 10270.0, 10261.0, 10255.0, 10260.0, 10256.0, 10272.0, 10271.0, 10271.0, 10272.0, 10276.0, 10278.0, 10301.0, 10311.0, 10323.0, 10315.0, 10308.0, 10292.0, 10280.0, 10270.0, 10263.0, 10272.0, 10288.0, 10298.0, 10297.0, 10297.0, 10290.0, 10305.0, 10303.0, 10297.0, 10288.0, 10299.0, 10304.0, 10300.0, 10306.0, 10314.0, 10315.0, 10308.0, 10291.0, 10283.0, 10268.0, 10263.0, 10271.0, 10273.0, 10293.0, 10296.0, 10304.0, 10306.0, 10314.0, 10313.0, 10300.0, 10308.0, 10312.0, 10309.0, 10309.0, 10311.0, 10329.0, 10324.0, 10322.0, 10312.0, 10301.0, 10291.0, 10281.0, 10267.0, 10277.0, 10285.0, 10289.0, 10294.0, 10291.0, 10292.0, 10281.0, 10277.0, 10273.0, 10278.0, 10301.0, 10302.0, 10315.0, 10324.0, 10333.0, 10332.0, 10330.0, 10310.0, 10291.0, 10283.0, 10283.0, 10286.0, 10288.0, 10282.0, 10295.0, 10294.0, 10293.0, 10294.0, 10295.0, 10280.0, 10288.0, 10288.0, 10288.0, 10293.0, 10285.0, 10285.0, 10288.0, 10288.0, 10288.0, 10282.0, 10285.0, 10282.0, 10289.0, 10289.0, 10294.0, 10287.0, 10293.0, 10295.0, 10296.0, 10299.0, 10302.0, 10310.0, 10295.0, 10294.0, 10296.0, 10304.0, 10307.0, 10308.0, 10311.0, 10304.0, 10297.0, 10286.0, 10287.0, 10287.0, 10276.0, 10293.0, 10286.0, 10282.0, 10288.0, 10296.0, 10288.0, 10284.0, 10283.0, 10276.0, 10263.0],
