{
  "AcquisitionMatrixPE": 104,
  "AcquisitionNumber": 1,
  "AcquisitionTime": "14:56:3.862500",
  "BandwidthPerPixelPhaseEncode": 16.297,
  "BaseResolution": 104,
  "BodyPartExamined": "BRAIN",
  "ConsistencyInfo": "N4_VE11C_LATEST_20160120",
  "ConversionSoftware": "dcm2niix",
  "ConversionSoftwareVersion": "v1.0.20210317",
  "DerivedVendorReportedEchoSpacing": 0.000590009,
  "DeviceSerialNumber": "166018",
  "DwellTime": 2.1e-06,
  "EchoTime": 0.0376,
  "EchoTrainLength": 104,
  "EffectiveEchoSpacing": 0.000590009,
  "FlipAngle": 68,
  "ImageComments": "Unaliased MB6/PE3/LB",
  "ImageOrientationPatientDICOM": [0.999725, 0.0231718, 0.00356194, -0.0223378, 0.987615, -0.155299],
  "ImageType": [
    "ORIGINAL",
    "PRIMARY",
    "M",
    "MB",
    "ND",
    "MOSAIC"
],
  "ImagingFrequency": 123.197,
  "InPlanePhaseEncodingDirectionDICOM": "COL",
  "InstitutionAddress": "Washington Place 6,NYC,NYC,US,10003",
  "InstitutionName": "NYU - CBI",
  "InstitutionalDepartmentName": "Department",
  "MRAcquisitionType": "2D",
  "MagneticFieldStrength": 3,
  "Manufacturer": "Siemens",
  "ManufacturersModelName": "Prisma",
  "Modality": "MR",
  "MultibandAccelerationFactor": 6,
  "PartialFourier": 1,
  "PatientPosition": "HFS",
  "PercentPhaseFOV": 100,
  "PercentSampling": 100,
  "PhaseEncodingDirection": "j",
  "PhaseEncodingSteps": 104,
  "PhaseResolution": 1,
  "PixelBandwidth": 2290,
  "ProcedureStepDescription": "Investigators^Winawer",
  "ProtocolName": "cmrr_mbepi_s6_2mm_66sl_PA_task-bar2",
  "PulseSequenceDetails": "%CustomerSeq%\\cmrr_mbep2d_bold",
  "ReceiveCoilActiveElements": "HC1-7",
  "ReceiveCoilName": "HeadNeck_64",
  "ReconMatrixPE": 104,
  "RepetitionTime": 1,
  "SAR": 0.079926,
  "ScanOptions": "FS",
  "ScanningSequence": "EP",
  "SequenceName": "epfid2d1_104",
  "SequenceVariant": "SK\\SS",
  "SeriesDescription": "cmrr_mbepi_s6_2mm_66sl_PA_task-bar2",
  "SeriesNumber": 12,
  "ShimSetting": [311, -12527, -8503, 393, 47, 115, -115, -19],
  "SliceThickness": 2,
  "SliceTiming": [0, 0.5325, 0.0875, 0.6225, 0.1775, 0.7125, 0.265, 0.8, 0.355, 0.89, 0.445, 0, 0.5325, 0.0875, 0.6225, 0.1775, 0.7125, 0.265, 0.8, 0.355, 0.89, 0.445, 0, 0.5325, 0.0875, 0.6225, 0.1775, 0.7125, 0.265, 0.8, 0.355, 0.89, 0.445, 0, 0.5325, 0.0875, 0.6225, 0.1775, 0.7125, 0.265, 0.8, 0.355, 0.89, 0.445, 0, 0.5325, 0.0875, 0.6225, 0.1775, 0.7125, 0.265, 0.8, 0.355, 0.89, 0.445, 0, 0.5325, 0.0875, 0.6225, 0.1775, 0.7125, 0.265, 0.8, 0.355, 0.89, 0.445],
  "SoftwareVersions": "syngo MR E11",
  "SpacingBetweenSlices": 2,
  "StationName": "AWP166018",
  "TaskName": "bar2",
  "TotalReadoutTime": 0.060771,
  "TxRefAmp": 226.467,
  "VendorReportedEchoSpacing": 0.00059,
  "WipMemBlock": "5e1fd691-9110-419a-b682-d706df6aaa0e||Sequence: R016 ve11c/master r/8780670; Nov 27 2017 15:05:12 by eja",
  "dcmmeta_affine": [
    [-1.9994503259658813, -0.04467553272843361, 0.014232752844691277, 108.60820770263672],
    [-0.04634355381131172, 1.9752298593521118, -0.3103536069393158, -69.26798248291016],
    [0.007123873103410006, 0.31059810519218445, 1.9757221937179565, -61.64011001586914],
    [0.0, 0.0, 0.0, 1.0]
],
  "dcmmeta_reorient_transform": [
    [0.0, -1.0, 0.0, 103.0],
    [1.0, 0.0, 0.0, 0.0],
    [0.0, 0.0, 1.0, 0.0],
    [0.0, 0.0, 0.0, 1.0]
],
  "dcmmeta_shape": [104, 104, 66, 300],
  "dcmmeta_slice_dim": 2,
  "dcmmeta_version": 0.6,
  "global": {
    "const": {
      "AccessionNumber": "Lesyk7be",
      "AcquisitionMatrix": [104, 0, 0, 104],
      "AngioFlag": "N",
      "BitsAllocated": 16,
      "BitsStored": 16,
      "BodyPartExamined": "BRAIN",
      "Columns": 936,
      "EchoNumbers": 1,
      "EchoTime": 37.6,
      "EchoTrainLength": 104,
      "FlipAngle": 68.0,
      "HighBit": 15,
      "ImageOrientationPatient": [0.99972515292378, 0.02317177636514, 0.00356193649675, -0.0223377661658, 0.98761491952668, -0.1552990500004],
      "ImagePositionPatient": [-917.19293522255, -975.15522529969, 96.596773352983],
      "ImageType": [
        "ORIGINAL",
        "PRIMARY",
        "M",
        "MB",
        "ND",
        "MOSAIC"
],
      "ImagedNucleus": "1H",
      "ImagingFrequency": 123.196869,
      "InPlanePhaseEncodingDirection": "COL",
      "MRAcquisitionType": "2D",
      "MagneticFieldStrength": 3.0,
      "Manufacturer": "SIEMENS",
      "ManufacturerModelName": "Prisma",
      "Modality": "MR",
      "NumberOfAverages": 1.0,
      "NumberOfPhaseEncodingSteps": 104,
      "PercentPhaseFieldOfView": 100.0,
      "PercentSampling": 100.0,
      "PerformedProcedureStepStartTime": "143710.221000",
      "PhotometricInterpretation": "MONOCHROME2",
      "PixelBandwidth": 2290.0,
      "PixelRepresentation": 0,
      "PixelSpacing": [2.0, 2.0],
      "ProtocolName": "cmrr_mbepi_s6_2mm_66sl_PA_task-bar2",
      "RepetitionTime": 1000.0,
      "Rows": 936,
      "SAR": 0.07992602501546,
      "SamplesPerPixel": 1,
      "ScanOptions": "FS",
      "ScanningSequence": "EP",
      "SequenceName": "epfid2d1_104",
      "SequenceVariant": [
        "SK",
        "SS"
],
      "SeriesDescription": "cmrr_mbepi_s6_2mm_66sl_PA_task-bar2",
      "SeriesNumber": 12,
      "SeriesTime": "145712.934000",
      "SliceLocation": -49.370184857626,
      "SliceThickness": 2.0,
      "SmallestImagePixelValue": 0,
      "SoftwareVersions": "syngo MR E11",
      "SpacingBetweenSlices": 1.9999999851331,
      "SpecificCharacterSet": "ISO_IR 100",
      "StudyID": "1",
      "StudyTime": "143710.077000",
      "TransmitCoilName": "Body",
      "VariableFlipAngleFlag": "N",
      "WindowCenterWidthExplanation": "Algo1",
      "dBdt": 0.0},
    "slices": {}
  },
  "time": {
    "samples": {
      "AcquisitionNumber": [1, 2, 3, 4, 5, 6, 7, 8, 9, 10, 11, 12, 13, 14, 15, 16, 17, 18, 19, 20, 21, 22, 23, 24, 25, 26, 27, 28, 29, 30, 31, 32, 33, 34, 35, 36, 37, 38, 39, 40, 41, 42, 43, 44, 45, 46, 47, 48, 49, 50, 51, 52, 53, 54, 55, 56, 57, 58, 59, 60, 61, 62, 63, 64, 65, 66, 67, 68, 69, 70, 71, 72, 73, 74, 75, 76, 77, 78, 79, 80, 81, 82, 83, 84, 85, 86, 87, 88, 89, 90, 91, 92, 93, 94, 95, 96, 97, 98, 99, 100, 101, 102, 103, 104, 105, 106, 107, 108, 109, 110, 111, 112, 113, 114, 115, 116, 117, 118, 119, 120, 121, 122, 123, 124, 125, 126, 127, 128, 129, 130, 131, 132, 133, 134, 135, 136, 137, 138, 139, 140, 141, 142, 143, 144, 145, 146, 147, 148, 149, 150, 151, 152, 153, 154, 155, 156, 157, 158, 159, 160, 161, 162, 163, 164, 165, 166, 167, 168, 169, 170, 171, 172, 173, 174, 175, 176, 177, 178, 179, 180, 181, 182, 183, 184, 185, 186, 187, 188, 189, 190, 191, 192, 193, 194, 195, 196, 197, 198, 199, 200, 201, 202, 203, 204, 205, 206, 207, 208, 209, 210, 211, 212, 213, 214, 215, 216, 217, 218, 219, 220, 221, 222, 223, 224, 225, 226, 227, 228, 229, 230, 231, 232, 233, 234, 235, 236, 237, 238, 239, 240, 241, 242, 243, 244, 245, 246, 247, 248, 249, 250, 251, 252, 253, 254, 255, 256, 257, 258, 259, 260, 261, 262, 263, 264, 265, 266, 267, 268, 269, 270, 271, 272, 273, 274, 275, 276, 277, 278, 279, 280, 281, 282, 283, 284, 285, 286, 287, 288, 289, 290, 291, 292, 293, 294, 295, 296, 297, 298, 299, 300],
      "AcquisitionTime": ["145603.862500", "145604.862500", "145605.862500", "145606.862500", "145607.862500", "145608.862500", "145609.862500", "145610.862500", "145611.862500", "145612.862500", "145613.862500", "145614.862500", "145615.862500", "145616.862500", "145617.862500", "145618.862500", "145619.862500", "145620.862500", "145621.862500", "145622.862500", "145623.862500", "145624.862500", "145625.862500", "145626.862500", "145627.862500", "145628.862500", "145629.862500", "145630.862500", "145631.862500", "145632.862500", "145633.862500", "145634.862500", "145635.862500", "145636.862500", "145637.862500", "145638.862500", "145639.862500", "145640.862500", "145641.862500", "145642.862500", "145643.862500", "145644.862500", "145645.862500", "145646.862500", "145647.862500", "145648.862500", "145649.862500", "145650.862500", "145651.862500", "145652.862500", "145653.862500", "145654.862500", "145655.862500", "145656.862500", "145657.862500", "145658.862500", "145659.862500", "145700.862500", "145701.862500", "145702.862500", "145703.862500", "145704.862500", "145705.862500", "145706.862500", "145707.862500", "145708.862500", "145709.862500", "145710.862500", "145711.862500", "145712.862500", "145713.862500", "145714.862500", "145715.862500", "145716.862500", "145717.862500", "145718.862500", "145719.862500", "145720.862500", "145721.862500", "145722.862500", "145723.862500", "145724.862500", "145725.862500", "145726.862500", "145727.862500", "145728.862500", "145729.862500", "145730.862500", "145731.862500", "145732.862500", "145733.862500", "145734.862500", "145735.862500", "145736.862500", "145737.862500", "145738.862500", "145739.862500", "145740.862500", "145741.862500", "145742.862500", "145743.862500", "145744.862500", "145745.862500", "145746.862500", "145747.862500", "145748.862500", "145749.862500", "145750.862500", "145751.862500", "145752.862500", "145753.862500", "145754.862500", "145755.862500", "145756.862500", "145757.862500", "145758.862500", "145759.862500", "145800.862500", "145801.862500", "145802.862500", "145803.862500", "145804.862500", "145805.862500", "145806.862500", "145807.862500", "145808.862500", "145809.862500", "145810.862500", "145811.862500", "145812.862500", "145813.862500", "145814.862500", "145815.862500", "145816.862500", "145817.862500", "145818.862500", "145819.862500", "145820.862500", "145821.862500", "145822.862500", "145823.862500", "145824.862500", "145825.862500", "145826.862500", "145827.862500", "145828.862500", "145829.862500", "145830.862500", "145831.862500", "145832.862500", "145833.862500", "145834.862500", "145835.862500", "145836.862500", "145837.862500", "145838.862500", "145839.862500", "145840.862500", "145841.862500", "145842.862500", "145843.862500", "145844.862500", "145845.862500", "145846.862500", "145847.862500", "145848.862500", "145849.862500", "145850.862500", "145851.862500", "145852.862500", "145853.862500", "145854.862500", "145855.862500", "145856.862500", "145857.862500", "145858.862500", "145859.862500", "145900.862500", "145901.862500", "145902.862500", "145903.862500", "145904.862500", "145905.862500", "145906.862500", "145907.862500", "145908.862500", "145909.862500", "145910.862500", "145911.862500", "145912.862500", "145913.862500", "145914.862500", "145915.862500", "145916.862500", "145917.862500", "145918.862500", "145919.862500", "145920.862500", "145921.862500", "145922.862500", "145923.862500", "145924.862500", "145925.862500", "145926.862500", "145927.862500", "145928.862500", "145929.862500", "145930.862500", "145931.862500", "145932.862500", "145933.862500", "145934.862500", "145935.862500", "145936.862500", "145937.862500", "145938.862500", "145939.862500", "145940.862500", "145941.862500", "145942.862500", "145943.862500", "145944.862500", "145945.862500", "145946.862500", "145947.862500", "145948.862500", "145949.862500", "145950.862500", "145951.862500", "145952.862500", "145953.862500", "145954.862500", "145955.862500", "145956.862500", "145957.862500", "145958.862500", "145959.862500", "150000.862500", "150001.862500", "150002.862500", "150003.862500", "150004.862500", "150005.862500", "150006.862500", "150007.862500", "150008.862500", "150009.862500", "150010.862500", "150011.862500", "150012.862500", "150013.862500", "150014.862500", "150015.862500", "150016.862500", "150017.862500", "150018.862500", "150019.862500", "150020.862500", "150021.862500", "150022.862500", "150023.862500", "150024.862500", "150025.862500", "150026.862500", "150027.862500", "150028.862500", "150029.862500", "150030.862500", "150031.862500", "150032.862500", "150033.862500", "150034.862500", "150035.862500", "150036.862500", "150037.862500", "150038.862500", "150039.862500", "150040.862500", "150041.862500", "150042.862500", "150043.862500", "150044.862500", "150045.862500", "150046.862500", "150047.862500", "150048.862500", "150049.862500", "150050.862500", "150051.862500", "150052.862500", "150053.862500", "150054.862500", "150055.862500", "150056.862500", "150057.862500", "150058.862500", "150059.862500", "150100.862500", "150101.862500", "150102.862500"],
      "ContentTime": ["145712.937000", "145712.940000", "145712.943000", "145712.946000", "145712.949000", "145712.952000", "145712.955000", "145712.958000", "145712.961000", "145712.964000", "145712.968000", "145712.977000", "145712.980000", "145712.988000", "145712.991000", "145712.994000", "145712.997000", "145713.001000", "145713.004000", "145713.007000", "145713.010000", "145713.013000", "145713.016000", "145713.019000", "145713.022000", "145713.025000", "145713.035000", "145732.907000", "145732.910000", "145732.913000", "145732.916000", "145732.919000", "145732.922000", "145732.925000", "145732.928000", "145732.931000", "145732.934000", "145732.937000", "145732.940000", "145732.943000", "145732.946000", "145732.949000", "145732.952000", "145732.955000", "145732.958000", "145732.961000", "145732.964000", "145732.974000", "145732.977000", "145732.980000", "145732.983000", "145732.986000", "145732.989000", "145732.992000", "145732.995000", "145752.907000", "145752.910000", "145752.913000", "145752.916000", "145752.919000", "145752.922000", "145752.925000", "145752.928000", "145752.931000", "145752.934000", "145752.937000", "145752.941000", "145752.943000", "145752.946000", "145752.949000", "145752.952000", "145752.956000", "145752.959000", "145752.962000", "145752.965000", "145752.968000", "145752.971000", "145752.974000", "145752.977000", "145752.980000", "145752.983000", "145752.986000", "145752.989000", "145752.992000", "145812.907000", "145812.910000", "145812.913000", "145812.916000", "145812.919000", "145812.922000", "145812.925000", "145812.928000", "145812.931000", "145812.934000", "145812.937000", "145812.940000", "145812.943000", "145812.946000", "145812.949000", "145812.953000", "145812.956000", "145812.959000", "145812.962000", "145812.965000", "145812.968000", "145812.980000", "145812.983000", "145812.986000", "145812.990000", "145812.993000", "145812.996000", "145813.000000", "145832.908000", "145832.911000", "145832.914000", "145832.917000", "145832.920000", "145832.923000", "145832.926000", "145832.929000", "145832.948000", "145832.951000", "145832.954000", "145832.957000", "145832.960000", "145832.963000", "145832.966000", "145832.969000", "145832.972000", "145832.975000", "145832.978000", "145832.981000", "145832.984000", "145832.987000", "145832.990000", "145832.993000", "145832.996000", "145832.999000", "145833.002000", "145833.005000", "145852.908000", "145852.911000", "145852.914000", "145852.917000", "145852.920000", "145852.923000", "145852.926000", "145852.929000", "145852.932000", "145852.935000", "145852.938000", "145852.941000", "145852.944000", "145852.947000", "145852.950000", "145852.953000", "145852.956000", "145852.959000", "145852.962000", "145852.965000", "145852.968000", "145852.971000", "145852.974000", "145852.978000", "145852.981000", "145852.984000", "145852.987000", "145852.990000", "145912.908000", "145912.911000", "145912.914000", "145912.917000", "145912.920000", "145912.923000", "145912.926000", "145912.929000", "145912.932000", "145912.935000", "145912.939000", "145912.942000", "145912.945000", "145912.948000", "145912.951000", "145912.954000", "145912.957000", "145912.960000", "145912.963000", "145912.966000", "145932.908000", "145932.911000", "145932.914000", "145932.917000", "145932.930000", "145932.933000", "145932.936000", "145932.939000", "145932.942000", "145932.945000", "145932.948000", "145932.951000", "145932.954000", "145932.957000", "145932.960000", "145932.963000", "145932.966000", "145932.975000", "145932.978000", "145932.981000", "145952.907000", "145952.910000", "145952.913000", "145952.916000", "145952.919000", "145952.922000", "145952.925000", "145952.928000", "145952.931000", "145952.935000", "145952.938000", "145952.941000", "145952.944000", "145952.947000", "145952.950000", "145952.953000", "145952.956000", "145952.959000", "145952.962000", "145952.965000", "150012.907000", "150012.910000", "150012.913000", "150012.916000", "150012.920000", "150012.923000", "150012.926000", "150012.929000", "150012.932000", "150012.935000", "150012.938000", "150012.941000", "150012.944000", "150012.947000", "150012.950000", "150012.953000", "150012.956000", "150012.959000", "150012.962000", "150012.965000", "150032.907000", "150032.910000", "150032.913000", "150032.916000", "150032.919000", "150032.922000", "150032.925000", "150032.928000", "150032.931000", "150032.935000", "150032.938000", "150032.941000", "150032.944000", "150032.947000", "150032.950000", "150032.953000", "150032.956000", "150032.959000", "150032.962000", "150032.965000", "150052.908000", "150052.911000", "150052.914000", "150052.917000", "150052.920000", "150052.923000", "150052.926000", "150052.930000", "150052.933000", "150052.936000", "150052.939000", "150052.942000", "150052.945000", "150052.948000", "150052.951000", "150052.954000", "150052.957000", "150052.960000", "150052.963000", "150052.966000", "150104.695000", "150104.699000", "150104.715000", "150104.718000", "150104.721000", "150104.724000", "150104.727000", "150104.730000", "150104.733000", "150104.736000", "150104.739000", "150104.742000"],
      "InstanceCreationTime": ["145712.937000", "145712.940000", "145712.943000", "145712.946000", "145712.949000", "145712.952000", "145712.955000", "145712.958000", "145712.961000", "145712.964000", "145712.968000", "145712.977000", "145712.980000", "145712.988000", "145712.991000", "145712.994000", "145712.997000", "145713.001000", "145713.004000", "145713.007000", "145713.010000", "145713.013000", "145713.016000", "145713.019000", "145713.022000", "145713.025000", "145713.035000", "145732.907000", "145732.910000", "145732.913000", "145732.916000", "145732.919000", "145732.922000", "145732.925000", "145732.928000", "145732.931000", "145732.934000", "145732.937000", "145732.940000", "145732.943000", "145732.946000", "145732.949000", "145732.952000", "145732.955000", "145732.958000", "145732.961000", "145732.964000", "145732.974000", "145732.977000", "145732.980000", "145732.983000", "145732.986000", "145732.989000", "145732.992000", "145732.995000", "145752.907000", "145752.910000", "145752.913000", "145752.916000", "145752.919000", "145752.922000", "145752.925000", "145752.928000", "145752.931000", "145752.934000", "145752.937000", "145752.941000", "145752.943000", "145752.946000", "145752.949000", "145752.952000", "145752.956000", "145752.959000", "145752.962000", "145752.965000", "145752.968000", "145752.971000", "145752.974000", "145752.977000", "145752.980000", "145752.983000", "145752.986000", "145752.989000", "145752.992000", "145812.907000", "145812.910000", "145812.913000", "145812.916000", "145812.919000", "145812.922000", "145812.925000", "145812.928000", "145812.931000", "145812.934000", "145812.937000", "145812.940000", "145812.943000", "145812.946000", "145812.949000", "145812.953000", "145812.956000", "145812.959000", "145812.962000", "145812.965000", "145812.968000", "145812.980000", "145812.983000", "145812.986000", "145812.990000", "145812.993000", "145812.996000", "145813.000000", "145832.908000", "145832.911000", "145832.914000", "145832.917000", "145832.920000", "145832.923000", "145832.926000", "145832.929000", "145832.948000", "145832.951000", "145832.954000", "145832.957000", "145832.960000", "145832.963000", "145832.966000", "145832.969000", "145832.972000", "145832.975000", "145832.978000", "145832.981000", "145832.984000", "145832.987000", "145832.990000", "145832.993000", "145832.996000", "145832.999000", "145833.002000", "145833.005000", "145852.908000", "145852.911000", "145852.914000", "145852.917000", "145852.920000", "145852.923000", "145852.926000", "145852.929000", "145852.932000", "145852.935000", "145852.938000", "145852.941000", "145852.944000", "145852.947000", "145852.950000", "145852.953000", "145852.956000", "145852.959000", "145852.962000", "145852.965000", "145852.968000", "145852.971000", "145852.974000", "145852.978000", "145852.981000", "145852.984000", "145852.987000", "145852.990000", "145912.908000", "145912.911000", "145912.914000", "145912.917000", "145912.920000", "145912.923000", "145912.926000", "145912.929000", "145912.932000", "145912.935000", "145912.939000", "145912.942000", "145912.945000", "145912.948000", "145912.951000", "145912.954000", "145912.957000", "145912.960000", "145912.963000", "145912.966000", "145932.908000", "145932.911000", "145932.914000", "145932.917000", "145932.930000", "145932.933000", "145932.936000", "145932.939000", "145932.942000", "145932.945000", "145932.948000", "145932.951000", "145932.954000", "145932.957000", "145932.960000", "145932.963000", "145932.966000", "145932.975000", "145932.978000", "145932.981000", "145952.907000", "145952.910000", "145952.913000", "145952.916000", "145952.919000", "145952.922000", "145952.925000", "145952.928000", "145952.931000", "145952.935000", "145952.938000", "145952.941000", "145952.944000", "145952.947000", "145952.950000", "145952.953000", "145952.956000", "145952.959000", "145952.962000", "145952.965000", "150012.907000", "150012.910000", "150012.913000", "150012.916000", "150012.920000", "150012.923000", "150012.926000", "150012.929000", "150012.932000", "150012.935000", "150012.938000", "150012.941000", "150012.944000", "150012.947000", "150012.950000", "150012.953000", "150012.956000", "150012.959000", "150012.962000", "150012.965000", "150032.907000", "150032.910000", "150032.913000", "150032.916000", "150032.919000", "150032.922000", "150032.925000", "150032.928000", "150032.931000", "150032.935000", "150032.938000", "150032.941000", "150032.944000", "150032.947000", "150032.950000", "150032.953000", "150032.956000", "150032.959000", "150032.962000", "150032.965000", "150052.908000", "150052.911000", "150052.914000", "150052.917000", "150052.920000", "150052.923000", "150052.926000", "150052.930000", "150052.933000", "150052.936000", "150052.939000", "150052.942000", "150052.945000", "150052.948000", "150052.951000", "150052.954000", "150052.957000", "150052.960000", "150052.963000", "150052.966000", "150104.695000", "150104.699000", "150104.715000", "150104.718000", "150104.721000", "150104.724000", "150104.727000", "150104.730000", "150104.733000", "150104.736000", "150104.739000", "150104.742000"],
      "InstanceNumber": [1, 2, 3, 4, 5, 6, 7, 8, 9, 10, 11, 12, 13, 14, 15, 16, 17, 18, 19, 20, 21, 22, 23, 24, 25, 26, 27, 28, 29, 30, 31, 32, 33, 34, 35, 36, 37, 38, 39, 40, 41, 42, 43, 44, 45, 46, 47, 48, 49, 50, 51, 52, 53, 54, 55, 56, 57, 58, 59, 60, 61, 62, 63, 64, 65, 66, 67, 68, 69, 70, 71, 72, 73, 74, 75, 76, 77, 78, 79, 80, 81, 82, 83, 84, 85, 86, 87, 88, 89, 90, 91, 92, 93, 94, 95, 96, 97, 98, 99, 100, 101, 102, 103, 104, 105, 106, 107, 108, 109, 110, 111, 112, 113, 114, 115, 116, 117, 118, 119, 120, 121, 122, 123, 124, 125, 126, 127, 128, 129, 130, 131, 132, 133, 134, 135, 136, 137, 138, 139, 140, 141, 142, 143, 144, 145, 146, 147, 148, 149, 150, 151, 152, 153, 154, 155, 156, 157, 158, 159, 160, 161, 162, 163, 164, 165, 166, 167, 168, 169, 170, 171, 172, 173, 174, 175, 176, 177, 178, 179, 180, 181, 182, 183, 184, 185, 186, 187, 188, 189, 190, 191, 192, 193, 194, 195, 196, 197, 198, 199, 200, 201, 202, 203, 204, 205, 206, 207, 208, 209, 210, 211, 212, 213, 214, 215, 216, 217, 218, 219, 220, 221, 222, 223, 224, 225, 226, 227, 228, 229, 230, 231, 232, 233, 234, 235, 236, 237, 238, 239, 240, 241, 242, 243, 244, 245, 246, 247, 248, 249, 250, 251, 252, 253, 254, 255, 256, 257, 258, 259, 260, 261, 262, 263, 264, 265, 266, 267, 268, 269, 270, 271, 272, 273, 274, 275, 276, 277, 278, 279, 280, 281, 282, 283, 284, 285, 286, 287, 288, 289, 290, 291, 292, 293, 294, 295, 296, 297, 298, 299, 300],
      "LargestImagePixelValue": [39247, 37709, 36904, 36832, 36919, 36298, 36603, 37173, 36151, 36037, 36791, 36584, 36109, 36738, 36155, 36068, 36728, 36365, 36499, 36432, 36355, 36782, 36032, 36235, 37304, 35972, 36165, 37145, 35938, 36371, 37024, 36553, 35954, 36802, 36400, 36448, 36576, 36162, 36820, 36545, 35939, 36656, 36808, 35638, 36521, 36820, 35807, 36450, 36593, 36207, 36217, 36436, 36168, 36533, 36878, 36011, 36543, 36900, 36429, 36107, 36643, 36146, 36606, 36701, 35955, 37059, 36514, 35780, 36607, 37123, 36359, 36699, 36882, 36120, 36920, 36684, 35953, 36814, 36875, 35611, 36776, 36048, 35844, 36988, 36219, 35992, 36669, 35836, 36062, 36569, 36374, 35823, 36496, 36551, 36230, 36669, 35948, 36109, 36931, 35876, 36330, 36801, 35760, 36266, 36681, 35907, 36033, 36678, 37189, 35775, 35961, 37094, 36387, 36230, 36366, 36482, 36219, 36223, 35973, 36750, 36033, 36704, 36495, 36318, 36088, 36717, 36381, 36427, 36883, 36232, 36610, 37007, 35914, 35967, 36636, 36460, 36088, 36340, 36127, 36242, 36161, 36614, 36754, 36363, 35997, 36074, 36508, 36282, 35919, 36736, 36209, 36431, 36396, 35945, 36172, 36607, 36491, 36734, 36250, 36927, 36173, 36505, 35845, 36298, 35992, 36306, 36564, 36773, 36819, 36418, 36114, 36279, 36683, 35644, 35686, 36405, 36081, 36073, 36216, 36723, 36496, 36322, 35832, 36349, 36862, 36435, 36920, 36959, 37986, 36170, 43289, 39528, 38130, 38486, 37725, 37626, 37602, 37749, 38004, 37775, 37035, 37338, 37837, 37790, 37828, 37287, 37357, 37022, 37215, 37247, 36978, 37169, 36777, 37168, 37174, 37332, 37377, 37637, 37420, 37049, 36462, 37072, 37156, 36988, 37115, 37190, 37156, 37422, 36798, 37505, 37234, 36717, 37096, 36895, 36903, 37178, 37228, 36522, 36641, 36686, 36694, 36695, 37056, 36978, 36934, 36725, 37295, 36871, 36859, 37261, 36969, 36951, 36782, 36921, 37352, 37215, 37108, 37172, 37144, 37303, 37568, 37653, 37272, 36935, 36825, 37212, 37502, 37381, 36895, 37084, 36983, 37473, 36800, 36937, 37722, 37241, 37185, 36913, 37132, 36829, 37290, 37027, 36908, 37132, 37102, 36694, 36917, 36958, 37157, 37514, 37177, 37549, 37468, 37803, 37269, 37991, 37338, 37457, 37164, 37309],
      "WindowCenter": [10414.0, 10351.0, 10324.0, 10323.0, 10332.0, 10327.0, 10330.0, 10329.0, 10311.0, 10300.0, 10313.0, 10313.0, 10312.0, 10322.0, 10324.0, 10325.0, 10332.0, 10326.0, 10323.0, 10315.0, 10316.0, 10326.0, 10332.0, 10337.0, 10361.0, 10338.0, 10337.0, 10333.0, 10306.0, 10300.0, 10310.0, 10308.0, 10317.0, 10341.0, 10349.0, 10341.0, 10335.0, 10317.0, 10312.0, 10307.0, 10312.0, 10321.0, 10332.0, 10313.0, 10321.0, 10325.0, 10327.0, 10325.0, 10326.0, 10321.0, 10317.0, 10317.0, 10310.0, 10314.0, 10313.0, 10306.0, 10307.0, 10321.0, 10313.0, 10322.0, 10331.0, 10318.0, 10316.0, 10325.0, 10311.0, 10332.0, 10331.0, 10324.0, 10335.0, 10325.0, 10313.0, 10311.0, 10306.0, 10314.0, 10327.0, 10327.0, 10319.0, 10328.0, 10313.0, 10301.0, 10304.0, 10314.0, 10333.0, 10361.0, 10335.0, 10321.0, 10314.0, 10286.0, 10281.0, 10278.0, 10276.0, 10282.0, 10295.0, 10288.0, 10288.0, 10281.0, 10274.0, 10273.0, 10280.0, 10281.0, 10311.0, 10322.0, 10325.0, 10335.0, 10339.0, 10315.0, 10309.0, 10307.0, 10312.0, 10304.0, 10304.0, 10330.0, 10327.0, 10328.0, 10323.0, 10310.0, 10303.0, 10316.0, 10319.0, 10323.0, 10318.0, 10328.0, 10311.0, 10302.0, 10308.0, 10307.0, 10306.0, 10306.0, 10312.0, 10323.0, 10333.0, 10348.0, 10321.0, 10308.0, 10295.0, 10284.0, 10276.0, 10286.0, 10298.0, 10315.0, 10331.0, 10351.0, 10357.0, 10358.0, 10352.0, 10354.0, 10351.0, 10348.0, 10337.0, 10348.0, 10339.0, 10343.0, 10358.0, 10355.0, 10346.0, 10338.0, 10326.0, 10318.0, 10316.0, 10314.0, 10329.0, 10345.0, 10365.0, 10368.0, 10355.0, 10343.0, 10329.0, 10328.0, 10331.0, 10332.0, 10328.0, 10326.0, 10332.0, 10320.0, 10328.0, 10346.0, 10351.0, 10361.0, 10383.0, 10407.0, 10407.0, 10399.0, 10389.0, 10371.0, 10369.0, 10379.0, 10378.0, 10389.0, 10392.0, 9955.0, 10283.0, 10288.0, 10230.0, 10248.0, 10278.0, 10303.0, 10309.0, 10306.0, 10297.0, 10287.0, 10276.0, 10286.0, 10302.0, 10314.0, 10321.0, 10336.0, 10337.0, 10341.0, 10341.0, 10357.0, 10374.0, 10378.0, 10375.0, 10373.0, 10354.0, 10358.0, 10351.0, 10362.0, 10367.0, 10371.0, 10374.0, 10378.0, 10379.0, 10356.0, 10353.0, 10344.0, 10334.0, 10340.0, 10327.0, 10353.0, 10357.0, 10361.0, 10363.0, 10355.0, 10348.0, 10350.0, 10335.0, 10321.0, 10323.0, 10327.0, 10338.0, 10343.0, 10343.0, 10350.0, 10327.0, 10317.0, 10308.0, 10297.0, 10298.0, 10316.0, 10337.0, 10339.0, 10342.0, 10348.0, 10353.0, 10341.0, 10345.0, 10340.0, 10334.0, 10344.0, 10342.0, 10339.0, 10333.0, 10326.0, 10315.0, 10307.0, 10304.0, 10310.0, 10314.0, 10327.0, 10337.0, 10344.0, 10341.0, 10332.0, 10336.0, 10328.0, 10338.0, 10341.0, 10330.0, 10324.0, 10321.0, 10306.0, 10292.0, 10291.0, 10293.0, 10303.0, 10305.0, 10313.0, 10320.0, 10310.0, 10295.0, 10296.0, 10295.0, 10296.0, 10298.0, 10316.0, 10312.0, 10314.0, 10305.0, 10318.0],
