{
  "AcquisitionMatrixPE": 104,
  "AcquisitionNumber": 1,
  "AcquisitionTime": "11:47:44.362500",
  "BandwidthPerPixelPhaseEncode": 16.297,
  "BaseResolution": 104,
  "BodyPartExamined": "BRAIN",
  "ConsistencyInfo": "N4_VE11C_LATEST_20160120",
  "ConversionSoftware": "dcm2niix",
  "ConversionSoftwareVersion": "v1.0.20210317",
  "DerivedVendorReportedEchoSpacing": 0.000590009,
  "DeviceSerialNumber": "166018",
  "DwellTime": 2.1e-06,
  "EchoTime": 0.0376,
  "EchoTrainLength": 104,
  "EffectiveEchoSpacing": 0.000590009,
  "FlipAngle": 68,
  "ImageComments": "Unaliased MB6/PE3/LB",
  "ImageOrientationPatientDICOM": [0.99872, 0.0122744, 0.0490592, 0.000348604, 0.968404, -0.249388],
  "ImageType": [
    "ORIGINAL",
    "PRIMARY",
    "M",
    "MB",
    "ND",
    "MOSAIC"
],
  "ImagingFrequency": 123.197,
  "InPlanePhaseEncodingDirectionDICOM": "COL",
  "InstitutionAddress": "Washington Place 6,NYC,NYC,US,10003",
  "InstitutionName": "NYU - CBI",
  "InstitutionalDepartmentName": "Department",
  "MRAcquisitionType": "2D",
  "MagneticFieldStrength": 3,
  "Manufacturer": "Siemens",
  "ManufacturersModelName": "Prisma",
  "Modality": "MR",
  "MultibandAccelerationFactor": 6,
  "PartialFourier": 1,
  "PatientPosition": "HFS",
  "PercentPhaseFOV": 100,
  "PercentSampling": 100,
  "PhaseEncodingDirection": "j",
  "PhaseEncodingSteps": 104,
  "PhaseResolution": 1,
  "PixelBandwidth": 2290,
  "ProcedureStepDescription": "Investigators^Winawer",
  "ProtocolName": "cmrr_mbepi_s6_2mm_66sl_PA_task-wedgering3",
  "PulseSequenceDetails": "%CustomerSeq%\\cmrr_mbep2d_bold",
  "ReceiveCoilActiveElements": "HC1-7",
  "ReceiveCoilName": "HeadNeck_64",
  "ReconMatrixPE": 104,
  "RepetitionTime": 1,
  "SAR": 0.0664848,
  "ScanOptions": "FS",
  "ScanningSequence": "EP",
  "SequenceName": "epfid2d1_104",
  "SequenceVariant": "SK\\SS",
  "SeriesDescription": "cmrr_mbepi_s6_2mm_66sl_PA_task-wedgering3",
  "SeriesNumber": 18,
  "ShimSetting": [313, -12633, -8415, 506, -40, -69, -63, 41],
  "SliceThickness": 2,
  "SliceTiming": [0, 0.535, 0.09, 0.625, 0.18, 0.7125, 0.2675, 0.8025, 0.3575, 0.8925, 0.445, 0, 0.535, 0.09, 0.625, 0.18, 0.7125, 0.2675, 0.8025, 0.3575, 0.8925, 0.445, 0, 0.535, 0.09, 0.625, 0.18, 0.7125, 0.2675, 0.8025, 0.3575, 0.8925, 0.445, 0, 0.535, 0.09, 0.625, 0.18, 0.7125, 0.2675, 0.8025, 0.3575, 0.8925, 0.445, 0, 0.535, 0.09, 0.625, 0.18, 0.7125, 0.2675, 0.8025, 0.3575, 0.8925, 0.445, 0, 0.535, 0.09, 0.625, 0.18, 0.7125, 0.2675, 0.8025, 0.3575, 0.8925, 0.445],
  "SoftwareVersions": "syngo MR E11",
  "SpacingBetweenSlices": 2,
  "StationName": "AWP166018",
  "TaskName": "wedgering3",
  "TotalReadoutTime": 0.060771,
  "TxRefAmp": 208.916,
  "VendorReportedEchoSpacing": 0.00059,
  "WipMemBlock": "557ace5f-31e9-4410-b3b8-c63953a7bb10||Sequence: R016 ve11c/master r/8780670; Nov 27 2017 15:05:12 by eja",
  "dcmmeta_affine": [
    [-1.9974409341812134, 0.000697207055054605, 0.10114032030105591, 103.11198425292969],
    [-0.024548836052417755, 1.93680739402771, -0.49817129969596863, -69.49015045166016],
    [0.09811832010746002, 0.49877530336380005, 1.9343205690383911, -79.0192642211914],
    [0.0, 0.0, 0.0, 1.0]
],
  "dcmmeta_reorient_transform": [
    [0.0, -1.0, 0.0, 103.0],
    [1.0, 0.0, 0.0, 0.0],
    [0.0, 0.0, 1.0, 0.0],
    [0.0, 0.0, 0.0, 1.0]
],
  "dcmmeta_shape": [104, 104, 66, 300],
  "dcmmeta_slice_dim": 2,
  "dcmmeta_version": 0.6,
  "global": {
    "const": {
      "AccessionNumber": "Leesud5n",
      "AcquisitionMatrix": [104, 0, 0, 104],
      "AngioFlag": "N",
      "BitsAllocated": 16,
      "BitsStored": 16,
      "BodyPartExamined": "BRAIN",
      "Columns": 936,
      "EchoNumbers": 1,
      "EchoTime": 37.6,
      "EchoTrainLength": 104,
      "FlipAngle": 68.0,
      "HighBit": 15,
      "ImageOrientationPatient": [0.99872045012461, 0.01227441760429, 0.0490591599538, 0.00034860351848, 0.96840367552376, -0.249387649469],
      "ImagePositionPatient": [-934.40925138742, -945.92517795594, 139.02789389005],
      "ImageType": [
        "ORIGINAL",
        "PRIMARY",
        "M",
        "MB",
        "ND",
        "MOSAIC"
],
      "ImagedNucleus": "1H",
      "ImagingFrequency": 123.196838,
      "InPlanePhaseEncodingDirection": "COL",
      "MRAcquisitionType": "2D",
      "MagneticFieldStrength": 3.0,
      "Manufacturer": "SIEMENS",
      "ManufacturerModelName": "Prisma",
      "Modality": "MR",
      "NumberOfAverages": 1.0,
      "NumberOfPhaseEncodingSteps": 104,
      "PercentPhaseFieldOfView": 100.0,
      "PercentSampling": 100.0,
      "PerformedProcedureStepStartTime": "103851.791000",
      "PhotometricInterpretation": "MONOCHROME2",
      "PixelBandwidth": 2290.0,
      "PixelRepresentation": 0,
      "PixelSpacing": [2.0, 2.0],
      "ProtocolName": "cmrr_mbepi_s6_2mm_66sl_PA_task-wedgering3",
      "RepetitionTime": 1000.0,
      "Rows": 936,
      "SAR": 0.06648477355189,
      "SamplesPerPixel": 1,
      "ScanOptions": "FS",
      "ScanningSequence": "EP",
      "SequenceName": "epfid2d1_104",
      "SequenceVariant": [
        "SK",
        "SS"
],
      "SeriesDescription": "cmrr_mbepi_s6_2mm_66sl_PA_task-wedgering3",
      "SeriesNumber": 18,
      "SeriesTime": "114909.926000",
      "SliceLocation": -53.900905065558,
      "SliceThickness": 2.0,
      "SmallestImagePixelValue": 0,
      "SoftwareVersions": "syngo MR E11",
      "SpacingBetweenSlices": 2.0000000354078,
      "SpecificCharacterSet": "ISO_IR 100",
      "StudyID": "1",
      "StudyTime": "103851.730000",
      "TransmitCoilName": "Body",
      "VariableFlipAngleFlag": "N",
      "WindowCenterWidthExplanation": "Algo1",
      "dBdt": 0.0},
    "slices": {}
  },
  "time": {
    "samples": {
      "AcquisitionNumber": [1, 2, 3, 4, 5, 6, 7, 8, 9, 10, 11, 12, 13, 14, 15, 16, 17, 18, 19, 20, 21, 22, 23, 24, 25, 26, 27, 28, 29, 30, 31, 32, 33, 34, 35, 36, 37, 38, 39, 40, 41, 42, 43, 44, 45, 46, 47, 48, 49, 50, 51, 52, 53, 54, 55, 56, 57, 58, 59, 60, 61, 62, 63, 64, 65, 66, 67, 68, 69, 70, 71, 72, 73, 74, 75, 76, 77, 78, 79, 80, 81, 82, 83, 84, 85, 86, 87, 88, 89, 90, 91, 92, 93, 94, 95, 96, 97, 98, 99, 100, 101, 102, 103, 104, 105, 106, 107, 108, 109, 110, 111, 112, 113, 114, 115, 116, 117, 118, 119, 120, 121, 122, 123, 124, 125, 126, 127, 128, 129, 130, 131, 132, 133, 134, 135, 136, 137, 138, 139, 140, 141, 142, 143, 144, 145, 146, 147, 148, 149, 150, 151, 152, 153, 154, 155, 156, 157, 158, 159, 160, 161, 162, 163, 164, 165, 166, 167, 168, 169, 170, 171, 172, 173, 174, 175, 176, 177, 178, 179, 180, 181, 182, 183, 184, 185, 186, 187, 188, 189, 190, 191, 192, 193, 194, 195, 196, 197, 198, 199, 200, 201, 202, 203, 204, 205, 206, 207, 208, 209, 210, 211, 212, 213, 214, 215, 216, 217, 218, 219, 220, 221, 222, 223, 224, 225, 226, 227, 228, 229, 230, 231, 232, 233, 234, 235, 236, 237, 238, 239, 240, 241, 242, 243, 244, 245, 246, 247, 248, 249, 250, 251, 252, 253, 254, 255, 256, 257, 258, 259, 260, 261, 262, 263, 264, 265, 266, 267, 268, 269, 270, 271, 272, 273, 274, 275, 276, 277, 278, 279, 280, 281, 282, 283, 284, 285, 286, 287, 288, 289, 290, 291, 292, 293, 294, 295, 296, 297, 298, 299, 300],
      "AcquisitionTime": ["114744.362500", "114745.362500", "114746.362500", "114747.362500", "114748.362500", "114749.362500", "114750.362500", "114751.362500", "114752.362500", "114753.362500", "114754.362500", "114755.362500", "114756.362500", "114757.362500", "114758.362500", "114759.362500", "114800.362500", "114801.362500", "114802.362500", "114803.362500", "114804.362500", "114805.362500", "114806.362500", "114807.362500", "114808.362500", "114809.362500", "114810.362500", "114811.362500", "114812.362500", "114813.362500", "114814.362500", "114815.362500", "114816.362500", "114817.362500", "114818.362500", "114819.362500", "114820.362500", "114821.362500", "114822.362500", "114823.362500", "114824.362500", "114825.362500", "114826.362500", "114827.362500", "114828.362500", "114829.362500", "114830.362500", "114831.362500", "114832.362500", "114833.362500", "114834.362500", "114835.362500", "114836.362500", "114837.362500", "114838.362500", "114839.362500", "114840.362500", "114841.362500", "114842.362500", "114843.362500", "114844.362500", "114845.362500", "114846.362500", "114847.362500", "114848.362500", "114849.362500", "114850.362500", "114851.362500", "114852.362500", "114853.362500", "114854.362500", "114855.362500", "114856.362500", "114857.362500", "114858.362500", "114859.362500", "114900.362500", "114901.362500", "114902.362500", "114903.362500", "114904.362500", "114905.362500", "114906.362500", "114907.362500", "114908.362500", "114909.362500", "114910.362500", "114911.362500", "114912.362500", "114913.362500", "114914.362500", "114915.362500", "114916.362500", "114917.362500", "114918.362500", "114919.362500", "114920.362500", "114921.362500", "114922.362500", "114923.362500", "114924.362500", "114925.362500", "114926.362500", "114927.362500", "114928.362500", "114929.362500", "114930.362500", "114931.362500", "114932.362500", "114933.362500", "114934.362500", "114935.362500", "114936.362500", "114937.362500", "114938.362500", "114939.362500", "114940.362500", "114941.362500", "114942.362500", "114943.362500", "114944.362500", "114945.362500", "114946.362500", "114947.362500", "114948.362500", "114949.362500", "114950.362500", "114951.362500", "114952.362500", "114953.362500", "114954.362500", "114955.362500", "114956.362500", "114957.362500", "114958.362500", "114959.362500", "115000.362500", "115001.362500", "115002.362500", "115003.362500", "115004.362500", "115005.362500", "115006.362500", "115007.362500", "115008.362500", "115009.362500", "115010.362500", "115011.362500", "115012.362500", "115013.362500", "115014.362500", "115015.362500", "115016.362500", "115017.362500", "115018.362500", "115019.362500", "115020.362500", "115021.362500", "115022.362500", "115023.362500", "115024.362500", "115025.362500", "115026.362500", "115027.362500", "115028.362500", "115029.362500", "115030.362500", "115031.362500", "115032.362500", "115033.362500", "115034.362500", "115035.362500", "115036.362500", "115037.362500", "115038.362500", "115039.362500", "115040.362500", "115041.362500", "115042.362500", "115043.362500", "115044.362500", "115045.362500", "115046.362500", "115047.362500", "115048.362500", "115049.362500", "115050.362500", "115051.362500", "115052.362500", "115053.362500", "115054.362500", "115055.362500", "115056.362500", "115057.362500", "115058.362500", "115059.362500", "115100.362500", "115101.362500", "115102.362500", "115103.362500", "115104.362500", "115105.362500", "115106.362500", "115107.362500", "115108.362500", "115109.362500", "115110.362500", "115111.362500", "115112.362500", "115113.362500", "115114.362500", "115115.362500", "115116.362500", "115117.362500", "115118.362500", "115119.362500", "115120.362500", "115121.362500", "115122.362500", "115123.362500", "115124.362500", "115125.362500", "115126.362500", "115127.362500", "115128.362500", "115129.362500", "115130.362500", "115131.362500", "115132.362500", "115133.362500", "115134.362500", "115135.362500", "115136.362500", "115137.362500", "115138.362500", "115139.362500", "115140.362500", "115141.362500", "115142.362500", "115143.362500", "115144.362500", "115145.362500", "115146.362500", "115147.362500", "115148.362500", "115149.362500", "115150.362500", "115151.362500", "115152.362500", "115153.362500", "115154.362500", "115155.362500", "115156.362500", "115157.362500", "115158.362500", "115159.362500", "115200.362500", "115201.362500", "115202.362500", "115203.362500", "115204.362500", "115205.362500", "115206.362500", "115207.362500", "115208.362500", "115209.362500", "115210.362500", "115211.362500", "115212.362500", "115213.362500", "115214.362500", "115215.362500", "115216.362500", "115217.362500", "115218.362500", "115219.362500", "115220.362500", "115221.362500", "115222.362500", "115223.362500", "115224.362500", "115225.362500", "115226.362500", "115227.362500", "115228.362500", "115229.362500", "115230.362500", "115231.362500", "115232.362500", "115233.362500", "115234.362500", "115235.362500", "115236.362500", "115237.362500", "115238.362500", "115239.362500", "115240.362500", "115241.362500", "115242.362500", "115243.362500"],
      "ContentTime": ["114909.928000", "114909.932000", "114909.935000", "114909.938000", "114909.941000", "114909.944000", "114909.947000", "114909.950000", "114909.953000", "114909.956000", "114909.959000", "114909.962000", "114909.965000", "114909.968000", "114909.971000", "114909.974000", "114909.977000", "114909.980000", "114909.983000", "114910.002000", "114910.005000", "114910.008000", "114910.011000", "114910.014000", "114910.017000", "114910.020000", "114910.023000", "114910.026000", "114910.029000", "114910.032000", "114910.035000", "114910.038000", "114910.041000", "114910.043000", "114910.046000", "114910.049000", "114910.052000", "114910.056000", "114910.059000", "114910.062000", "114910.064000", "114910.068000", "114929.904000", "114929.907000", "114929.910000", "114929.913000", "114929.916000", "114929.940000", "114929.943000", "114929.946000", "114929.949000", "114929.952000", "114929.954000", "114929.957000", "114929.960000", "114929.963000", "114929.966000", "114929.969000", "114929.972000", "114929.976000", "114929.979000", "114929.982000", "114929.985000", "114929.988000", "114929.991000", "114929.994000", "114929.997000", "114930.001000", "114930.004000", "114930.007000", "114949.904000", "114949.907000", "114949.910000", "114949.913000", "114949.916000", "114949.919000", "114949.922000", "114949.932000", "114949.935000", "114949.938000", "114949.941000", "114949.944000", "114949.947000", "114949.950000", "114949.954000", "114949.957000", "114949.960000", "114949.963000", "114949.966000", "114949.969000", "114949.972000", "114949.975000", "114949.978000", "114949.981000", "114949.984000", "114949.987000", "114949.991000", "114949.994000", "115009.904000", "115009.907000", "115009.910000", "115009.913000", "115009.916000", "115009.919000", "115009.922000", "115009.925000", "115009.928000", "115009.931000", "115009.934000", "115009.937000", "115009.940000", "115009.943000", "115009.946000", "115009.949000", "115009.952000", "115009.954000", "115009.957000", "115009.960000", "115009.964000", "115009.967000", "115009.970000", "115009.973000", "115009.976000", "115009.979000", "115009.982000", "115009.985000", "115009.987000", "115029.904000", "115029.907000", "115029.910000", "115029.913000", "115029.916000", "115029.919000", "115029.922000", "115029.925000", "115029.928000", "115029.931000", "115029.934000", "115029.937000", "115029.940000", "115029.943000", "115029.946000", "115029.949000", "115029.952000", "115029.955000", "115029.958000", "115029.961000", "115029.964000", "115029.966000", "115029.969000", "115029.972000", "115029.975000", "115029.978000", "115029.981000", "115029.984000", "115049.904000", "115049.907000", "115049.910000", "115049.913000", "115049.916000", "115049.919000", "115049.922000", "115049.925000", "115049.928000", "115049.931000", "115049.934000", "115049.937000", "115049.940000", "115049.943000", "115049.946000", "115049.949000", "115049.952000", "115049.954000", "115049.957000", "115049.960000", "115049.963000", "115049.966000", "115049.969000", "115049.972000", "115049.975000", "115049.978000", "115049.981000", "115049.984000", "115109.904000", "115109.907000", "115109.910000", "115109.913000", "115109.916000", "115109.919000", "115109.922000", "115109.925000", "115109.928000", "115109.931000", "115109.934000", "115109.937000", "115109.940000", "115109.943000", "115109.946000", "115109.949000", "115109.952000", "115109.955000", "115109.958000", "115109.961000", "115109.964000", "115109.967000", "115129.904000", "115129.907000", "115129.910000", "115129.913000", "115129.916000", "115129.919000", "115129.922000", "115129.925000", "115129.928000", "115129.931000", "115129.934000", "115129.937000", "115129.954000", "115129.957000", "115129.960000", "115129.963000", "115129.966000", "115129.969000", "115129.972000", "115129.975000", "115149.904000", "115149.907000", "115149.910000", "115149.913000", "115149.916000", "115149.919000", "115149.922000", "115149.925000", "115149.928000", "115149.931000", "115149.934000", "115149.937000", "115149.940000", "115149.943000", "115149.946000", "115149.949000", "115149.952000", "115149.955000", "115149.958000", "115149.961000", "115209.904000", "115209.907000", "115209.910000", "115209.913000", "115209.916000", "115209.919000", "115209.922000", "115209.925000", "115209.928000", "115209.931000", "115209.934000", "115209.937000", "115209.940000", "115209.943000", "115209.946000", "115209.949000", "115209.952000", "115209.955000", "115209.958000", "115209.961000", "115229.904000", "115229.907000", "115229.910000", "115229.913000", "115229.916000", "115229.919000", "115229.922000", "115229.925000", "115229.928000", "115229.931000", "115229.934000", "115229.937000", "115229.940000", "115229.943000", "115229.946000", "115229.949000", "115229.952000", "115229.955000", "115229.958000", "115229.961000", "115244.846000", "115244.849000", "115244.852000", "115244.855000", "115244.858000", "115244.861000", "115244.864000", "115244.867000", "115244.870000", "115244.873000", "115244.876000", "115244.880000", "115244.883000", "115244.886000", "115244.889000"],
      "InstanceCreationTime": ["114909.928000", "114909.932000", "114909.935000", "114909.938000", "114909.941000", "114909.944000", "114909.947000", "114909.950000", "114909.953000", "114909.956000", "114909.959000", "114909.962000", "114909.965000", "114909.968000", "114909.971000", "114909.974000", "114909.977000", "114909.980000", "114909.983000", "114910.002000", "114910.005000", "114910.008000", "114910.011000", "114910.014000", "114910.017000", "114910.020000", "114910.023000", "114910.026000", "114910.029000", "114910.032000", "114910.035000", "114910.038000", "114910.041000", "114910.043000", "114910.046000", "114910.049000", "114910.052000", "114910.056000", "114910.059000", "114910.062000", "114910.064000", "114910.068000", "114929.904000", "114929.907000", "114929.910000", "114929.913000", "114929.916000", "114929.940000", "114929.943000", "114929.946000", "114929.949000", "114929.952000", "114929.954000", "114929.957000", "114929.960000", "114929.963000", "114929.966000", "114929.969000", "114929.972000", "114929.976000", "114929.979000", "114929.982000", "114929.985000", "114929.988000", "114929.991000", "114929.994000", "114929.997000", "114930.001000", "114930.004000", "114930.007000", "114949.904000", "114949.907000", "114949.910000", "114949.913000", "114949.916000", "114949.919000", "114949.922000", "114949.932000", "114949.935000", "114949.938000", "114949.941000", "114949.944000", "114949.947000", "114949.950000", "114949.954000", "114949.957000", "114949.960000", "114949.963000", "114949.966000", "114949.969000", "114949.972000", "114949.975000", "114949.978000", "114949.981000", "114949.984000", "114949.987000", "114949.991000", "114949.994000", "115009.904000", "115009.907000", "115009.910000", "115009.913000", "115009.916000", "115009.919000", "115009.922000", "115009.925000", "115009.928000", "115009.931000", "115009.934000", "115009.937000", "115009.940000", "115009.943000", "115009.946000", "115009.949000", "115009.952000", "115009.954000", "115009.957000", "115009.960000", "115009.964000", "115009.967000", "115009.970000", "115009.973000", "115009.976000", "115009.979000", "115009.982000", "115009.985000", "115009.987000", "115029.904000", "115029.907000", "115029.910000", "115029.913000", "115029.916000", "115029.919000", "115029.922000", "115029.925000", "115029.928000", "115029.931000", "115029.934000", "115029.937000", "115029.940000", "115029.943000", "115029.946000", "115029.949000", "115029.952000", "115029.955000", "115029.958000", "115029.961000", "115029.964000", "115029.966000", "115029.969000", "115029.972000", "115029.975000", "115029.978000", "115029.981000", "115029.984000", "115049.904000", "115049.907000", "115049.910000", "115049.913000", "115049.916000", "115049.919000", "115049.922000", "115049.925000", "115049.928000", "115049.931000", "115049.934000", "115049.937000", "115049.940000", "115049.943000", "115049.946000", "115049.949000", "115049.952000", "115049.954000", "115049.957000", "115049.960000", "115049.963000", "115049.966000", "115049.969000", "115049.972000", "115049.975000", "115049.978000", "115049.981000", "115049.984000", "115109.904000", "115109.907000", "115109.910000", "115109.913000", "115109.916000", "115109.919000", "115109.922000", "115109.925000", "115109.928000", "115109.931000", "115109.934000", "115109.937000", "115109.940000", "115109.943000", "115109.946000", "115109.949000", "115109.952000", "115109.955000", "115109.958000", "115109.961000", "115109.964000", "115109.967000", "115129.904000", "115129.907000", "115129.910000", "115129.913000", "115129.916000", "115129.919000", "115129.922000", "115129.925000", "115129.928000", "115129.931000", "115129.934000", "115129.937000", "115129.954000", "115129.957000", "115129.960000", "115129.963000", "115129.966000", "115129.969000", "115129.972000", "115129.975000", "115149.904000", "115149.907000", "115149.910000", "115149.913000", "115149.916000", "115149.919000", "115149.922000", "115149.925000", "115149.928000", "115149.931000", "115149.934000", "115149.937000", "115149.940000", "115149.943000", "115149.946000", "115149.949000", "115149.952000", "115149.955000", "115149.958000", "115149.961000", "115209.904000", "115209.907000", "115209.910000", "115209.913000", "115209.916000", "115209.919000", "115209.922000", "115209.925000", "115209.928000", "115209.931000", "115209.934000", "115209.937000", "115209.940000", "115209.943000", "115209.946000", "115209.949000", "115209.952000", "115209.955000", "115209.958000", "115209.961000", "115229.904000", "115229.907000", "115229.910000", "115229.913000", "115229.916000", "115229.919000", "115229.922000", "115229.925000", "115229.928000", "115229.931000", "115229.934000", "115229.937000", "115229.940000", "115229.943000", "115229.946000", "115229.949000", "115229.952000", "115229.955000", "115229.958000", "115229.961000", "115244.846000", "115244.849000", "115244.852000", "115244.855000", "115244.858000", "115244.861000", "115244.864000", "115244.867000", "115244.870000", "115244.873000", "115244.876000", "115244.880000", "115244.883000", "115244.886000", "115244.889000"],
      "InstanceNumber": [1, 2, 3, 4, 5, 6, 7, 8, 9, 10, 11, 12, 13, 14, 15, 16, 17, 18, 19, 20, 21, 22, 23, 24, 25, 26, 27, 28, 29, 30, 31, 32, 33, 34, 35, 36, 37, 38, 39, 40, 41, 42, 43, 44, 45, 46, 47, 48, 49, 50, 51, 52, 53, 54, 55, 56, 57, 58, 59, 60, 61, 62, 63, 64, 65, 66, 67, 68, 69, 70, 71, 72, 73, 74, 75, 76, 77, 78, 79, 80, 81, 82, 83, 84, 85, 86, 87, 88, 89, 90, 91, 92, 93, 94, 95, 96, 97, 98, 99, 100, 101, 102, 103, 104, 105, 106, 107, 108, 109, 110, 111, 112, 113, 114, 115, 116, 117, 118, 119, 120, 121, 122, 123, 124, 125, 126, 127, 128, 129, 130, 131, 132, 133, 134, 135, 136, 137, 138, 139, 140, 141, 142, 143, 144, 145, 146, 147, 148, 149, 150, 151, 152, 153, 154, 155, 156, 157, 158, 159, 160, 161, 162, 163, 164, 165, 166, 167, 168, 169, 170, 171, 172, 173, 174, 175, 176, 177, 178, 179, 180, 181, 182, 183, 184, 185, 186, 187, 188, 189, 190, 191, 192, 193, 194, 195, 196, 197, 198, 199, 200, 201, 202, 203, 204, 205, 206, 207, 208, 209, 210, 211, 212, 213, 214, 215, 216, 217, 218, 219, 220, 221, 222, 223, 224, 225, 226, 227, 228, 229, 230, 231, 232, 233, 234, 235, 236, 237, 238, 239, 240, 241, 242, 243, 244, 245, 246, 247, 248, 249, 250, 251, 252, 253, 254, 255, 256, 257, 258, 259, 260, 261, 262, 263, 264, 265, 266, 267, 268, 269, 270, 271, 272, 273, 274, 275, 276, 277, 278, 279, 280, 281, 282, 283, 284, 285, 286, 287, 288, 289, 290, 291, 292, 293, 294, 295, 296, 297, 298, 299, 300],
      "LargestImagePixelValue": [38572, 37004, 36747, 36773, 36483, 35865, 36587, 36167, 36047, 36846, 35884, 36142, 36389, 35823, 36170, 36549, 36353, 36555, 37112, 36741, 37288, 37148, 36908, 37069, 37167, 36894, 37014, 37030, 36847, 37109, 36457, 36180, 36520, 36410, 35755, 36013, 36705, 36697, 36725, 36187, 36375, 36490, 36130, 35841, 36681, 36102, 36110, 36460, 36043, 35734, 36362, 36447, 35799, 35927, 36484, 36032, 36064, 36685, 36198, 36084, 37012, 36871, 36083, 36297, 36564, 35925, 36118, 36976, 36209, 36439, 36809, 36517, 36394, 36514, 36256, 35926, 35945, 36577, 36107, 36336, 37090, 35806, 35989, 36520, 36295, 35958, 36793, 36449, 36662, 37377, 36340, 36442, 37050, 36094, 35975, 36638, 36177, 36070, 36367, 35777, 35950, 36512, 36343, 36018, 36984, 36815, 36054, 36083, 36767, 36687, 36185, 36245, 36422, 35944, 35265, 35668, 35654, 35417, 36111, 36404, 35940, 36082, 36344, 35709, 35778, 36257, 36258, 35800, 36540, 36272, 36629, 36770, 36076, 35694, 35826, 35851, 36137, 35602, 36007, 36625, 35896, 36183, 36678, 36095, 35899, 36825, 36128, 35588, 36193, 36253, 35992, 36127, 36839, 36066, 36210, 36538, 36063, 36307, 36469, 35861, 35871, 36565, 35981, 35859, 36615, 36042, 35767, 36503, 36293, 35988, 36697, 35738, 35800, 37082, 36132, 35316, 36352, 35984, 35937, 36498, 36089, 36139, 36617, 35606, 35946, 36307, 35927, 35706, 36310, 36007, 35474, 36347, 35693, 35825, 36447, 36293, 36210, 37036, 35766, 35776, 36220, 35967, 35795, 36208, 35921, 36002, 36343, 36236, 36413, 36489, 35854, 36423, 36613, 36452, 36384, 36277, 36194, 36260, 36608, 36715, 36336, 36238, 36603, 36334, 36285, 36487, 36093, 35970, 36539, 36462, 36171, 36136, 36387, 36258, 35830, 35849, 36110, 36009, 35767, 36797, 36460, 36268, 36584, 35886, 35761, 36514, 36231, 36232, 36869, 36517, 36199, 36269, 35710, 36552, 35898, 35955, 36762, 36407, 36119, 36449, 36168, 35720, 36054, 36672, 36043, 36497, 37115, 36331, 35890, 36485, 36039, 36059, 36505, 36084, 36241, 36961, 36440, 36391, 37221, 36782, 36392, 37104, 36682, 35917, 36770, 36596, 37013, 36994, 36845, 36914, 37421, 37265, 36758, 37246, 36968, 36262, 36800, 36891, 36543, 36273],
      "WindowCenter": [9819.0, 9781.0, 9764.0, 9764.0, 9765.0, 9761.0, 9773.0, 9767.0, 9762.0, 9772.0, 9762.0, 9766.0, 9765.0, 9759.0, 9756.0, 9754.0, 9754.0, 9746.0, 9756.0, 9752.0, 9765.0, 9766.0, 9762.0, 9760.0, 9761.0, 9756.0, 9768.0, 9769.0, 9762.0, 9760.0, 9763.0, 9765.0, 9766.0, 9779.0, 9770.0, 9768.0, 9769.0, 9765.0, 9771.0, 9759.0, 9762.0, 9762.0, 9757.0, 9743.0, 9755.0, 9756.0, 9757.0, 9772.0, 9782.0, 9779.0, 9784.0, 9783.0, 9769.0, 9767.0, 9781.0, 9789.0, 9797.0, 9796.0, 9783.0, 9766.0, 9767.0, 9756.0, 9757.0, 9762.0, 9765.0, 9760.0, 9759.0, 9765.0, 9759.0, 9755.0, 9748.0, 9748.0, 9747.0, 9753.0, 9750.0, 9752.0, 9758.0, 9765.0, 9767.0, 9772.0, 9785.0, 9776.0, 9777.0, 9791.0, 9792.0, 9786.0, 9803.0, 9791.0, 9788.0, 9793.0, 9775.0, 9772.0, 9776.0, 9765.0, 9759.0, 9765.0, 9759.0, 9751.0, 9757.0, 9752.0, 9751.0, 9764.0, 9765.0, 9759.0, 9776.0, 9780.0, 9762.0, 9765.0, 9765.0, 9763.0, 9758.0, 9766.0, 9775.0, 9772.0, 9764.0, 9763.0, 9756.0, 9748.0, 9750.0, 9741.0, 9727.0, 9732.0, 9746.0, 9751.0, 9766.0, 9774.0, 9767.0, 9753.0, 9751.0, 9750.0, 9749.0, 9748.0, 9749.0, 9737.0, 9750.0, 9753.0, 9774.0, 9770.0, 9775.0, 9768.0, 9754.0, 9757.0, 9764.0, 9765.0, 9768.0, 9788.0, 9786.0, 9787.0, 9791.0, 9792.0, 9780.0, 9784.0, 9789.0, 9777.0, 9768.0, 9773.0, 9760.0, 9759.0, 9758.0, 9751.0, 9745.0, 9757.0, 9754.0, 9752.0, 9765.0, 9775.0, 9770.0, 9776.0, 9770.0, 9768.0, 9774.0, 9770.0, 9769.0, 9787.0, 9776.0, 9765.0, 9775.0, 9771.0, 9763.0, 9766.0, 9758.0, 9750.0, 9750.0, 9738.0, 9742.0, 9742.0, 9737.0, 9735.0, 9741.0, 9743.0, 9744.0, 9757.0, 9761.0, 9761.0, 9768.0, 9762.0, 9753.0, 9757.0, 9746.0, 9744.0, 9743.0, 9745.0, 9751.0, 9751.0, 9745.0, 9749.0, 9750.0, 9759.0, 9771.0, 9773.0, 9769.0, 9765.0, 9764.0, 9758.0, 9756.0, 9750.0, 9757.0, 9764.0, 9771.0, 9779.0, 9773.0, 9767.0, 9772.0, 9767.0, 9760.0, 9765.0, 9760.0, 9763.0, 9781.0, 9783.0, 9771.0, 9769.0, 9770.0, 9770.0, 9763.0, 9762.0, 9768.0, 9768.0, 9769.0, 9782.0, 9777.0, 9776.0, 9784.0, 9781.0, 9781.0, 9792.0, 9780.0, 9779.0, 9790.0, 9791.0, 9786.0, 9793.0, 9779.0, 9778.0, 9769.0, 9753.0, 9756.0, 9744.0, 9734.0, 9738.0, 9749.0, 9752.0, 9766.0, 9766.0, 9754.0, 9752.0, 9764.0, 9761.0, 9762.0, 9767.0, 9762.0, 9755.0, 9760.0, 9752.0, 9751.0, 9757.0, 9756.0, 9754.0, 9756.0, 9763.0, 9756.0, 9761.0, 9755.0, 9744.0, 9755.0, 9757.0, 9768.0, 9775.0, 9771.0, 9771.0, 9768.0, 9762.0, 9754.0, 9752.0, 9755.0, 9757.0, 9763.0, 9765.0, 9759.0, 9752.0],
