{
  "AcquisitionMatrixPE": 104,
  "AcquisitionNumber": 1,
  "AcquisitionTime": "11:17:39.247500",
  "BandwidthPerPixelPhaseEncode": 16.297,
  "BaseResolution": 104,
  "BodyPartExamined": "BRAIN",
  "ConsistencyInfo": "N4_VE11C_LATEST_20160120",
  "ConversionSoftware": "dcm2niix",
  "ConversionSoftwareVersion": "v1.0.20210317",
  "DerivedVendorReportedEchoSpacing": 0.000590009,
  "DeviceSerialNumber": "166018",
  "DwellTime": 2.1e-06,
  "EchoTime": 0.0376,
  "EchoTrainLength": 104,
  "EffectiveEchoSpacing": 0.000590009,
  "FlipAngle": 68,
  "ImageComments": "Unaliased MB6/PE3/LB",
  "ImageOrientationPatientDICOM": [0.99872, 0.0122744, 0.0490592, 0.000348604, 0.968404, -0.249388],
  "ImageType": [
    "ORIGINAL",
    "PRIMARY",
    "M",
    "MB",
    "ND",
    "MOSAIC"
],
  "ImagingFrequency": 123.197,
  "InPlanePhaseEncodingDirectionDICOM": "COL",
  "InstitutionAddress": "Washington Place 6,NYC,NYC,US,10003",
  "InstitutionName": "NYU - CBI",
  "InstitutionalDepartmentName": "Department",
  "MRAcquisitionType": "2D",
  "MagneticFieldStrength": 3,
  "Manufacturer": "Siemens",
  "ManufacturersModelName": "Prisma",
  "Modality": "MR",
  "MultibandAccelerationFactor": 6,
  "PartialFourier": 1,
  "PatientPosition": "HFS",
  "PercentPhaseFOV": 100,
  "PercentSampling": 100,
  "PhaseEncodingDirection": "j",
  "PhaseEncodingSteps": 104,
  "PhaseResolution": 1,
  "PixelBandwidth": 2290,
  "ProcedureStepDescription": "Investigators^Winawer",
  "ProtocolName": "cmrr_mbepi_s6_2mm_66sl_PA_task-bar1",
  "PulseSequenceDetails": "%CustomerSeq%\\cmrr_mbep2d_bold",
  "ReceiveCoilActiveElements": "HC1-7",
  "ReceiveCoilName": "HeadNeck_64",
  "ReconMatrixPE": 104,
  "RepetitionTime": 1,
  "SAR": 0.0664848,
  "ScanOptions": "FS",
  "ScanningSequence": "EP",
  "SequenceName": "epfid2d1_104",
  "SequenceVariant": "SK\\SS",
  "SeriesDescription": "cmrr_mbepi_s6_2mm_66sl_PA_task-bar1",
  "SeriesNumber": 8,
  "ShimSetting": [313, -12633, -8415, 506, -40, -69, -63, 41],
  "SliceThickness": 2,
  "SliceTiming": [0, 0.535, 0.09, 0.625, 0.18, 0.7125, 0.2675, 0.8025, 0.3575, 0.8925, 0.445, 0, 0.535, 0.09, 0.625, 0.18, 0.7125, 0.2675, 0.8025, 0.3575, 0.8925, 0.445, 0, 0.535, 0.09, 0.625, 0.18, 0.7125, 0.2675, 0.8025, 0.3575, 0.8925, 0.445, 0, 0.535, 0.09, 0.625, 0.18, 0.7125, 0.2675, 0.8025, 0.3575, 0.8925, 0.445, 0, 0.535, 0.09, 0.625, 0.18, 0.7125, 0.2675, 0.8025, 0.3575, 0.8925, 0.445, 0, 0.535, 0.09, 0.625, 0.18, 0.7125, 0.2675, 0.8025, 0.3575, 0.8925, 0.445],
  "SoftwareVersions": "syngo MR E11",
  "SpacingBetweenSlices": 2,
  "StationName": "AWP166018",
  "TaskName": "bar1",
  "TotalReadoutTime": 0.060771,
  "TxRefAmp": 208.916,
  "VendorReportedEchoSpacing": 0.00059,
  "WipMemBlock": "be896549-ab31-4f90-9d5a-203e67746095||Sequence: R016 ve11c/master r/8780670; Nov 27 2017 15:05:12 by eja",
  "dcmmeta_affine": [
    [-1.9974409341812134, 0.000697207055054605, 0.10114032030105591, 103.11198425292969],
    [-0.024548836052417755, 1.93680739402771, -0.49817129969596863, -69.49015045166016],
    [0.09811832010746002, 0.49877530336380005, 1.9343205690383911, -79.0192642211914],
    [0.0, 0.0, 0.0, 1.0]
],
  "dcmmeta_reorient_transform": [
    [0.0, -1.0, 0.0, 103.0],
    [1.0, 0.0, 0.0, 0.0],
    [0.0, 0.0, 1.0, 0.0],
    [0.0, 0.0, 0.0, 1.0]
],
  "dcmmeta_shape": [104, 104, 66, 300],
  "dcmmeta_slice_dim": 2,
  "dcmmeta_version": 0.6,
  "global": {
    "const": {
      "AccessionNumber": "Leesud5n",
      "AcquisitionMatrix": [104, 0, 0, 104],
      "AngioFlag": "N",
      "BitsAllocated": 16,
      "BitsStored": 16,
      "BodyPartExamined": "BRAIN",
      "Columns": 936,
      "EchoNumbers": 1,
      "EchoTime": 37.6,
      "EchoTrainLength": 104,
      "FlipAngle": 68.0,
      "HighBit": 15,
      "ImageOrientationPatient": [0.99872045012461, 0.01227441760429, 0.0490591599538, 0.00034860351848, 0.96840367552376, -0.249387649469],
      "ImagePositionPatient": [-934.40925138742, -945.92517795594, 139.02789389005],
      "ImageType": [
        "ORIGINAL",
        "PRIMARY",
        "M",
        "MB",
        "ND",
        "MOSAIC"
],
      "ImagedNucleus": "1H",
      "ImagingFrequency": 123.196819,
      "InPlanePhaseEncodingDirection": "COL",
      "MRAcquisitionType": "2D",
      "MagneticFieldStrength": 3.0,
      "Manufacturer": "SIEMENS",
      "ManufacturerModelName": "Prisma",
      "Modality": "MR",
      "NumberOfAverages": 1.0,
      "NumberOfPhaseEncodingSteps": 104,
      "PercentPhaseFieldOfView": 100.0,
      "PercentSampling": 100.0,
      "PerformedProcedureStepStartTime": "103851.791000",
      "PhotometricInterpretation": "MONOCHROME2",
      "PixelBandwidth": 2290.0,
      "PixelRepresentation": 0,
      "PixelSpacing": [2.0, 2.0],
      "ProtocolName": "cmrr_mbepi_s6_2mm_66sl_PA_task-bar1",
      "RepetitionTime": 1000.0,
      "Rows": 936,
      "SAR": 0.06648477355189,
      "SamplesPerPixel": 1,
      "ScanOptions": "FS",
      "ScanningSequence": "EP",
      "SequenceName": "epfid2d1_104",
      "SequenceVariant": [
        "SK",
        "SS"
],
      "SeriesDescription": "cmrr_mbepi_s6_2mm_66sl_PA_task-bar1",
      "SeriesNumber": 8,
      "SeriesTime": "111849.797000",
      "SliceLocation": -53.900905065558,
      "SliceThickness": 2.0,
      "SmallestImagePixelValue": 0,
      "SoftwareVersions": "syngo MR E11",
      "SpacingBetweenSlices": 2.0000000354078,
      "SpecificCharacterSet": "ISO_IR 100",
      "StudyID": "1",
      "StudyTime": "103851.730000",
      "TransmitCoilName": "Body",
      "VariableFlipAngleFlag": "N",
      "WindowCenterWidthExplanation": "Algo1",
      "dBdt": 0.0},
    "slices": {}
  },
  "time": {
    "samples": {
      "AcquisitionNumber": [1, 2, 3, 4, 5, 6, 7, 8, 9, 10, 11, 12, 13, 14, 15, 16, 17, 18, 19, 20, 21, 22, 23, 24, 25, 26, 27, 28, 29, 30, 31, 32, 33, 34, 35, 36, 37, 38, 39, 40, 41, 42, 43, 44, 45, 46, 47, 48, 49, 50, 51, 52, 53, 54, 55, 56, 57, 58, 59, 60, 61, 62, 63, 64, 65, 66, 67, 68, 69, 70, 71, 72, 73, 74, 75, 76, 77, 78, 79, 80, 81, 82, 83, 84, 85, 86, 87, 88, 89, 90, 91, 92, 93, 94, 95, 96, 97, 98, 99, 100, 101, 102, 103, 104, 105, 106, 107, 108, 109, 110, 111, 112, 113, 114, 115, 116, 117, 118, 119, 120, 121, 122, 123, 124, 125, 126, 127, 128, 129, 130, 131, 132, 133, 134, 135, 136, 137, 138, 139, 140, 141, 142, 143, 144, 145, 146, 147, 148, 149, 150, 151, 152, 153, 154, 155, 156, 157, 158, 159, 160, 161, 162, 163, 164, 165, 166, 167, 168, 169, 170, 171, 172, 173, 174, 175, 176, 177, 178, 179, 180, 181, 182, 183, 184, 185, 186, 187, 188, 189, 190, 191, 192, 193, 194, 195, 196, 197, 198, 199, 200, 201, 202, 203, 204, 205, 206, 207, 208, 209, 210, 211, 212, 213, 214, 215, 216, 217, 218, 219, 220, 221, 222, 223, 224, 225, 226, 227, 228, 229, 230, 231, 232, 233, 234, 235, 236, 237, 238, 239, 240, 241, 242, 243, 244, 245, 246, 247, 248, 249, 250, 251, 252, 253, 254, 255, 256, 257, 258, 259, 260, 261, 262, 263, 264, 265, 266, 267, 268, 269, 270, 271, 272, 273, 274, 275, 276, 277, 278, 279, 280, 281, 282, 283, 284, 285, 286, 287, 288, 289, 290, 291, 292, 293, 294, 295, 296, 297, 298, 299, 300],
      "AcquisitionTime": ["111739.247500", "111740.247500", "111741.247500", "111742.247500", "111743.247500", "111744.247500", "111745.247500", "111746.247500", "111747.247500", "111748.247500", "111749.247500", "111750.247500", "111751.247500", "111752.247500", "111753.247500", "111754.247500", "111755.247500", "111756.247500", "111757.247500", "111758.247500", "111759.247500", "111800.247500", "111801.247500", "111802.247500", "111803.247500", "111804.247500", "111805.247500", "111806.247500", "111807.247500", "111808.247500", "111809.247500", "111810.247500", "111811.247500", "111812.247500", "111813.247500", "111814.247500", "111815.247500", "111816.247500", "111817.247500", "111818.247500", "111819.247500", "111820.247500", "111821.247500", "111822.247500", "111823.247500", "111824.247500", "111825.247500", "111826.247500", "111827.247500", "111828.247500", "111829.247500", "111830.247500", "111831.247500", "111832.247500", "111833.247500", "111834.247500", "111835.247500", "111836.247500", "111837.247500", "111838.247500", "111839.247500", "111840.247500", "111841.247500", "111842.247500", "111843.247500", "111844.247500", "111845.247500", "111846.247500", "111847.247500", "111848.247500", "111849.247500", "111850.247500", "111851.247500", "111852.247500", "111853.247500", "111854.247500", "111855.247500", "111856.247500", "111857.247500", "111858.247500", "111859.247500", "111900.247500", "111901.247500", "111902.247500", "111903.247500", "111904.247500", "111905.247500", "111906.247500", "111907.247500", "111908.247500", "111909.247500", "111910.247500", "111911.247500", "111912.247500", "111913.247500", "111914.247500", "111915.247500", "111916.247500", "111917.247500", "111918.247500", "111919.247500", "111920.247500", "111921.247500", "111922.247500", "111923.247500", "111924.247500", "111925.247500", "111926.247500", "111927.247500", "111928.247500", "111929.247500", "111930.247500", "111931.247500", "111932.247500", "111933.247500", "111934.247500", "111935.247500", "111936.247500", "111937.247500", "111938.247500", "111939.247500", "111940.247500", "111941.247500", "111942.247500", "111943.247500", "111944.247500", "111945.247500", "111946.247500", "111947.247500", "111948.247500", "111949.247500", "111950.247500", "111951.247500", "111952.247500", "111953.247500", "111954.247500", "111955.247500", "111956.247500", "111957.247500", "111958.247500", "111959.247500", "112000.247500", "112001.247500", "112002.247500", "112003.247500", "112004.247500", "112005.247500", "112006.247500", "112007.247500", "112008.247500", "112009.247500", "112010.247500", "112011.247500", "112012.247500", "112013.247500", "112014.247500", "112015.247500", "112016.247500", "112017.247500", "112018.247500", "112019.247500", "112020.247500", "112021.247500", "112022.247500", "112023.247500", "112024.247500", "112025.247500", "112026.247500", "112027.247500", "112028.247500", "112029.247500", "112030.247500", "112031.247500", "112032.247500", "112033.247500", "112034.247500", "112035.247500", "112036.247500", "112037.247500", "112038.247500", "112039.247500", "112040.247500", "112041.247500", "112042.247500", "112043.247500", "112044.247500", "112045.247500", "112046.247500", "112047.247500", "112048.247500", "112049.247500", "112050.247500", "112051.247500", "112052.247500", "112053.247500", "112054.247500", "112055.247500", "112056.247500", "112057.247500", "112058.247500", "112059.247500", "112100.247500", "112101.247500", "112102.247500", "112103.247500", "112104.247500", "112105.247500", "112106.247500", "112107.247500", "112108.247500", "112109.247500", "112110.247500", "112111.247500", "112112.247500", "112113.247500", "112114.247500", "112115.247500", "112116.247500", "112117.247500", "112118.247500", "112119.247500", "112120.247500", "112121.247500", "112122.247500", "112123.247500", "112124.247500", "112125.247500", "112126.247500", "112127.247500", "112128.247500", "112129.247500", "112130.247500", "112131.247500", "112132.247500", "112133.247500", "112134.247500", "112135.247500", "112136.247500", "112137.247500", "112138.247500", "112139.247500", "112140.247500", "112141.247500", "112142.247500", "112143.247500", "112144.247500", "112145.247500", "112146.247500", "112147.247500", "112148.247500", "112149.247500", "112150.247500", "112151.247500", "112152.247500", "112153.247500", "112154.247500", "112155.247500", "112156.247500", "112157.247500", "112158.247500", "112159.247500", "112200.247500", "112201.247500", "112202.247500", "112203.247500", "112204.247500", "112205.247500", "112206.247500", "112207.247500", "112208.247500", "112209.247500", "112210.247500", "112211.247500", "112212.247500", "112213.247500", "112214.247500", "112215.247500", "112216.247500", "112217.247500", "112218.247500", "112219.247500", "112220.247500", "112221.247500", "112222.247500", "112223.247500", "112224.247500", "112225.247500", "112226.247500", "112227.247500", "112228.247500", "112229.247500", "112230.247500", "112231.247500", "112232.247500", "112233.247500", "112234.247500", "112235.247500", "112236.247500", "112237.247500", "112238.247500"],
      "ContentTime": ["111849.800000", "111849.804000", "111849.807000", "111849.810000", "111849.813000", "111849.816000", "111849.819000", "111849.822000", "111849.825000", "111849.828000", "111849.837000", "111849.840000", "111849.843000", "111849.846000", "111849.849000", "111849.852000", "111849.855000", "111849.858000", "111849.861000", "111849.864000", "111849.867000", "111849.870000", "111849.873000", "111849.876000", "111849.879000", "111849.882000", "111849.885000", "111849.888000", "111909.758000", "111909.761000", "111909.764000", "111909.767000", "111909.770000", "111909.773000", "111909.776000", "111909.779000", "111909.782000", "111909.785000", "111909.819000", "111909.822000", "111909.825000", "111909.828000", "111909.831000", "111909.834000", "111909.837000", "111909.840000", "111909.843000", "111909.846000", "111909.849000", "111909.852000", "111909.855000", "111909.857000", "111909.861000", "111909.863000", "111909.866000", "111909.877000", "111909.880000", "111929.758000", "111929.761000", "111929.764000", "111929.767000", "111929.770000", "111929.773000", "111929.776000", "111929.779000", "111929.782000", "111929.785000", "111929.788000", "111929.791000", "111929.794000", "111929.797000", "111929.800000", "111929.803000", "111929.806000", "111929.809000", "111929.812000", "111929.815000", "111929.818000", "111929.820000", "111929.823000", "111929.826000", "111929.829000", "111929.832000", "111929.835000", "111929.838000", "111949.758000", "111949.761000", "111949.764000", "111949.767000", "111949.770000", "111949.773000", "111949.776000", "111949.779000", "111949.782000", "111949.800000", "111949.803000", "111949.806000", "111949.809000", "111949.812000", "111949.815000", "111949.818000", "111949.821000", "111949.824000", "111949.827000", "111949.830000", "111949.833000", "111949.836000", "111949.839000", "111949.841000", "111949.844000", "111949.847000", "111949.850000", "111949.853000", "112009.758000", "112009.761000", "112009.764000", "112009.767000", "112009.770000", "112009.773000", "112009.776000", "112009.779000", "112009.782000", "112009.785000", "112009.788000", "112009.791000", "112009.794000", "112009.797000", "112009.799000", "112009.802000", "112009.805000", "112009.808000", "112009.811000", "112009.814000", "112009.817000", "112009.820000", "112009.823000", "112009.826000", "112009.829000", "112009.832000", "112009.835000", "112009.838000", "112009.841000", "112029.758000", "112029.761000", "112029.764000", "112029.767000", "112029.770000", "112029.773000", "112029.776000", "112029.779000", "112029.782000", "112029.785000", "112029.788000", "112029.791000", "112029.794000", "112029.797000", "112029.800000", "112029.803000", "112029.806000", "112029.809000", "112029.812000", "112029.815000", "112029.818000", "112029.820000", "112029.823000", "112029.826000", "112029.829000", "112029.832000", "112029.835000", "112029.838000", "112049.758000", "112049.761000", "112049.764000", "112049.767000", "112049.770000", "112049.773000", "112049.776000", "112049.779000", "112049.782000", "112049.827000", "112049.830000", "112049.833000", "112049.836000", "112049.839000", "112049.842000", "112049.844000", "112049.847000", "112049.850000", "112049.853000", "112049.856000", "112109.758000", "112109.761000", "112109.764000", "112109.767000", "112109.770000", "112109.773000", "112109.776000", "112109.779000", "112109.782000", "112109.793000", "112109.796000", "112109.799000", "112109.802000", "112109.805000", "112109.808000", "112109.811000", "112109.814000", "112109.817000", "112109.820000", "112109.823000", "112129.758000", "112129.761000", "112129.764000", "112129.767000", "112129.770000", "112129.773000", "112129.776000", "112129.779000", "112129.782000", "112129.785000", "112129.788000", "112129.791000", "112129.794000", "112129.797000", "112129.800000", "112129.803000", "112129.805000", "112129.808000", "112129.811000", "112129.814000", "112149.758000", "112149.761000", "112149.764000", "112149.767000", "112149.770000", "112149.773000", "112149.776000", "112149.779000", "112149.782000", "112149.785000", "112149.788000", "112149.791000", "112149.794000", "112149.797000", "112149.800000", "112149.803000", "112149.805000", "112149.808000", "112149.811000", "112149.814000", "112209.758000", "112209.761000", "112209.764000", "112209.767000", "112209.770000", "112209.773000", "112209.776000", "112209.779000", "112209.782000", "112209.785000", "112209.788000", "112209.791000", "112209.794000", "112209.797000", "112209.800000", "112209.802000", "112209.805000", "112209.808000", "112209.811000", "112209.814000", "112229.758000", "112229.761000", "112229.764000", "112229.767000", "112229.770000", "112229.773000", "112229.776000", "112229.779000", "112229.782000", "112229.824000", "112229.827000", "112229.830000", "112229.833000", "112229.836000", "112229.839000", "112229.842000", "112229.845000", "112229.848000", "112229.850000", "112229.853000", "112239.676000", "112239.680000", "112239.683000", "112239.686000", "112239.689000", "112239.691000", "112239.695000", "112239.697000", "112239.700000", "112239.703000"],
      "InstanceCreationTime": ["111849.800000", "111849.804000", "111849.807000", "111849.810000", "111849.813000", "111849.816000", "111849.819000", "111849.822000", "111849.825000", "111849.828000", "111849.837000", "111849.840000", "111849.843000", "111849.846000", "111849.849000", "111849.852000", "111849.855000", "111849.858000", "111849.861000", "111849.864000", "111849.867000", "111849.870000", "111849.873000", "111849.876000", "111849.879000", "111849.882000", "111849.885000", "111849.888000", "111909.758000", "111909.761000", "111909.764000", "111909.767000", "111909.770000", "111909.773000", "111909.776000", "111909.779000", "111909.782000", "111909.785000", "111909.819000", "111909.822000", "111909.825000", "111909.828000", "111909.831000", "111909.834000", "111909.837000", "111909.840000", "111909.843000", "111909.846000", "111909.849000", "111909.852000", "111909.855000", "111909.857000", "111909.861000", "111909.863000", "111909.866000", "111909.877000", "111909.880000", "111929.758000", "111929.761000", "111929.764000", "111929.767000", "111929.770000", "111929.773000", "111929.776000", "111929.779000", "111929.782000", "111929.785000", "111929.788000", "111929.791000", "111929.794000", "111929.797000", "111929.800000", "111929.803000", "111929.806000", "111929.809000", "111929.812000", "111929.815000", "111929.818000", "111929.820000", "111929.823000", "111929.826000", "111929.829000", "111929.832000", "111929.835000", "111929.838000", "111949.758000", "111949.761000", "111949.764000", "111949.767000", "111949.770000", "111949.773000", "111949.776000", "111949.779000", "111949.782000", "111949.800000", "111949.803000", "111949.806000", "111949.809000", "111949.812000", "111949.815000", "111949.818000", "111949.821000", "111949.824000", "111949.827000", "111949.830000", "111949.833000", "111949.836000", "111949.839000", "111949.841000", "111949.844000", "111949.847000", "111949.850000", "111949.853000", "112009.758000", "112009.761000", "112009.764000", "112009.767000", "112009.770000", "112009.773000", "112009.776000", "112009.779000", "112009.782000", "112009.785000", "112009.788000", "112009.791000", "112009.794000", "112009.797000", "112009.799000", "112009.802000", "112009.805000", "112009.808000", "112009.811000", "112009.814000", "112009.817000", "112009.820000", "112009.823000", "112009.826000", "112009.829000", "112009.832000", "112009.835000", "112009.838000", "112009.841000", "112029.758000", "112029.761000", "112029.764000", "112029.767000", "112029.770000", "112029.773000", "112029.776000", "112029.779000", "112029.782000", "112029.785000", "112029.788000", "112029.791000", "112029.794000", "112029.797000", "112029.800000", "112029.803000", "112029.806000", "112029.809000", "112029.812000", "112029.815000", "112029.818000", "112029.820000", "112029.823000", "112029.826000", "112029.829000", "112029.832000", "112029.835000", "112029.838000", "112049.758000", "112049.761000", "112049.764000", "112049.767000", "112049.770000", "112049.773000", "112049.776000", "112049.779000", "112049.782000", "112049.827000", "112049.830000", "112049.833000", "112049.836000", "112049.839000", "112049.842000", "112049.844000", "112049.847000", "112049.850000", "112049.853000", "112049.856000", "112109.758000", "112109.761000", "112109.764000", "112109.767000", "112109.770000", "112109.773000", "112109.776000", "112109.779000", "112109.782000", "112109.793000", "112109.796000", "112109.799000", "112109.802000", "112109.805000", "112109.808000", "112109.811000", "112109.814000", "112109.817000", "112109.820000", "112109.823000", "112129.758000", "112129.761000", "112129.764000", "112129.767000", "112129.770000", "112129.773000", "112129.776000", "112129.779000", "112129.782000", "112129.785000", "112129.788000", "112129.791000", "112129.794000", "112129.797000", "112129.800000", "112129.803000", "112129.805000", "112129.808000", "112129.811000", "112129.814000", "112149.758000", "112149.761000", "112149.764000", "112149.767000", "112149.770000", "112149.773000", "112149.776000", "112149.779000", "112149.782000", "112149.785000", "112149.788000", "112149.791000", "112149.794000", "112149.797000", "112149.800000", "112149.803000", "112149.805000", "112149.808000", "112149.811000", "112149.814000", "112209.758000", "112209.761000", "112209.764000", "112209.767000", "112209.770000", "112209.773000", "112209.776000", "112209.779000", "112209.782000", "112209.785000", "112209.788000", "112209.791000", "112209.794000", "112209.797000", "112209.800000", "112209.802000", "112209.805000", "112209.808000", "112209.811000", "112209.814000", "112229.758000", "112229.761000", "112229.764000", "112229.767000", "112229.770000", "112229.773000", "112229.776000", "112229.779000", "112229.782000", "112229.824000", "112229.827000", "112229.830000", "112229.833000", "112229.836000", "112229.839000", "112229.842000", "112229.845000", "112229.848000", "112229.850000", "112229.853000", "112239.676000", "112239.680000", "112239.683000", "112239.686000", "112239.689000", "112239.691000", "112239.695000", "112239.697000", "112239.700000", "112239.703000"],
      "InstanceNumber": [1, 2, 3, 4, 5, 6, 7, 8, 9, 10, 11, 12, 13, 14, 15, 16, 17, 18, 19, 20, 21, 22, 23, 24, 25, 26, 27, 28, 29, 30, 31, 32, 33, 34, 35, 36, 37, 38, 39, 40, 41, 42, 43, 44, 45, 46, 47, 48, 49, 50, 51, 52, 53, 54, 55, 56, 57, 58, 59, 60, 61, 62, 63, 64, 65, 66, 67, 68, 69, 70, 71, 72, 73, 74, 75, 76, 77, 78, 79, 80, 81, 82, 83, 84, 85, 86, 87, 88, 89, 90, 91, 92, 93, 94, 95, 96, 97, 98, 99, 100, 101, 102, 103, 104, 105, 106, 107, 108, 109, 110, 111, 112, 113, 114, 115, 116, 117, 118, 119, 120, 121, 122, 123, 124, 125, 126, 127, 128, 129, 130, 131, 132, 133, 134, 135, 136, 137, 138, 139, 140, 141, 142, 143, 144, 145, 146, 147, 148, 149, 150, 151, 152, 153, 154, 155, 156, 157, 158, 159, 160, 161, 162, 163, 164, 165, 166, 167, 168, 169, 170, 171, 172, 173, 174, 175, 176, 177, 178, 179, 180, 181, 182, 183, 184, 185, 186, 187, 188, 189, 190, 191, 192, 193, 194, 195, 196, 197, 198, 199, 200, 201, 202, 203, 204, 205, 206, 207, 208, 209, 210, 211, 212, 213, 214, 215, 216, 217, 218, 219, 220, 221, 222, 223, 224, 225, 226, 227, 228, 229, 230, 231, 232, 233, 234, 235, 236, 237, 238, 239, 240, 241, 242, 243, 244, 245, 246, 247, 248, 249, 250, 251, 252, 253, 254, 255, 256, 257, 258, 259, 260, 261, 262, 263, 264, 265, 266, 267, 268, 269, 270, 271, 272, 273, 274, 275, 276, 277, 278, 279, 280, 281, 282, 283, 284, 285, 286, 287, 288, 289, 290, 291, 292, 293, 294, 295, 296, 297, 298, 299, 300],
      "LargestImagePixelValue": [34223, 33281, 33364, 32889, 32631, 32827, 32585, 32320, 32893, 32623, 32169, 32347, 32676, 32184, 32884, 33689, 32596, 32421, 33189, 31932, 32528, 32494, 31689, 32238, 32388, 31620, 32217, 32879, 31501, 32000, 32493, 31872, 32053, 32580, 32035, 32354, 32344, 32287, 31846, 32873, 32259, 32139, 32664, 31686, 31695, 32344, 31462, 31972, 32477, 31675, 32284, 32113, 31968, 31729, 32088, 31722, 31831, 32565, 31931, 31806, 32530, 32436, 31728, 31840, 32397, 31932, 32272, 32063, 32006, 32052, 32446, 31756, 32069, 31915, 31652, 33065, 31789, 32284, 32845, 31353, 32209, 32444, 31627, 32263, 32159, 31552, 31589, 32300, 31563, 31612, 31663, 31977, 31657, 32226, 31717, 31446, 32452, 32237, 32001, 32471, 32418, 32146, 32315, 31979, 31401, 32571, 32591, 32259, 32091, 32071, 31543, 31672, 32022, 31713, 31566, 31854, 31804, 31986, 31958, 31803, 31262, 31573, 32146, 32377, 32308, 31880, 32058, 32340, 32228, 31947, 32065, 32213, 32342, 32561, 32058, 32213, 32207, 31947, 31808, 31762, 32178, 31729, 31866, 31995, 31836, 32160, 32055, 32374, 32520, 31853, 31615, 31786, 31808, 31684, 32057, 32220, 31841, 32222, 32242, 31956, 32340, 31976, 31814, 31784, 31870, 31806, 31814, 31705, 31662, 32495, 32435, 32217, 32313, 32133, 31915, 32787, 32092, 32202, 31915, 32107, 32862, 33161, 33496, 33722, 32709, 32721, 33003, 32792, 32324, 32547, 33076, 32049, 32200, 32888, 32306, 32158, 32380, 32131, 31675, 31838, 31713, 32063, 32360, 32243, 32590, 32541, 32533, 32005, 31827, 32028, 32347, 32130, 31703, 31913, 31716, 32173, 32792, 31975, 31694, 31866, 32173, 31901, 31526, 32448, 32345, 32190, 32359, 32756, 32244, 31875, 32132, 32574, 31699, 32191, 32622, 31680, 32362, 32799, 32577, 33114, 32071, 32407, 32559, 31755, 31876, 32251, 32599, 32870, 32294, 31870, 32258, 32230, 32928, 32386, 32304, 32193, 32437, 31485, 31503, 32160, 31813, 32047, 32091, 32002, 31789, 32403, 31937, 31724, 31986, 31812, 31923, 31771, 32380, 32500, 31977, 32146, 32054, 32221, 33116, 32416, 32561, 32419, 32264, 31822, 32551, 33501, 32570, 32396, 32855, 33374, 32843, 32878, 33034, 32172, 32728, 32811, 32784, 32633, 32686, 33237],
      "WindowCenter": [9821.0, 9795.0, 9778.0, 9777.0, 9778.0, 9777.0, 9771.0, 9763.0, 9769.0, 9762.0, 9756.0, 9748.0, 9752.0, 9752.0, 9759.0, 9779.0, 9770.0, 9770.0, 9787.0, 9779.0, 9778.0, 9785.0, 9777.0, 9780.0, 9774.0, 9762.0, 9771.0, 9776.0, 9761.0, 9765.0, 9776.0, 9780.0, 9783.0, 9797.0, 9801.0, 9798.0, 9791.0, 9790.0, 9781.0, 9785.0, 9780.0, 9772.0, 9770.0, 9760.0, 9759.0, 9771.0, 9768.0, 9773.0, 9778.0, 9767.0, 9766.0, 9759.0, 9756.0, 9749.0, 9749.0, 9750.0, 9752.0, 9763.0, 9766.0, 9762.0, 9772.0, 9766.0, 9768.0, 9780.0, 9781.0, 9781.0, 9780.0, 9776.0, 9789.0, 9789.0, 9789.0, 9783.0, 9775.0, 9775.0, 9769.0, 9776.0, 9758.0, 9763.0, 9761.0, 9746.0, 9754.0, 9754.0, 9750.0, 9754.0, 9748.0, 9741.0, 9742.0, 9760.0, 9758.0, 9765.0, 9766.0, 9758.0, 9752.0, 9761.0, 9751.0, 9750.0, 9762.0, 9764.0, 9765.0, 9764.0, 9770.0, 9763.0, 9764.0, 9764.0, 9759.0, 9770.0, 9763.0, 9761.0, 9754.0, 9756.0, 9757.0, 9758.0, 9769.0, 9766.0, 9773.0, 9768.0, 9755.0, 9759.0, 9759.0, 9746.0, 9747.0, 9753.0, 9772.0, 9774.0, 9781.0, 9776.0, 9777.0, 9776.0, 9777.0, 9777.0, 9777.0, 9782.0, 9781.0, 9780.0, 9774.0, 9774.0, 9767.0, 9767.0, 9753.0, 9753.0, 9757.0, 9745.0, 9747.0, 9754.0, 9758.0, 9765.0, 9759.0, 9757.0, 9756.0, 9749.0, 9743.0, 9736.0, 9741.0, 9729.0, 9733.0, 9731.0, 9732.0, 9739.0, 9740.0, 9742.0, 9749.0, 9748.0, 9744.0, 9745.0, 9752.0, 9753.0, 9751.0, 9743.0, 9742.0, 9747.0, 9748.0, 9755.0, 9758.0, 9759.0, 9766.0, 9771.0, 9767.0, 9775.0, 9784.0, 9784.0, 9795.0, 9802.0, 9807.0, 9801.0, 9787.0, 9779.0, 9777.0, 9769.0, 9763.0, 9771.0, 9784.0, 9775.0, 9781.0, 9780.0, 9772.0, 9766.0, 9772.0, 9760.0, 9745.0, 9743.0, 9750.0, 9752.0, 9763.0, 9772.0, 9773.0, 9765.0, 9772.0, 9768.0, 9757.0, 9767.0, 9767.0, 9762.0, 9755.0, 9768.0, 9769.0, 9769.0, 9771.0, 9759.0, 9747.0, 9751.0, 9756.0, 9751.0, 9754.0, 9767.0, 9775.0, 9785.0, 9785.0, 9775.0, 9762.0, 9760.0, 9760.0, 9759.0, 9755.0, 9768.0, 9782.0, 9782.0, 9788.0, 9793.0, 9780.0, 9777.0, 9772.0, 9769.0, 9760.0, 9745.0, 9745.0, 9758.0, 9765.0, 9764.0, 9760.0, 9760.0, 9765.0, 9759.0, 9769.0, 9751.0, 9757.0, 9751.0, 9751.0, 9745.0, 9737.0, 9742.0, 9738.0, 9744.0, 9744.0, 9751.0, 9746.0, 9750.0, 9738.0, 9738.0, 9744.0, 9746.0, 9747.0, 9745.0, 9744.0, 9748.0, 9738.0, 9746.0, 9762.0, 9767.0, 9773.0, 9762.0, 9753.0, 9750.0, 9742.0, 9741.0, 9756.0, 9776.0, 9775.0, 9777.0, 9773.0, 9765.0, 9758.0, 9755.0, 9748.0, 9737.0, 9749.0, 9763.0, 9766.0, 9774.0, 9788.0, 9796.0],
