{
  "AcquisitionMatrixPE": 104,
  "AcquisitionNumber": 1,
  "AcquisitionTime": "11:35:45.115000",
  "BandwidthPerPixelPhaseEncode": 16.297,
  "BaseResolution": 104,
  "BodyPartExamined": "BRAIN",
  "ConsistencyInfo": "N4_VE11C_LATEST_20160120",
  "ConversionSoftware": "dcm2niix",
  "ConversionSoftwareVersion": "v1.0.20210317",
  "DerivedVendorReportedEchoSpacing": 0.000590009,
  "DeviceSerialNumber": "166018",
  "DwellTime": 2.1e-06,
  "EchoTime": 0.0376,
  "EchoTrainLength": 104,
  "EffectiveEchoSpacing": 0.000590009,
  "FlipAngle": 68,
  "ImageComments": "Unaliased MB6/PE3/LB",
  "ImageOrientationPatientDICOM": [0.99872, 0.0122744, 0.0490592, 0.000348604, 0.968404, -0.249388],
  "ImageType": [
    "ORIGINAL",
    "PRIMARY",
    "M",
    "MB",
    "ND",
    "MOSAIC"
],
  "ImagingFrequency": 123.197,
  "InPlanePhaseEncodingDirectionDICOM": "COL",
  "InstitutionAddress": "Washington Place 6,NYC,NYC,US,10003",
  "InstitutionName": "NYU - CBI",
  "InstitutionalDepartmentName": "Department",
  "MRAcquisitionType": "2D",
  "MagneticFieldStrength": 3,
  "Manufacturer": "Siemens",
  "ManufacturersModelName": "Prisma",
  "Modality": "MR",
  "MultibandAccelerationFactor": 6,
  "PartialFourier": 1,
  "PatientPosition": "HFS",
  "PercentPhaseFOV": 100,
  "PercentSampling": 100,
  "PhaseEncodingDirection": "j",
  "PhaseEncodingSteps": 104,
  "PhaseResolution": 1,
  "PixelBandwidth": 2290,
  "ProcedureStepDescription": "Investigators^Winawer",
  "ProtocolName": "cmrr_mbepi_s6_2mm_66sl_PA_task-wedgering2",
  "PulseSequenceDetails": "%CustomerSeq%\\cmrr_mbep2d_bold",
  "ReceiveCoilActiveElements": "HC1-7",
  "ReceiveCoilName": "HeadNeck_64",
  "ReconMatrixPE": 104,
  "RepetitionTime": 1,
  "SAR": 0.0664848,
  "ScanOptions": "FS",
  "ScanningSequence": "EP",
  "SequenceName": "epfid2d1_104",
  "SequenceVariant": "SK\\SS",
  "SeriesDescription": "cmrr_mbepi_s6_2mm_66sl_PA_task-wedgering2",
  "SeriesNumber": 14,
  "ShimSetting": [313, -12633, -8415, 506, -40, -69, -63, 41],
  "SliceThickness": 2,
  "SliceTiming": [0, 0.535, 0.09, 0.625, 0.1775, 0.7125, 0.2675, 0.8025, 0.3575, 0.89, 0.445, 0, 0.535, 0.09, 0.625, 0.1775, 0.7125, 0.2675, 0.8025, 0.3575, 0.89, 0.445, 0, 0.535, 0.09, 0.625, 0.1775, 0.7125, 0.2675, 0.8025, 0.3575, 0.89, 0.445, 0, 0.535, 0.09, 0.625, 0.1775, 0.7125, 0.2675, 0.8025, 0.3575, 0.89, 0.445, 0, 0.535, 0.09, 0.625, 0.1775, 0.7125, 0.2675, 0.8025, 0.3575, 0.89, 0.445, 0, 0.535, 0.09, 0.625, 0.1775, 0.7125, 0.2675, 0.8025, 0.3575, 0.89, 0.445],
  "SoftwareVersions": "syngo MR E11",
  "SpacingBetweenSlices": 2,
  "StationName": "AWP166018",
  "TaskName": "wedgering2",
  "TotalReadoutTime": 0.060771,
  "TxRefAmp": 208.916,
  "VendorReportedEchoSpacing": 0.00059,
  "WipMemBlock": "31218fd6-a7e9-4f00-8da7-9b87e5b4bda6||Sequence: R016 ve11c/master r/8780670; Nov 27 2017 15:05:12 by eja",
  "dcmmeta_affine": [
    [-1.9974409341812134, 0.000697207055054605, 0.10114032030105591, 103.11198425292969],
    [-0.024548836052417755, 1.93680739402771, -0.49817129969596863, -69.49015045166016],
    [0.09811832010746002, 0.49877530336380005, 1.9343205690383911, -79.0192642211914],
    [0.0, 0.0, 0.0, 1.0]
],
  "dcmmeta_reorient_transform": [
    [0.0, -1.0, 0.0, 103.0],
    [1.0, 0.0, 0.0, 0.0],
    [0.0, 0.0, 1.0, 0.0],
    [0.0, 0.0, 0.0, 1.0]
],
  "dcmmeta_shape": [104, 104, 66, 300],
  "dcmmeta_slice_dim": 2,
  "dcmmeta_version": 0.6,
  "global": {
    "const": {
      "AccessionNumber": "Leesud5n",
      "AcquisitionMatrix": [104, 0, 0, 104],
      "AngioFlag": "N",
      "BitsAllocated": 16,
      "BitsStored": 16,
      "BodyPartExamined": "BRAIN",
      "Columns": 936,
      "EchoNumbers": 1,
      "EchoTime": 37.6,
      "EchoTrainLength": 104,
      "FlipAngle": 68.0,
      "HighBit": 15,
      "ImageOrientationPatient": [0.99872045012461, 0.01227441760429, 0.0490591599538, 0.00034860351848, 0.96840367552376, -0.249387649469],
      "ImagePositionPatient": [-934.40925138742, -945.92517795594, 139.02789389005],
      "ImageType": [
        "ORIGINAL",
        "PRIMARY",
        "M",
        "MB",
        "ND",
        "MOSAIC"
],
      "ImagedNucleus": "1H",
      "ImagingFrequency": 123.196832,
      "InPlanePhaseEncodingDirection": "COL",
      "MRAcquisitionType": "2D",
      "MagneticFieldStrength": 3.0,
      "Manufacturer": "SIEMENS",
      "ManufacturerModelName": "Prisma",
      "Modality": "MR",
      "NumberOfAverages": 1.0,
      "NumberOfPhaseEncodingSteps": 104,
      "PercentPhaseFieldOfView": 100.0,
      "PercentSampling": 100.0,
      "PerformedProcedureStepStartTime": "103851.791000",
      "PhotometricInterpretation": "MONOCHROME2",
      "PixelBandwidth": 2290.0,
      "PixelRepresentation": 0,
      "PixelSpacing": [2.0, 2.0],
      "ProtocolName": "cmrr_mbepi_s6_2mm_66sl_PA_task-wedgering2",
      "RepetitionTime": 1000.0,
      "Rows": 936,
      "SAR": 0.06648477355189,
      "SamplesPerPixel": 1,
      "ScanOptions": "FS",
      "ScanningSequence": "EP",
      "SequenceName": "epfid2d1_104",
      "SequenceVariant": [
        "SK",
        "SS"
],
      "SeriesDescription": "cmrr_mbepi_s6_2mm_66sl_PA_task-wedgering2",
      "SeriesNumber": 14,
      "SeriesTime": "113709.782000",
      "SliceLocation": -53.900905065558,
      "SliceThickness": 2.0,
      "SmallestImagePixelValue": 0,
      "SoftwareVersions": "syngo MR E11",
      "SpacingBetweenSlices": 2.0000000354078,
      "SpecificCharacterSet": "ISO_IR 100",
      "StudyID": "1",
      "StudyTime": "103851.730000",
      "TransmitCoilName": "Body",
      "VariableFlipAngleFlag": "N",
      "WindowCenterWidthExplanation": "Algo1",
      "dBdt": 0.0},
    "slices": {}
  },
  "time": {
    "samples": {
      "AcquisitionNumber": [1, 2, 3, 4, 5, 6, 7, 8, 9, 10, 11, 12, 13, 14, 15, 16, 17, 18, 19, 20, 21, 22, 23, 24, 25, 26, 27, 28, 29, 30, 31, 32, 33, 34, 35, 36, 37, 38, 39, 40, 41, 42, 43, 44, 45, 46, 47, 48, 49, 50, 51, 52, 53, 54, 55, 56, 57, 58, 59, 60, 61, 62, 63, 64, 65, 66, 67, 68, 69, 70, 71, 72, 73, 74, 75, 76, 77, 78, 79, 80, 81, 82, 83, 84, 85, 86, 87, 88, 89, 90, 91, 92, 93, 94, 95, 96, 97, 98, 99, 100, 101, 102, 103, 104, 105, 106, 107, 108, 109, 110, 111, 112, 113, 114, 115, 116, 117, 118, 119, 120, 121, 122, 123, 124, 125, 126, 127, 128, 129, 130, 131, 132, 133, 134, 135, 136, 137, 138, 139, 140, 141, 142, 143, 144, 145, 146, 147, 148, 149, 150, 151, 152, 153, 154, 155, 156, 157, 158, 159, 160, 161, 162, 163, 164, 165, 166, 167, 168, 169, 170, 171, 172, 173, 174, 175, 176, 177, 178, 179, 180, 181, 182, 183, 184, 185, 186, 187, 188, 189, 190, 191, 192, 193, 194, 195, 196, 197, 198, 199, 200, 201, 202, 203, 204, 205, 206, 207, 208, 209, 210, 211, 212, 213, 214, 215, 216, 217, 218, 219, 220, 221, 222, 223, 224, 225, 226, 227, 228, 229, 230, 231, 232, 233, 234, 235, 236, 237, 238, 239, 240, 241, 242, 243, 244, 245, 246, 247, 248, 249, 250, 251, 252, 253, 254, 255, 256, 257, 258, 259, 260, 261, 262, 263, 264, 265, 266, 267, 268, 269, 270, 271, 272, 273, 274, 275, 276, 277, 278, 279, 280, 281, 282, 283, 284, 285, 286, 287, 288, 289, 290, 291, 292, 293, 294, 295, 296, 297, 298, 299, 300],
      "AcquisitionTime": ["113545.115000", "113546.115000", "113547.115000", "113548.115000", "113549.115000", "113550.115000", "113551.115000", "113552.115000", "113553.115000", "113554.115000", "113555.115000", "113556.115000", "113557.115000", "113558.115000", "113559.115000", "113600.115000", "113601.115000", "113602.115000", "113603.115000", "113604.115000", "113605.115000", "113606.115000", "113607.115000", "113608.115000", "113609.115000", "113610.115000", "113611.115000", "113612.115000", "113613.115000", "113614.115000", "113615.115000", "113616.115000", "113617.115000", "113618.115000", "113619.115000", "113620.115000", "113621.115000", "113622.115000", "113623.115000", "113624.115000", "113625.115000", "113626.115000", "113627.115000", "113628.115000", "113629.115000", "113630.115000", "113631.115000", "113632.115000", "113633.115000", "113634.115000", "113635.115000", "113636.115000", "113637.115000", "113638.115000", "113639.115000", "113640.115000", "113641.115000", "113642.115000", "113643.115000", "113644.115000", "113645.115000", "113646.115000", "113647.115000", "113648.115000", "113649.115000", "113650.115000", "113651.115000", "113652.115000", "113653.115000", "113654.115000", "113655.115000", "113656.115000", "113657.115000", "113658.115000", "113659.115000", "113700.115000", "113701.115000", "113702.115000", "113703.115000", "113704.115000", "113705.115000", "113706.115000", "113707.115000", "113708.115000", "113709.115000", "113710.115000", "113711.115000", "113712.115000", "113713.115000", "113714.115000", "113715.115000", "113716.115000", "113717.115000", "113718.115000", "113719.115000", "113720.115000", "113721.115000", "113722.115000", "113723.115000", "113724.115000", "113725.115000", "113726.115000", "113727.115000", "113728.115000", "113729.115000", "113730.115000", "113731.115000", "113732.115000", "113733.115000", "113734.115000", "113735.115000", "113736.115000", "113737.115000", "113738.115000", "113739.115000", "113740.115000", "113741.115000", "113742.115000", "113743.115000", "113744.115000", "113745.115000", "113746.115000", "113747.115000", "113748.115000", "113749.115000", "113750.115000", "113751.115000", "113752.115000", "113753.115000", "113754.115000", "113755.115000", "113756.115000", "113757.115000", "113758.115000", "113759.115000", "113800.115000", "113801.115000", "113802.115000", "113803.115000", "113804.115000", "113805.115000", "113806.115000", "113807.115000", "113808.115000", "113809.115000", "113810.115000", "113811.115000", "113812.115000", "113813.115000", "113814.115000", "113815.115000", "113816.115000", "113817.115000", "113818.115000", "113819.115000", "113820.115000", "113821.115000", "113822.115000", "113823.115000", "113824.115000", "113825.115000", "113826.115000", "113827.115000", "113828.115000", "113829.115000", "113830.115000", "113831.115000", "113832.115000", "113833.115000", "113834.115000", "113835.115000", "113836.115000", "113837.115000", "113838.115000", "113839.115000", "113840.115000", "113841.115000", "113842.115000", "113843.115000", "113844.115000", "113845.115000", "113846.115000", "113847.115000", "113848.115000", "113849.115000", "113850.115000", "113851.115000", "113852.115000", "113853.115000", "113854.115000", "113855.115000", "113856.115000", "113857.115000", "113858.115000", "113859.115000", "113900.115000", "113901.115000", "113902.115000", "113903.115000", "113904.115000", "113905.115000", "113906.115000", "113907.115000", "113908.115000", "113909.115000", "113910.115000", "113911.115000", "113912.115000", "113913.115000", "113914.115000", "113915.115000", "113916.115000", "113917.115000", "113918.115000", "113919.115000", "113920.115000", "113921.115000", "113922.115000", "113923.115000", "113924.115000", "113925.115000", "113926.115000", "113927.115000", "113928.115000", "113929.115000", "113930.115000", "113931.115000", "113932.115000", "113933.115000", "113934.115000", "113935.115000", "113936.115000", "113937.115000", "113938.115000", "113939.115000", "113940.115000", "113941.115000", "113942.115000", "113943.115000", "113944.115000", "113945.115000", "113946.115000", "113947.115000", "113948.115000", "113949.115000", "113950.115000", "113951.115000", "113952.115000", "113953.115000", "113954.115000", "113955.115000", "113956.115000", "113957.115000", "113958.115000", "113959.115000", "114000.115000", "114001.115000", "114002.115000", "114003.115000", "114004.115000", "114005.115000", "114006.115000", "114007.115000", "114008.115000", "114009.115000", "114010.115000", "114011.115000", "114012.115000", "114013.115000", "114014.115000", "114015.115000", "114016.115000", "114017.115000", "114018.115000", "114019.115000", "114020.115000", "114021.115000", "114022.115000", "114023.115000", "114024.115000", "114025.115000", "114026.115000", "114027.115000", "114028.115000", "114029.115000", "114030.115000", "114031.115000", "114032.115000", "114033.115000", "114034.115000", "114035.115000", "114036.115000", "114037.115000", "114038.115000", "114039.115000", "114040.115000", "114041.115000", "114042.115000", "114043.115000", "114044.115000"],
      "ContentTime": ["113709.786000", "113709.789000", "113709.792000", "113709.795000", "113709.798000", "113709.801000", "113709.804000", "113709.807000", "113709.810000", "113709.813000", "113709.816000", "113709.819000", "113709.822000", "113709.825000", "113709.828000", "113709.831000", "113709.834000", "113709.837000", "113709.840000", "113709.843000", "113709.845000", "113709.856000", "113709.859000", "113709.862000", "113709.865000", "113709.868000", "113709.871000", "113709.874000", "113709.876000", "113709.879000", "113709.882000", "113709.885000", "113709.888000", "113709.891000", "113709.894000", "113709.897000", "113709.900000", "113709.903000", "113709.906000", "113709.909000", "113729.758000", "113729.761000", "113729.764000", "113729.767000", "113729.770000", "113729.773000", "113729.776000", "113729.780000", "113729.783000", "113729.786000", "113729.789000", "113729.792000", "113729.795000", "113729.798000", "113729.801000", "113729.804000", "113729.807000", "113729.810000", "113729.823000", "113729.826000", "113729.829000", "113729.832000", "113729.834000", "113729.837000", "113729.840000", "113729.843000", "113729.846000", "113729.849000", "113749.758000", "113749.764000", "113749.767000", "113749.770000", "113749.773000", "113749.776000", "113749.779000", "113749.782000", "113749.785000", "113749.788000", "113749.791000", "113749.794000", "113749.797000", "113749.800000", "113749.803000", "113749.806000", "113749.809000", "113749.812000", "113749.815000", "113749.818000", "113749.820000", "113749.823000", "113749.826000", "113749.829000", "113749.832000", "113749.835000", "113749.838000", "113749.841000", "113809.758000", "113809.761000", "113809.764000", "113809.767000", "113809.770000", "113809.773000", "113809.776000", "113809.779000", "113809.782000", "113809.785000", "113809.788000", "113809.791000", "113809.794000", "113809.797000", "113809.800000", "113809.803000", "113809.806000", "113809.809000", "113809.812000", "113809.815000", "113809.817000", "113809.820000", "113809.823000", "113809.826000", "113809.829000", "113809.832000", "113809.835000", "113809.838000", "113829.758000", "113829.761000", "113829.764000", "113829.767000", "113829.770000", "113829.774000", "113829.776000", "113829.779000", "113829.783000", "113829.786000", "113829.788000", "113829.791000", "113829.795000", "113829.798000", "113829.801000", "113829.804000", "113829.807000", "113829.810000", "113829.813000", "113829.816000", "113829.825000", "113829.829000", "113829.831000", "113829.834000", "113829.837000", "113829.840000", "113829.843000", "113829.846000", "113849.758000", "113849.761000", "113849.764000", "113849.767000", "113849.770000", "113849.773000", "113849.776000", "113849.779000", "113849.782000", "113849.785000", "113849.788000", "113849.791000", "113849.794000", "113849.797000", "113849.800000", "113849.803000", "113849.806000", "113849.809000", "113849.812000", "113849.815000", "113849.818000", "113849.821000", "113849.824000", "113849.827000", "113849.830000", "113849.833000", "113849.836000", "113849.839000", "113909.758000", "113909.761000", "113909.764000", "113909.768000", "113909.772000", "113909.775000", "113909.779000", "113909.782000", "113909.785000", "113909.788000", "113909.841000", "113909.844000", "113909.847000", "113909.851000", "113909.854000", "113909.857000", "113909.859000", "113909.863000", "113909.866000", "113909.868000", "113909.871000", "113909.875000", "113909.877000", "113929.758000", "113929.761000", "113929.764000", "113929.767000", "113929.771000", "113929.775000", "113929.780000", "113929.783000", "113929.786000", "113929.789000", "113929.793000", "113929.796000", "113929.798000", "113929.801000", "113929.805000", "113929.808000", "113929.811000", "113929.814000", "113929.818000", "113929.820000", "113949.758000", "113949.762000", "113949.766000", "113949.771000", "113949.775000", "113949.779000", "113949.782000", "113949.785000", "113949.788000", "113949.791000", "113949.794000", "113949.797000", "113949.800000", "113949.803000", "113949.806000", "113949.809000", "113949.812000", "113949.815000", "113949.818000", "113949.821000", "114009.758000", "114009.761000", "114009.764000", "114009.767000", "114009.770000", "114009.775000", "114009.780000", "114009.784000", "114009.788000", "114009.791000", "114009.794000", "114009.797000", "114009.800000", "114009.803000", "114009.806000", "114009.809000", "114009.812000", "114009.814000", "114009.817000", "114009.820000", "114029.758000", "114029.762000", "114029.767000", "114029.772000", "114029.775000", "114029.778000", "114029.781000", "114029.784000", "114029.787000", "114029.790000", "114029.793000", "114029.796000", "114029.799000", "114029.802000", "114029.805000", "114029.808000", "114029.811000", "114029.814000", "114029.817000", "114029.820000", "114045.836000", "114045.858000", "114045.861000", "114045.864000", "114045.867000", "114045.870000", "114045.873000", "114045.876000", "114045.879000", "114045.882000", "114045.885000", "114045.888000", "114045.891000", "114045.894000", "114045.897000", "114045.900000", "114045.903000"],
      "InstanceCreationTime": ["113709.786000", "113709.789000", "113709.792000", "113709.795000", "113709.798000", "113709.801000", "113709.804000", "113709.807000", "113709.810000", "113709.813000", "113709.816000", "113709.819000", "113709.822000", "113709.825000", "113709.828000", "113709.831000", "113709.834000", "113709.837000", "113709.840000", "113709.843000", "113709.845000", "113709.856000", "113709.859000", "113709.862000", "113709.865000", "113709.868000", "113709.871000", "113709.874000", "113709.876000", "113709.879000", "113709.882000", "113709.885000", "113709.888000", "113709.891000", "113709.894000", "113709.897000", "113709.900000", "113709.903000", "113709.906000", "113709.909000", "113729.758000", "113729.761000", "113729.764000", "113729.767000", "113729.770000", "113729.773000", "113729.776000", "113729.780000", "113729.783000", "113729.786000", "113729.789000", "113729.792000", "113729.795000", "113729.798000", "113729.801000", "113729.804000", "113729.807000", "113729.810000", "113729.823000", "113729.826000", "113729.829000", "113729.832000", "113729.834000", "113729.837000", "113729.840000", "113729.843000", "113729.846000", "113729.849000", "113749.758000", "113749.764000", "113749.767000", "113749.770000", "113749.773000", "113749.776000", "113749.779000", "113749.782000", "113749.785000", "113749.788000", "113749.791000", "113749.794000", "113749.797000", "113749.800000", "113749.803000", "113749.806000", "113749.809000", "113749.812000", "113749.815000", "113749.818000", "113749.820000", "113749.823000", "113749.826000", "113749.829000", "113749.832000", "113749.835000", "113749.838000", "113749.841000", "113809.758000", "113809.761000", "113809.764000", "113809.767000", "113809.770000", "113809.773000", "113809.776000", "113809.779000", "113809.782000", "113809.785000", "113809.788000", "113809.791000", "113809.794000", "113809.797000", "113809.800000", "113809.803000", "113809.806000", "113809.809000", "113809.812000", "113809.815000", "113809.817000", "113809.820000", "113809.823000", "113809.826000", "113809.829000", "113809.832000", "113809.835000", "113809.838000", "113829.758000", "113829.761000", "113829.764000", "113829.767000", "113829.770000", "113829.774000", "113829.776000", "113829.779000", "113829.783000", "113829.786000", "113829.788000", "113829.791000", "113829.795000", "113829.798000", "113829.801000", "113829.804000", "113829.807000", "113829.810000", "113829.813000", "113829.816000", "113829.825000", "113829.829000", "113829.831000", "113829.834000", "113829.837000", "113829.840000", "113829.843000", "113829.846000", "113849.758000", "113849.761000", "113849.764000", "113849.767000", "113849.770000", "113849.773000", "113849.776000", "113849.779000", "113849.782000", "113849.785000", "113849.788000", "113849.791000", "113849.794000", "113849.797000", "113849.800000", "113849.803000", "113849.806000", "113849.809000", "113849.812000", "113849.815000", "113849.818000", "113849.821000", "113849.824000", "113849.827000", "113849.830000", "113849.833000", "113849.836000", "113849.839000", "113909.758000", "113909.761000", "113909.764000", "113909.768000", "113909.772000", "113909.775000", "113909.779000", "113909.782000", "113909.785000", "113909.788000", "113909.841000", "113909.844000", "113909.847000", "113909.851000", "113909.854000", "113909.857000", "113909.859000", "113909.863000", "113909.866000", "113909.868000", "113909.871000", "113909.875000", "113909.877000", "113929.758000", "113929.761000", "113929.764000", "113929.767000", "113929.771000", "113929.775000", "113929.780000", "113929.783000", "113929.786000", "113929.789000", "113929.793000", "113929.796000", "113929.798000", "113929.801000", "113929.805000", "113929.808000", "113929.811000", "113929.814000", "113929.818000", "113929.820000", "113949.758000", "113949.762000", "113949.766000", "113949.771000", "113949.775000", "113949.779000", "113949.782000", "113949.785000", "113949.788000", "113949.791000", "113949.794000", "113949.797000", "113949.800000", "113949.803000", "113949.806000", "113949.809000", "113949.812000", "113949.815000", "113949.818000", "113949.821000", "114009.758000", "114009.761000", "114009.764000", "114009.767000", "114009.770000", "114009.775000", "114009.780000", "114009.784000", "114009.788000", "114009.791000", "114009.794000", "114009.797000", "114009.800000", "114009.803000", "114009.806000", "114009.809000", "114009.812000", "114009.814000", "114009.817000", "114009.820000", "114029.758000", "114029.762000", "114029.767000", "114029.772000", "114029.775000", "114029.778000", "114029.781000", "114029.784000", "114029.787000", "114029.790000", "114029.793000", "114029.796000", "114029.799000", "114029.802000", "114029.805000", "114029.808000", "114029.811000", "114029.814000", "114029.817000", "114029.820000", "114045.836000", "114045.858000", "114045.861000", "114045.864000", "114045.867000", "114045.870000", "114045.873000", "114045.876000", "114045.879000", "114045.882000", "114045.885000", "114045.888000", "114045.891000", "114045.894000", "114045.897000", "114045.900000", "114045.903000"],
      "InstanceNumber": [1, 2, 3, 4, 5, 6, 7, 8, 9, 10, 11, 12, 13, 14, 15, 16, 17, 18, 19, 20, 21, 22, 23, 24, 25, 26, 27, 28, 29, 30, 31, 32, 33, 34, 35, 36, 37, 38, 39, 40, 41, 42, 43, 44, 45, 46, 47, 48, 49, 50, 51, 52, 53, 54, 55, 56, 57, 58, 59, 60, 61, 62, 63, 64, 65, 66, 67, 68, 69, 70, 71, 72, 73, 74, 75, 76, 77, 78, 79, 80, 81, 82, 83, 84, 85, 86, 87, 88, 89, 90, 91, 92, 93, 94, 95, 96, 97, 98, 99, 100, 101, 102, 103, 104, 105, 106, 107, 108, 109, 110, 111, 112, 113, 114, 115, 116, 117, 118, 119, 120, 121, 122, 123, 124, 125, 126, 127, 128, 129, 130, 131, 132, 133, 134, 135, 136, 137, 138, 139, 140, 141, 142, 143, 144, 145, 146, 147, 148, 149, 150, 151, 152, 153, 154, 155, 156, 157, 158, 159, 160, 161, 162, 163, 164, 165, 166, 167, 168, 169, 170, 171, 172, 173, 174, 175, 176, 177, 178, 179, 180, 181, 182, 183, 184, 185, 186, 187, 188, 189, 190, 191, 192, 193, 194, 195, 196, 197, 198, 199, 200, 201, 202, 203, 204, 205, 206, 207, 208, 209, 210, 211, 212, 213, 214, 215, 216, 217, 218, 219, 220, 221, 222, 223, 224, 225, 226, 227, 228, 229, 230, 231, 232, 233, 234, 235, 236, 237, 238, 239, 240, 241, 242, 243, 244, 245, 246, 247, 248, 249, 250, 251, 252, 253, 254, 255, 256, 257, 258, 259, 260, 261, 262, 263, 264, 265, 266, 267, 268, 269, 270, 271, 272, 273, 274, 275, 276, 277, 278, 279, 280, 281, 282, 283, 284, 285, 286, 287, 288, 289, 290, 291, 292, 293, 294, 295, 296, 297, 298, 299, 300],
      "LargestImagePixelValue": [36969, 36213, 36335, 35953, 35637, 35698, 35794, 35601, 35697, 35716, 35683, 35759, 35971, 35461, 35680, 35707, 35458, 35324, 35470, 35544, 35563, 35370, 35608, 35914, 35643, 35790, 35691, 35784, 35815, 35325, 35617, 36007, 35666, 35158, 35285, 35292, 35560, 35259, 35799, 35381, 35823, 35657, 35878, 35667, 35928, 35454, 35582, 35662, 35172, 35585, 35585, 35519, 35628, 35703, 35470, 35340, 35649, 35732, 35746, 35718, 35943, 35810, 35963, 36068, 36059, 35855, 36542, 36132, 35672, 35614, 35803, 35840, 36053, 35852, 36054, 36004, 35886, 35891, 35610, 36558, 36361, 35899, 35914, 35683, 35825, 35879, 36400, 36139, 35639, 36044, 36104, 35980, 35796, 36094, 35645, 36220, 35881, 36221, 35796, 35780, 35868, 35918, 36236, 36189, 36554, 36636, 36176, 35818, 36461, 36582, 36271, 36588, 36171, 36043, 36653, 36476, 36335, 36299, 36353, 36176, 36172, 36377, 36586, 36207, 36521, 35996, 35817, 36042, 36280, 36176, 35989, 36034, 36711, 36144, 36132, 36124, 36343, 36018, 36390, 36175, 36362, 36105, 36161, 36356, 35950, 36614, 35826, 35959, 36450, 35993, 35968, 36193, 36029, 36435, 35887, 36324, 36837, 36445, 36709, 36500, 36794, 36787, 36607, 35999, 36492, 36223, 36009, 36389, 36316, 36292, 35958, 36472, 36009, 36027, 36441, 36350, 36363, 36560, 36680, 36735, 36484, 36641, 36623, 36833, 36573, 36786, 36505, 36664, 36459, 36495, 36725, 36253, 36424, 36705, 36542, 36154, 36234, 36381, 35899, 36612, 36654, 36348, 36806, 36784, 36380, 35995, 36648, 36428, 36390, 36616, 36528, 36090, 36591, 36831, 36559, 36232, 36280, 36195, 36158, 36670, 36484, 36177, 36660, 36747, 36379, 36724, 36735, 36523, 36543, 36476, 36069, 36359, 36160, 35790, 36225, 36319, 36473, 36631, 36591, 36820, 36792, 36658, 36691, 36333, 36509, 36329, 36489, 36715, 36599, 36363, 36434, 36623, 36020, 36473, 36438, 36150, 36395, 36129, 36156, 36080, 36641, 36396, 36046, 36560, 36398, 36008, 37009, 36390, 35955, 35844, 36540, 36303, 36307, 35845, 36336, 36190, 36193, 36314, 35958, 36027, 36713, 36044, 36262, 36139, 36645, 36346, 36125, 36375, 36161, 36117, 36380, 36062, 36204, 36250, 36333, 35926, 36177, 36319, 36291, 36413],
      "WindowCenter": [9812.0, 9794.0, 9782.0, 9769.0, 9762.0, 9753.0, 9744.0, 9737.0, 9730.0, 9735.0, 9741.0, 9750.0, 9757.0, 9760.0, 9767.0, 9769.0, 9770.0, 9764.0, 9756.0, 9761.0, 9754.0, 9753.0, 9747.0, 9753.0, 9753.0, 9760.0, 9762.0, 9761.0, 9760.0, 9749.0, 9753.0, 9757.0, 9758.0, 9754.0, 9752.0, 9745.0, 9751.0, 9745.0, 9758.0, 9768.0, 9776.0, 9785.0, 9800.0, 9796.0, 9809.0, 9800.0, 9785.0, 9774.0, 9766.0, 9763.0, 9768.0, 9769.0, 9768.0, 9767.0, 9761.0, 9762.0, 9776.0, 9783.0, 9784.0, 9783.0, 9778.0, 9776.0, 9775.0, 9773.0, 9768.0, 9766.0, 9778.0, 9781.0, 9769.0, 9760.0, 9753.0, 9751.0, 9749.0, 9750.0, 9764.0, 9767.0, 9775.0, 9778.0, 9779.0, 9785.0, 9785.0, 9787.0, 9786.0, 9786.0, 9786.0, 9772.0, 9774.0, 9760.0, 9746.0, 9743.0, 9748.0, 9751.0, 9752.0, 9757.0, 9753.0, 9752.0, 9745.0, 9751.0, 9760.0, 9761.0, 9768.0, 9769.0, 9775.0, 9769.0, 9780.0, 9773.0, 9774.0, 9774.0, 9774.0, 9779.0, 9781.0, 9774.0, 9775.0, 9782.0, 9789.0, 9784.0, 9789.0, 9783.0, 9782.0, 9781.0, 9775.0, 9772.0, 9766.0, 9765.0, 9771.0, 9759.0, 9759.0, 9760.0, 9760.0, 9768.0, 9777.0, 9784.0, 9789.0, 9778.0, 9777.0, 9769.0, 9767.0, 9761.0, 9774.0, 9769.0, 9782.0, 9784.0, 9775.0, 9775.0, 9768.0, 9767.0, 9761.0, 9762.0, 9766.0, 9761.0, 9767.0, 9767.0, 9768.0, 9781.0, 9784.0, 9788.0, 9789.0, 9783.0, 9781.0, 9775.0, 9774.0, 9775.0, 9768.0, 9763.0, 9755.0, 9754.0, 9754.0, 9756.0, 9756.0, 9762.0, 9755.0, 9759.0, 9755.0, 9760.0, 9761.0, 9759.0, 9765.0, 9780.0, 9786.0, 9780.0, 9767.0, 9764.0, 9757.0, 9769.0, 9764.0, 9778.0, 9781.0, 9780.0, 9773.0, 9767.0, 9758.0, 9751.0, 9742.0, 9734.0, 9739.0, 9742.0, 9752.0, 9765.0, 9769.0, 9782.0, 9781.0, 9777.0, 9776.0, 9769.0, 9767.0, 9761.0, 9769.0, 9774.0, 9782.0, 9783.0, 9782.0, 9775.0, 9781.0, 9775.0, 9769.0, 9768.0, 9767.0, 9768.0, 9782.0, 9789.0, 9791.0, 9786.0, 9784.0, 9781.0, 9777.0, 9776.0, 9768.0, 9760.0, 9760.0, 9760.0, 9760.0, 9760.0, 9761.0, 9756.0, 9763.0, 9769.0, 9776.0, 9783.0, 9777.0, 9774.0, 9768.0, 9765.0, 9764.0, 9765.0, 9759.0, 9765.0, 9766.0, 9765.0, 9765.0, 9773.0, 9773.0, 9767.0, 9761.0, 9758.0, 9750.0, 9757.0, 9759.0, 9766.0, 9768.0, 9768.0, 9773.0, 9760.0, 9754.0, 9759.0, 9752.0, 9759.0, 9772.0, 9776.0, 9778.0, 9778.0, 9783.0, 9777.0, 9778.0, 9765.0, 9767.0, 9766.0, 9754.0, 9759.0, 9760.0, 9767.0, 9766.0, 9762.0, 9768.0, 9768.0, 9775.0, 9775.0, 9765.0, 9763.0, 9762.0, 9763.0, 9769.0, 9770.0, 9771.0, 9778.0, 9784.0, 9785.0, 9784.0, 9784.0, 9784.0, 9784.0],
