{
  "AcquisitionMatrixPE": 104,
  "AcquisitionNumber": 1,
  "AcquisitionTime": "13:51:30.500000",
  "BandwidthPerPixelPhaseEncode": 16.578,
  "BaseResolution": 104,
  "BodyPartExamined": "BRAIN",
  "ConsistencyInfo": "N4_VE11C_LATEST_20160120",
  "ConversionSoftware": "dcm2niix",
  "ConversionSoftwareVersion": "v1.0.20190902",
  "DerivedVendorReportedEchoSpacing": 0.000580009,
  "DeviceSerialNumber": "166018",
  "DwellTime": 2.1e-06,
  "EchoTime": 0.037,
  "EchoTrainLength": 104,
  "EffectiveEchoSpacing": 0.000580009,
  "FlipAngle": 68,
  "ImageComments": "Unaliased_MB6_PE3_LB",
  "ImageOrientationPatientDICOM": [0.99991, -0.00921518, -0.0097062, 0.00785337, 0.991214, -0.132034],
  "ImageType": [
    "ORIGINAL",
    "PRIMARY",
    "M",
    "MB",
    "ND",
    "MOSAIC"
],
  "ImagingFrequency": 123.191,
  "InPlanePhaseEncodingDirectionDICOM": "COL",
  "InstitutionAddress": "Washington_Place_6_NYC_NYC_US_10003",
  "InstitutionName": "NYU_-_CBI",
  "InstitutionalDepartmentName": "Department",
  "MRAcquisitionType": "2D",
  "MagneticFieldStrength": 3,
  "Manufacturer": "Siemens",
  "ManufacturersModelName": "Prisma",
  "Modality": "MR",
  "MultibandAccelerationFactor": 6,
  "PartialFourier": 1,
  "PatientPosition": "HFS",
  "PercentPhaseFOV": 100,
  "PhaseEncodingDirection": "j",
  "PhaseEncodingSteps": 104,
  "PhaseResolution": 1,
  "PixelBandwidth": 2290,
  "ProcedureStepDescription": "Investigators_Winawer",
  "ProtocolName": "cmrr_mbepi_s6_2mm_66sl_PA_task-prf",
  "PulseSequenceDetails": "%CustomerSeq%_cmrr_mbep2d_bold",
  "ReceiveCoilActiveElements": "HC1-7",
  "ReceiveCoilName": "HeadNeck_64",
  "ReconMatrixPE": 104,
  "RepetitionTime": 1,
  "SAR": 0.0572377,
  "ScanOptions": "FS",
  "ScanningSequence": "EP",
  "SequenceName": "epfid2d1_104",
  "SequenceVariant": "SK_SS",
  "SeriesDescription": "cmrr_mbepi_s6_2mm_66sl_PA_task-prf",
  "SeriesNumber": 20,
  "ShimSetting": [253, -12590, -8467, 315, -14, -34, -74, 25],
  "SliceThickness": 2,
  "SliceTiming": [0, 0.5325, 0.0875, 0.6225, 0.1775, 0.7125, 0.2675, 0.8, 0.355, 0.89, 0.445, 0, 0.5325, 0.0875, 0.6225, 0.1775, 0.7125, 0.2675, 0.8, 0.355, 0.89, 0.445, 0, 0.5325, 0.0875, 0.6225, 0.1775, 0.7125, 0.2675, 0.8, 0.355, 0.89, 0.445, 0, 0.5325, 0.0875, 0.6225, 0.1775, 0.7125, 0.2675, 0.8, 0.355, 0.89, 0.445, 0, 0.5325, 0.0875, 0.6225, 0.1775, 0.7125, 0.2675, 0.8, 0.355, 0.89, 0.445, 0, 0.5325, 0.0875, 0.6225, 0.1775, 0.7125, 0.2675, 0.8, 0.355, 0.89, 0.445],
  "SoftwareVersions": "syngo_MR_E11",
  "SpacingBetweenSlices": 2,
  "StationName": "AWP166018",
  "TaskName": "prf",
  "TotalReadoutTime": 0.0597409,
  "TxRefAmp": 206.833,
  "WipMemBlock": "74b4e339-02b7-49cd-8271-b956540a6e73||Sequence: R016 ve11c/master r/8780670; Nov 27 2017 15:05:12 by eja",
  "dcmmeta_affine": [
    [-1.9998208284378052, 0.015706742182374, -0.02167527936398983, 107.14173126220703],
    [0.01843036152422428, 1.9824281930923462, -0.26389187574386597, -85.84158325195312],
    [-0.01941240206360817, 0.26406800746917725, 1.9823952913284302, -56.82004165649414],
    [0.0, 0.0, 0.0, 1.0]
],
  "dcmmeta_reorient_transform": [
    [0.0, -1.0, 0.0, 103.0],
    [1.0, 0.0, 0.0, 0.0],
    [0.0, 0.0, 1.0, 0.0],
    [0.0, 0.0, 0.0, 1.0]
],
  "dcmmeta_shape": [104, 104, 66, 192],
  "dcmmeta_slice_dim": 2,
  "dcmmeta_version": 0.6,
  "global": {
    "const": {
      "AccessionNumber": "k3ypk7w7",
      "AcquisitionMatrix": [104, 0, 0, 104],
      "AngioFlag": "N",
      "BitsAllocated": 16,
      "BitsStored": 16,
      "BodyPartExamined": "BRAIN",
      "Columns": 936,
      "EchoNumbers": 1,
      "EchoTime": 37.0,
      "EchoTrainLength": 104,
      "FlipAngle": 68.0,
      "HighBit": 15,
      "ImageOrientationPatient": [0.99991043104239, -0.0092151805036, -0.0097062011573, 0.00785337150745, 0.99121407761761, -0.1320339989875],
      "ImagePositionPatient": [-947.2190118342, -935.37160025184, 88.306808750398],
      "ImageType": [
        "ORIGINAL",
        "PRIMARY",
        "M",
        "MB",
        "ND",
        "MOSAIC"
],
      "ImagedNucleus": "1H",
      "ImagingFrequency": 123.190761,
      "InPlanePhaseEncodingDirection": "COL",
      "MRAcquisitionType": "2D",
      "MagneticFieldStrength": 3.0,
      "Manufacturer": "SIEMENS",
      "ManufacturerModelName": "Prisma",
      "Modality": "MR",
      "NumberOfAverages": 1.0,
      "NumberOfPhaseEncodingSteps": 104,
      "PercentPhaseFieldOfView": 100.0,
      "PercentSampling": 100.0,
      "PerformedProcedureStepStartTime": "131411.677000",
      "PhotometricInterpretation": "MONOCHROME2",
      "PixelBandwidth": 2290.0,
      "PixelRepresentation": 0,
      "PixelSpacing": [2.0, 2.0],
      "ProtocolName": "cmrr_mbepi_s6_2mm_66sl_PA_task-prf",
      "RepetitionTime": 1000.0,
      "Rows": 936,
      "SAR": 0.05723768651782,
      "SamplesPerPixel": 1,
      "ScanOptions": "FS",
      "ScanningSequence": "EP",
      "SequenceName": "epfid2d1_104",
      "SequenceVariant": [
        "SK",
        "SS"
],
      "SeriesDescription": "cmrr_mbepi_s6_2mm_66sl_PA_task-prf",
      "SeriesNumber": 20,
      "SeriesTime": "135235.305000",
      "SliceLocation": -46.154607346491,
      "SliceThickness": 2.0,
      "SmallestImagePixelValue": 0,
      "SoftwareVersions": "syngo MR E11",
      "SpacingBetweenSlices": 1.9999999580352,
      "SpecificCharacterSet": "ISO_IR 100",
      "StudyID": "1",
      "StudyTime": "131411.472000",
      "TransmitCoilName": "Body",
      "VariableFlipAngleFlag": "N",
      "WindowCenterWidthExplanation": "Algo1",
      "dBdt": 0.0},
    "slices": {}
  },
  "time": {
    "samples": {
      "AcquisitionNumber": [1, 2, 3, 4, 5, 6, 7, 8, 9, 10, 11, 12, 13, 14, 15, 16, 17, 18, 19, 20, 21, 22, 23, 24, 25, 26, 27, 28, 29, 30, 31, 32, 33, 34, 35, 36, 37, 38, 39, 40, 41, 42, 43, 44, 45, 46, 47, 48, 49, 50, 51, 52, 53, 54, 55, 56, 57, 58, 59, 60, 61, 62, 63, 64, 65, 66, 67, 68, 69, 70, 71, 72, 73, 74, 75, 76, 77, 78, 79, 80, 81, 82, 83, 84, 85, 86, 87, 88, 89, 90, 91, 92, 93, 94, 95, 96, 97, 98, 99, 100, 101, 102, 103, 104, 105, 106, 107, 108, 109, 110, 111, 112, 113, 114, 115, 116, 117, 118, 119, 120, 121, 122, 123, 124, 125, 126, 127, 128, 129, 130, 131, 132, 133, 134, 135, 136, 137, 138, 139, 140, 141, 142, 143, 144, 145, 146, 147, 148, 149, 150, 151, 152, 153, 154, 155, 156, 157, 158, 159, 160, 161, 162, 163, 164, 165, 166, 167, 168, 169, 170, 171, 172, 173, 174, 175, 176, 177, 178, 179, 180, 181, 182, 183, 184, 185, 186, 187, 188, 189, 190, 191, 192],
      "AcquisitionTime": ["135130.500000", "135131.500000", "135132.500000", "135133.500000", "135134.500000", "135135.500000", "135136.500000", "135137.500000", "135138.500000", "135139.500000", "135140.500000", "135141.500000", "135142.500000", "135143.500000", "135144.500000", "135145.500000", "135146.500000", "135147.500000", "135148.500000", "135149.500000", "135150.500000", "135151.500000", "135152.500000", "135153.500000", "135154.500000", "135155.500000", "135156.500000", "135157.500000", "135158.500000", "135159.500000", "135200.500000", "135201.500000", "135202.500000", "135203.500000", "135204.500000", "135205.500000", "135206.500000", "135207.500000", "135208.500000", "135209.500000", "135210.500000", "135211.500000", "135212.500000", "135213.500000", "135214.500000", "135215.500000", "135216.500000", "135217.500000", "135218.500000", "135219.500000", "135220.500000", "135221.500000", "135222.500000", "135223.500000", "135224.500000", "135225.500000", "135226.500000", "135227.500000", "135228.500000", "135229.500000", "135230.500000", "135231.500000", "135232.500000", "135233.500000", "135234.500000", "135235.500000", "135236.500000", "135237.500000", "135238.500000", "135239.500000", "135240.500000", "135241.500000", "135242.500000", "135243.500000", "135244.500000", "135245.500000", "135246.500000", "135247.500000", "135248.500000", "135249.500000", "135250.500000", "135251.500000", "135252.500000", "135253.500000", "135254.500000", "135255.500000", "135256.500000", "135257.500000", "135258.500000", "135259.500000", "135300.500000", "135301.500000", "135302.500000", "135303.500000", "135304.500000", "135305.500000", "135306.500000", "135307.500000", "135308.500000", "135309.500000", "135310.500000", "135311.500000", "135312.500000", "135313.500000", "135314.500000", "135315.500000", "135316.500000", "135317.500000", "135318.500000", "135319.500000", "135320.500000", "135321.500000", "135322.500000", "135323.500000", "135324.500000", "135325.500000", "135326.500000", "135327.500000", "135328.500000", "135329.500000", "135330.500000", "135331.500000", "135332.500000", "135333.500000", "135334.500000", "135335.500000", "135336.500000", "135337.500000", "135338.500000", "135339.500000", "135340.500000", "135341.500000", "135342.500000", "135343.500000", "135344.500000", "135345.500000", "135346.500000", "135347.500000", "135348.500000", "135349.500000", "135350.500000", "135351.500000", "135352.500000", "135353.500000", "135354.500000", "135355.500000", "135356.500000", "135357.500000", "135358.500000", "135359.500000", "135400.500000", "135401.500000", "135402.500000", "135403.500000", "135404.500000", "135405.500000", "135406.500000", "135407.500000", "135408.500000", "135409.500000", "135410.500000", "135411.500000", "135412.500000", "135413.500000", "135414.500000", "135415.500000", "135416.500000", "135417.500000", "135418.500000", "135419.500000", "135420.500000", "135421.500000", "135422.500000", "135423.500000", "135424.500000", "135425.500000", "135426.500000", "135427.500000", "135428.500000", "135429.500000", "135430.500000", "135431.500000", "135432.500000", "135433.500000", "135434.500000", "135435.500000", "135436.500000", "135437.500000", "135438.500000", "135439.500000", "135440.500000", "135441.500000"],
      "ContentTime": ["135235.308000", "135235.311000", "135235.314000", "135235.317000", "135235.320000", "135235.323000", "135235.326000", "135235.329000", "135235.332000", "135235.344000", "135235.347000", "135235.350000", "135235.356000", "135235.359000", "135235.362000", "135235.365000", "135235.368000", "135235.371000", "135235.382000", "135235.385000", "135235.388000", "135235.391000", "135255.267000", "135255.270000", "135255.273000", "135255.277000", "135255.280000", "135255.283000", "135255.285000", "135255.288000", "135255.291000", "135255.294000", "135255.297000", "135255.300000", "135255.303000", "135255.306000", "135255.309000", "135255.312000", "135255.315000", "135255.318000", "135255.321000", "135255.324000", "135255.327000", "135255.364000", "135255.367000", "135255.370000", "135255.373000", "135255.376000", "135255.379000", "135255.381000", "135315.267000", "135315.270000", "135315.273000", "135315.277000", "135315.280000", "135315.283000", "135315.286000", "135315.289000", "135315.292000", "135315.294000", "135315.297000", "135315.300000", "135315.303000", "135315.306000", "135315.309000", "135315.312000", "135315.315000", "135315.318000", "135315.321000", "135315.324000", "135315.327000", "135315.330000", "135315.333000", "135315.335000", "135315.338000", "135315.341000", "135315.344000", "135315.347000", "135315.350000", "135335.267000", "135335.270000", "135335.273000", "135335.276000", "135335.279000", "135335.282000", "135335.285000", "135335.288000", "135335.291000", "135335.294000", "135335.297000", "135335.300000", "135335.303000", "135335.306000", "135335.308000", "135335.311000", "135335.314000", "135335.326000", "135335.329000", "135335.332000", "135335.335000", "135335.338000", "135335.341000", "135335.344000", "135335.347000", "135335.350000", "135335.353000", "135335.355000", "135355.267000", "135355.270000", "135355.273000", "135355.276000", "135355.280000", "135355.283000", "135355.286000", "135355.289000", "135355.292000", "135355.295000", "135355.298000", "135355.301000", "135355.303000", "135355.306000", "135355.309000", "135355.312000", "135355.315000", "135355.331000", "135355.334000", "135355.337000", "135355.340000", "135355.343000", "135355.346000", "135355.348000", "135355.351000", "135355.354000", "135355.357000", "135355.360000", "135415.266000", "135415.269000", "135415.272000", "135415.275000", "135415.278000", "135415.281000", "135415.284000", "135415.287000", "135415.290000", "135415.293000", "135415.296000", "135415.299000", "135415.301000", "135415.304000", "135415.307000", "135415.310000", "135415.313000", "135415.316000", "135415.319000", "135415.322000", "135415.325000", "135415.328000", "135415.331000", "135415.334000", "135415.336000", "135415.339000", "135415.342000", "135415.345000", "135435.267000", "135435.270000", "135435.274000", "135435.277000", "135435.280000", "135435.283000", "135435.286000", "135435.289000", "135435.292000", "135435.294000", "135435.297000", "135435.300000", "135435.303000", "135435.306000", "135435.309000", "135435.312000", "135435.315000", "135435.317000", "135435.320000", "135435.323000", "135443.465000", "135443.468000", "135443.471000", "135443.474000", "135443.477000", "135443.480000", "135443.483000", "135443.486000", "135443.489000"],
      "InstanceCreationTime": ["135235.308000", "135235.311000", "135235.314000", "135235.317000", "135235.320000", "135235.323000", "135235.326000", "135235.329000", "135235.332000", "135235.344000", "135235.347000", "135235.350000", "135235.356000", "135235.359000", "135235.362000", "135235.365000", "135235.368000", "135235.371000", "135235.382000", "135235.385000", "135235.388000", "135235.391000", "135255.267000", "135255.270000", "135255.273000", "135255.277000", "135255.280000", "135255.283000", "135255.285000", "135255.288000", "135255.291000", "135255.294000", "135255.297000", "135255.300000", "135255.303000", "135255.306000", "135255.309000", "135255.312000", "135255.315000", "135255.318000", "135255.321000", "135255.324000", "135255.327000", "135255.364000", "135255.367000", "135255.370000", "135255.373000", "135255.376000", "135255.379000", "135255.381000", "135315.267000", "135315.270000", "135315.273000", "135315.277000", "135315.280000", "135315.283000", "135315.286000", "135315.289000", "135315.292000", "135315.294000", "135315.297000", "135315.300000", "135315.303000", "135315.306000", "135315.309000", "135315.312000", "135315.315000", "135315.318000", "135315.321000", "135315.324000", "135315.327000", "135315.330000", "135315.333000", "135315.335000", "135315.338000", "135315.341000", "135315.344000", "135315.347000", "135315.350000", "135335.267000", "135335.270000", "135335.273000", "135335.276000", "135335.279000", "135335.282000", "135335.285000", "135335.288000", "135335.291000", "135335.294000", "135335.297000", "135335.300000", "135335.303000", "135335.306000", "135335.308000", "135335.311000", "135335.314000", "135335.326000", "135335.329000", "135335.332000", "135335.335000", "135335.338000", "135335.341000", "135335.344000", "135335.347000", "135335.350000", "135335.353000", "135335.355000", "135355.267000", "135355.270000", "135355.273000", "135355.276000", "135355.280000", "135355.283000", "135355.286000", "135355.289000", "135355.292000", "135355.295000", "135355.298000", "135355.301000", "135355.303000", "135355.306000", "135355.309000", "135355.312000", "135355.315000", "135355.331000", "135355.334000", "135355.337000", "135355.340000", "135355.343000", "135355.346000", "135355.348000", "135355.351000", "135355.354000", "135355.357000", "135355.360000", "135415.266000", "135415.269000", "135415.272000", "135415.275000", "135415.278000", "135415.281000", "135415.284000", "135415.287000", "135415.290000", "135415.293000", "135415.296000", "135415.299000", "135415.301000", "135415.304000", "135415.307000", "135415.310000", "135415.313000", "135415.316000", "135415.319000", "135415.322000", "135415.325000", "135415.328000", "135415.331000", "135415.334000", "135415.336000", "135415.339000", "135415.342000", "135415.345000", "135435.267000", "135435.270000", "135435.274000", "135435.277000", "135435.280000", "135435.283000", "135435.286000", "135435.289000", "135435.292000", "135435.294000", "135435.297000", "135435.300000", "135435.303000", "135435.306000", "135435.309000", "135435.312000", "135435.315000", "135435.317000", "135435.320000", "135435.323000", "135443.465000", "135443.468000", "135443.471000", "135443.474000", "135443.477000", "135443.480000", "135443.483000", "135443.486000", "135443.489000"],
      "InstanceNumber": [1, 2, 3, 4, 5, 6, 7, 8, 9, 10, 11, 12, 13, 14, 15, 16, 17, 18, 19, 20, 21, 22, 23, 24, 25, 26, 27, 28, 29, 30, 31, 32, 33, 34, 35, 36, 37, 38, 39, 40, 41, 42, 43, 44, 45, 46, 47, 48, 49, 50, 51, 52, 53, 54, 55, 56, 57, 58, 59, 60, 61, 62, 63, 64, 65, 66, 67, 68, 69, 70, 71, 72, 73, 74, 75, 76, 77, 78, 79, 80, 81, 82, 83, 84, 85, 86, 87, 88, 89, 90, 91, 92, 93, 94, 95, 96, 97, 98, 99, 100, 101, 102, 103, 104, 105, 106, 107, 108, 109, 110, 111, 112, 113, 114, 115, 116, 117, 118, 119, 120, 121, 122, 123, 124, 125, 126, 127, 128, 129, 130, 131, 132, 133, 134, 135, 136, 137, 138, 139, 140, 141, 142, 143, 144, 145, 146, 147, 148, 149, 150, 151, 152, 153, 154, 155, 156, 157, 158, 159, 160, 161, 162, 163, 164, 165, 166, 167, 168, 169, 170, 171, 172, 173, 174, 175, 176, 177, 178, 179, 180, 181, 182, 183, 184, 185, 186, 187, 188, 189, 190, 191, 192],
      "LargestImagePixelValue": [43455, 42594, 42187, 41375, 41821, 40296, 41047, 40156, 40686, 41046, 40299, 41266, 40860, 40976, 41072, 40835, 41074, 40467, 40848, 40967, 40346, 40671, 40427, 40554, 40971, 39984, 40758, 40634, 40163, 40842, 40076, 40117, 40797, 40621, 40604, 40899, 40321, 40643, 40426, 40410, 40701, 40130, 40738, 40853, 39978, 40476, 40254, 39960, 40701, 40217, 40732, 40915, 40356, 40942, 40621, 40455, 40748, 40376, 40622, 39724, 40041, 39671, 39836, 40249, 39245, 39631, 40219, 39379, 40283, 39576, 39690, 39791, 39357, 40209, 39574, 39729, 40178, 40722, 39921, 40098, 40362, 40072, 40271, 40102, 39684, 39966, 40110, 39775, 40100, 39861, 39986, 40397, 39947, 40141, 40576, 39180, 40682, 40555, 39979, 40541, 40116, 40214, 40562, 40322, 40498, 40560, 39891, 40101, 40068, 40502, 40286, 39869, 39806, 40649, 39843, 40219, 40416, 40336, 40127, 39916, 40051, 40901, 39790, 40337, 39922, 40795, 40389, 40729, 40392, 40983, 40153, 41069, 40405, 40226, 40432, 40227, 40359, 40429, 40093, 40706, 40318, 40465, 40624, 40205, 40826, 40042, 40529, 40520, 40245, 40268, 40364, 40308, 40744, 40659, 39842, 40314, 40541, 40422, 40848, 40057, 40451, 40790, 40182, 40514, 40953, 40317, 40381, 40085, 40249, 40328, 40108, 40013, 40574, 40429, 40250, 40636, 40063, 40538, 40533, 40216, 40153, 39765, 39952, 40339, 39879, 40019, 40173, 40417, 40212, 40271, 39988, 40879],
      "WindowCenter": [10341.0, 10299.0, 10285.0, 10263.0, 10267.0, 10256.0, 10260.0, 10253.0, 10258.0, 10269.0, 10275.0, 10277.0, 10280.0, 10280.0, 10279.0, 10271.0, 10271.0, 10260.0, 10262.0, 10254.0, 10248.0, 10251.0, 10248.0, 10245.0, 10244.0, 10240.0, 10246.0, 10245.0, 10248.0, 10258.0, 10257.0, 10258.0, 10269.0, 10271.0, 10270.0, 10270.0, 10266.0, 10278.0, 10282.0, 10277.0, 10283.0, 10273.0, 10274.0, 10273.0, 10260.0, 10256.0, 10250.0, 10241.0, 10243.0, 10239.0, 10242.0, 10244.0, 10247.0, 10257.0, 10262.0, 10262.0, 10270.0, 10274.0, 10275.0, 10269.0, 10274.0, 10270.0, 10270.0, 10268.0, 10265.0, 10261.0, 10266.0, 10256.0, 10259.0, 10256.0, 10261.0, 10255.0, 10250.0, 10258.0, 10254.0, 10246.0, 10249.0, 10253.0, 10242.0, 10238.0, 10237.0, 10238.0, 10235.0, 10232.0, 10227.0, 10231.0, 10233.0, 10234.0, 10235.0, 10243.0, 10249.0, 10254.0, 10253.0, 10251.0, 10263.0, 10249.0, 10262.0, 10261.0, 10251.0, 10255.0, 10251.0, 10250.0, 10255.0, 10257.0, 10269.0, 10271.0, 10268.0, 10267.0, 10269.0, 10272.0, 10261.0, 10269.0, 10255.0, 10258.0, 10253.0, 10251.0, 10259.0, 10259.0, 10260.0, 10267.0, 10259.0, 10270.0, 10263.0, 10272.0, 10268.0, 10267.0, 10259.0, 10264.0, 10258.0, 10262.0, 10259.0, 10267.0, 10264.0, 10266.0, 10265.0, 10266.0, 10267.0, 10275.0, 10271.0, 10287.0, 10283.0, 10285.0, 10292.0, 10288.0, 10291.0, 10283.0, 10285.0, 10283.0, 10271.0, 10269.0, 10268.0, 10260.0, 10271.0, 10275.0, 10278.0, 10277.0, 10286.0, 10279.0, 10281.0, 10266.0, 10263.0, 10259.0, 10252.0, 10249.0, 10256.0, 10249.0, 10250.0, 10259.0, 10265.0, 10267.0, 10271.0, 10276.0, 10281.0, 10284.0, 10278.0, 10291.0, 10286.0, 10285.0, 10290.0, 10271.0, 10263.0, 10256.0, 10246.0, 10242.0, 10237.0, 10236.0, 10243.0, 10242.0, 10235.0, 10244.0, 10243.0, 10255.0],
      "WindowWidth": [22215.0, 22111.0, 22074.0, 22026.0, 22032.0, 22008.0, 22016.0, 22005.0, 22013.0, 22037.0, 22052.0, 22055.0, 22062.0, 22061.0, 22060.0, 22041.0, 22041.0, 22017.0, 22018.0, 22001.0, 21988.0, 21995.0, 21989.0, 21981.0, 21979.0, 21972.0, 21980.0, 21980.0, 21986.0, 22007.0, 22011.0, 22010.0, 22034.0, 22037.0, 22034.0, 22035.0, 22029.0, 22056.0, 22070.0, 22060.0, 22075.0, 22056.0, 22055.0, 22052.0, 22021.0, 22009.0, 21996.0, 21971.0, 21973.0, 21964.0, 21965.0, 21972.0, 21979.0, 22001.0, 22016.0, 22019.0, 22037.0, 22047.0, 22049.0, 22037.0, 22049.0, 22042.0, 22039.0, 22036.0, 22030.0, 22021.0, 22033.0, 22013.0, 22020.0, 22014.0, 22023.0, 22012.0, 22002.0, 22014.0, 22007.0, 21987.0, 21991.0, 21997.0, 21973.0, 21959.0, 21960.0, 21959.0, 21953.0, 21948.0, 21938.0, 21947.0, 21955.0, 21955.0, 21960.0, 21978.0, 21991.0, 22002.0, 22002.0, 21995.0, 22021.0, 21994.0, 22016.0, 22013.0, 21994.0, 21999.0, 21995.0, 21991.0, 22001.0, 22005.0, 22028.0, 22036.0, 22033.0, 22032.0, 22038.0, 22042.0, 22021.0, 22038.0, 22010.0, 22016.0, 22003.0, 22000.0, 22018.0, 22017.0, 22020.0, 22033.0, 22016.0, 22036.0, 22025.0, 22040.0, 22034.0, 22028.0, 22014.0, 22021.0, 22007.0, 22016.0, 22010.0, 22026.0, 22021.0, 22025.0, 22026.0, 22027.0, 22031.0, 22049.0, 22040.0, 22075.0, 22069.0, 22076.0, 22091.0, 22082.0, 22088.0, 22072.0, 22071.0, 22068.0, 22042.0, 22036.0, 22036.0, 22016.0, 22039.0, 22050.0, 22058.0, 22059.0, 22078.0, 22062.0, 22065.0, 22034.0, 22023.0, 22017.0, 22000.0, 21994.0, 22006.0, 21992.0, 21994.0, 22014.0, 22026.0, 22033.0, 22044.0, 22053.0, 22064.0, 22069.0, 22060.0, 22087.0, 22077.0, 22076.0, 22086.0, 22043.0, 22026.0, 22007.0, 21982.0, 21973.0, 21961.0, 21961.0, 21975.0, 21971.0, 21960.0, 21980.0, 21977.0, 22002.0]
    },
    "slices": {}
  },
  "NumberOfVolumes": 192
}