{
  "AcquisitionMatrixPE": 104,
  "AcquisitionNumber": 1,
  "AcquisitionTime": "09:57:50.330000",
  "BandwidthPerPixelPhaseEncode": 16.297,
  "BaseResolution": 104,
  "BodyPartExamined": "BRAIN",
  "ConsistencyInfo": "N4_VE11C_LATEST_20160120",
  "ConversionSoftware": "dcm2niix",
  "ConversionSoftwareVersion": "v1.0.20210317",
  "DerivedVendorReportedEchoSpacing": 0.000590009,
  "DeviceSerialNumber": "166018",
  "DwellTime": 2.1e-06,
  "EchoTime": 0.0376,
  "EchoTrainLength": 104,
  "EffectiveEchoSpacing": 0.000590009,
  "FlipAngle": 68,
  "ImageComments": "Unaliased MB6/PE3/LB",
  "ImageOrientationPatientDICOM": [0.998907, -0.04673, -0.00140672, 0.046059, 0.98883, -0.141756],
  "ImageType": [
    "ORIGINAL",
    "PRIMARY",
    "M",
    "MB",
    "ND",
    "MOSAIC"
],
  "ImagingFrequency": 123.197,
  "InPlanePhaseEncodingDirectionDICOM": "COL",
  "InstitutionAddress": "Washington Place 6,NYC,NYC,US,10003",
  "InstitutionName": "NYU - CBI",
  "InstitutionalDepartmentName": "Department",
  "MRAcquisitionType": "2D",
  "MagneticFieldStrength": 3,
  "Manufacturer": "Siemens",
  "ManufacturersModelName": "Prisma",
  "Modality": "MR",
  "MultibandAccelerationFactor": 6,
  "PartialFourier": 1,
  "PatientPosition": "HFS",
  "PercentPhaseFOV": 100,
  "PercentSampling": 100,
  "PhaseEncodingDirection": "j",
  "PhaseEncodingSteps": 104,
  "PhaseResolution": 1,
  "PixelBandwidth": 2290,
  "ProcedureStepDescription": "Investigators^Winawer",
  "ProtocolName": "cmrr_mbepi_s6_2mm_66sl_PA_task-bar1",
  "PulseSequenceDetails": "%CustomerSeq%\\cmrr_mbep2d_bold",
  "ReceiveCoilActiveElements": "HC1-7",
  "ReceiveCoilName": "HeadNeck_64",
  "ReconMatrixPE": 104,
  "RepetitionTime": 1,
  "SAR": 0.0567997,
  "ScanOptions": "FS",
  "ScanningSequence": "EP",
  "SequenceName": "epfid2d1_104",
  "SequenceVariant": "SK\\SS",
  "SeriesDescription": "cmrr_mbepi_s6_2mm_66sl_PA_task-bar1",
  "SeriesNumber": 8,
  "ShimSetting": [277, -12665, -8418, 466, -55, -107, -58, 42],
  "SliceThickness": 2,
  "SliceTiming": [0, 0.535, 0.09, 0.6225, 0.1775, 0.7125, 0.2675, 0.8025, 0.3575, 0.89, 0.445, 0, 0.535, 0.09, 0.6225, 0.1775, 0.7125, 0.2675, 0.8025, 0.3575, 0.89, 0.445, 0, 0.535, 0.09, 0.6225, 0.1775, 0.7125, 0.2675, 0.8025, 0.3575, 0.89, 0.445, 0, 0.535, 0.09, 0.6225, 0.1775, 0.7125, 0.2675, 0.8025, 0.3575, 0.89, 0.445, 0, 0.535, 0.09, 0.6225, 0.1775, 0.7125, 0.2675, 0.8025, 0.3575, 0.89, 0.445, 0, 0.535, 0.09, 0.6225, 0.1775, 0.7125, 0.2675, 0.8025, 0.3575, 0.89, 0.445],
  "SoftwareVersions": "syngo MR E11",
  "SpacingBetweenSlices": 2,
  "StationName": "AWP166018",
  "TaskName": "bar1",
  "TotalReadoutTime": 0.060771,
  "TxRefAmp": 210.088,
  "VendorReportedEchoSpacing": 0.00059,
  "WipMemBlock": "083fa461-c89c-450e-a226-c70fa574e2a0||Sequence: R016 ve11c/master r/8780670; Nov 27 2017 15:05:12 by eja",
  "dcmmeta_affine": [
    [-1.997813105583191, 0.09211792796850204, -0.016030531376600266, 104.15538024902344],
    [0.09346002340316772, 1.9776591062545776, -0.28307226300239563, -83.92436218261719],
    [-0.0028134468011558056, 0.28351184725761414, 1.9798012971878052, -53.327598571777344],
    [0.0, 0.0, 0.0, 1.0]
],
  "dcmmeta_reorient_transform": [
    [0.0, -1.0, 0.0, 103.0],
    [1.0, 0.0, 0.0, 0.0],
    [0.0, 0.0, 1.0, 0.0],
    [0.0, 0.0, 0.0, 1.0]
],
  "dcmmeta_shape": [104, 104, 66, 300],
  "dcmmeta_slice_dim": 2,
  "dcmmeta_version": 0.6,
  "global": {
    "const": {
      "AccessionNumber": "Litbtkmn",
      "AcquisitionMatrix": [104, 0, 0, 104],
      "AngioFlag": "N",
      "BitsAllocated": 16,
      "BitsStored": 16,
      "BodyPartExamined": "BRAIN",
      "Columns": 936,
      "EchoNumbers": 1,
      "EchoTime": 37.6,
      "EchoTrainLength": 104,
      "FlipAngle": 68.0,
      "HighBit": 15,
      "ImageOrientationPatient": [0.99890656581425, -0.0467300107248, -0.0014067234457, 0.04605896535889, 0.98882952475698, -0.1417559264333],
      "ImagePositionPatient": [-983.05484924242, -903.60131441513, 94.985446890746],
      "ImageType": [
        "ORIGINAL",
        "PRIMARY",
        "M",
        "MB",
        "ND",
        "MOSAIC"
],
      "ImagedNucleus": "1H",
      "ImagingFrequency": 123.196772,
      "InPlanePhaseEncodingDirection": "COL",
      "MRAcquisitionType": "2D",
      "MagneticFieldStrength": 3.0,
      "Manufacturer": "SIEMENS",
      "ManufacturerModelName": "Prisma",
      "Modality": "MR",
      "NumberOfAverages": 1.0,
      "NumberOfPhaseEncodingSteps": 104,
      "PercentPhaseFieldOfView": 100.0,
      "PercentSampling": 100.0,
      "PerformedProcedureStepStartTime": "094127.950000",
      "PhotometricInterpretation": "MONOCHROME2",
      "PixelBandwidth": 2290.0,
      "PixelRepresentation": 0,
      "PixelSpacing": [2.0, 2.0],
      "ProtocolName": "cmrr_mbepi_s6_2mm_66sl_PA_task-bar1",
      "RepetitionTime": 1000.0,
      "Rows": 936,
      "SAR": 0.05679969593602,
      "SamplesPerPixel": 1,
      "ScanOptions": "FS",
      "ScanningSequence": "EP",
      "SequenceName": "epfid2d1_104",
      "SequenceVariant": [
        "SK",
        "SS"
],
      "SeriesDescription": "cmrr_mbepi_s6_2mm_66sl_PA_task-bar1",
      "SeriesNumber": 8,
      "SeriesTime": "095905.989000",
      "SliceLocation": -41.745527225607,
      "SliceThickness": 2.0,
      "SmallestImagePixelValue": 0,
      "SoftwareVersions": "syngo MR E11",
      "SpacingBetweenSlices": 1.9999999576256,
      "SpecificCharacterSet": "ISO_IR 100",
      "StudyID": "1",
      "StudyTime": "094127.784000",
      "TransmitCoilName": "Body",
      "VariableFlipAngleFlag": "N",
      "WindowCenterWidthExplanation": "Algo1",
      "dBdt": 0.0},
    "slices": {}
  },
  "time": {
    "samples": {
      "AcquisitionNumber": [1, 2, 3, 4, 5, 6, 7, 8, 9, 10, 11, 12, 13, 14, 15, 16, 17, 18, 19, 20, 21, 22, 23, 24, 25, 26, 27, 28, 29, 30, 31, 32, 33, 34, 35, 36, 37, 38, 39, 40, 41, 42, 43, 44, 45, 46, 47, 48, 49, 50, 51, 52, 53, 54, 55, 56, 57, 58, 59, 60, 61, 62, 63, 64, 65, 66, 67, 68, 69, 70, 71, 72, 73, 74, 75, 76, 77, 78, 79, 80, 81, 82, 83, 84, 85, 86, 87, 88, 89, 90, 91, 92, 93, 94, 95, 96, 97, 98, 99, 100, 101, 102, 103, 104, 105, 106, 107, 108, 109, 110, 111, 112, 113, 114, 115, 116, 117, 118, 119, 120, 121, 122, 123, 124, 125, 126, 127, 128, 129, 130, 131, 132, 133, 134, 135, 136, 137, 138, 139, 140, 141, 142, 143, 144, 145, 146, 147, 148, 149, 150, 151, 152, 153, 154, 155, 156, 157, 158, 159, 160, 161, 162, 163, 164, 165, 166, 167, 168, 169, 170, 171, 172, 173, 174, 175, 176, 177, 178, 179, 180, 181, 182, 183, 184, 185, 186, 187, 188, 189, 190, 191, 192, 193, 194, 195, 196, 197, 198, 199, 200, 201, 202, 203, 204, 205, 206, 207, 208, 209, 210, 211, 212, 213, 214, 215, 216, 217, 218, 219, 220, 221, 222, 223, 224, 225, 226, 227, 228, 229, 230, 231, 232, 233, 234, 235, 236, 237, 238, 239, 240, 241, 242, 243, 244, 245, 246, 247, 248, 249, 250, 251, 252, 253, 254, 255, 256, 257, 258, 259, 260, 261, 262, 263, 264, 265, 266, 267, 268, 269, 270, 271, 272, 273, 274, 275, 276, 277, 278, 279, 280, 281, 282, 283, 284, 285, 286, 287, 288, 289, 290, 291, 292, 293, 294, 295, 296, 297, 298, 299, 300],
      "AcquisitionTime": ["095750.330000", "095751.330000", "095752.330000", "095753.330000", "095754.330000", "095755.330000", "095756.330000", "095757.330000", "095758.330000", "095759.330000", "095800.330000", "095801.330000", "095802.330000", "095803.330000", "095804.330000", "095805.330000", "095806.330000", "095807.330000", "095808.330000", "095809.330000", "095810.330000", "095811.330000", "095812.330000", "095813.330000", "095814.330000", "095815.330000", "095816.330000", "095817.330000", "095818.330000", "095819.330000", "095820.330000", "095821.330000", "095822.330000", "095823.330000", "095824.330000", "095825.330000", "095826.330000", "095827.330000", "095828.330000", "095829.330000", "095830.330000", "095831.330000", "095832.330000", "095833.330000", "095834.330000", "095835.330000", "095836.330000", "095837.330000", "095838.330000", "095839.330000", "095840.330000", "095841.330000", "095842.330000", "095843.330000", "095844.330000", "095845.330000", "095846.330000", "095847.330000", "095848.330000", "095849.330000", "095850.330000", "095851.330000", "095852.330000", "095853.330000", "095854.330000", "095855.330000", "095856.330000", "095857.330000", "095858.330000", "095859.330000", "095900.330000", "095901.330000", "095902.330000", "095903.330000", "095904.330000", "095905.330000", "095906.330000", "095907.330000", "095908.330000", "095909.330000", "095910.330000", "095911.330000", "095912.330000", "095913.330000", "095914.330000", "095915.330000", "095916.330000", "095917.330000", "095918.330000", "095919.330000", "095920.330000", "095921.330000", "095922.330000", "095923.330000", "095924.330000", "095925.330000", "095926.330000", "095927.330000", "095928.330000", "095929.330000", "095930.330000", "095931.330000", "095932.330000", "095933.330000", "095934.330000", "095935.330000", "095936.330000", "095937.330000", "095938.330000", "095939.330000", "095940.330000", "095941.330000", "095942.330000", "095943.330000", "095944.330000", "095945.330000", "095946.330000", "095947.330000", "095948.330000", "095949.330000", "095950.330000", "095951.330000", "095952.330000", "095953.330000", "095954.330000", "095955.330000", "095956.330000", "095957.330000", "095958.330000", "095959.330000", "100000.330000", "100001.330000", "100002.330000", "100003.330000", "100004.330000", "100005.330000", "100006.330000", "100007.330000", "100008.330000", "100009.330000", "100010.330000", "100011.330000", "100012.330000", "100013.330000", "100014.330000", "100015.330000", "100016.330000", "100017.330000", "100018.330000", "100019.330000", "100020.330000", "100021.330000", "100022.330000", "100023.330000", "100024.330000", "100025.330000", "100026.330000", "100027.330000", "100028.330000", "100029.330000", "100030.330000", "100031.330000", "100032.330000", "100033.330000", "100034.330000", "100035.330000", "100036.330000", "100037.330000", "100038.330000", "100039.330000", "100040.330000", "100041.330000", "100042.330000", "100043.330000", "100044.330000", "100045.330000", "100046.330000", "100047.330000", "100048.330000", "100049.330000", "100050.330000", "100051.330000", "100052.330000", "100053.330000", "100054.330000", "100055.330000", "100056.330000", "100057.330000", "100058.330000", "100059.330000", "100100.330000", "100101.330000", "100102.330000", "100103.330000", "100104.330000", "100105.330000", "100106.330000", "100107.330000", "100108.330000", "100109.330000", "100110.330000", "100111.330000", "100112.330000", "100113.330000", "100114.330000", "100115.330000", "100116.330000", "100117.330000", "100118.330000", "100119.330000", "100120.330000", "100121.330000", "100122.330000", "100123.330000", "100124.330000", "100125.330000", "100126.330000", "100127.330000", "100128.330000", "100129.330000", "100130.330000", "100131.330000", "100132.330000", "100133.330000", "100134.330000", "100135.330000", "100136.330000", "100137.330000", "100138.330000", "100139.330000", "100140.330000", "100141.330000", "100142.330000", "100143.330000", "100144.330000", "100145.330000", "100146.330000", "100147.330000", "100148.330000", "100149.330000", "100150.330000", "100151.330000", "100152.330000", "100153.330000", "100154.330000", "100155.330000", "100156.330000", "100157.330000", "100158.330000", "100159.330000", "100200.330000", "100201.330000", "100202.330000", "100203.330000", "100204.330000", "100205.330000", "100206.330000", "100207.330000", "100208.330000", "100209.330000", "100210.330000", "100211.330000", "100212.330000", "100213.330000", "100214.330000", "100215.330000", "100216.330000", "100217.330000", "100218.330000", "100219.330000", "100220.330000", "100221.330000", "100222.330000", "100223.330000", "100224.330000", "100225.330000", "100226.330000", "100227.330000", "100228.330000", "100229.330000", "100230.330000", "100231.330000", "100232.330000", "100233.330000", "100234.330000", "100235.330000", "100236.330000", "100237.330000", "100238.330000", "100239.330000", "100240.330000", "100241.330000", "100242.330000", "100243.330000", "100244.330000", "100245.330000", "100246.330000", "100247.330000", "100248.330000", "100249.330000"],
      "ContentTime": ["095905.992000", "095905.995000", "095906.004000", "095906.007000", "095906.010000", "095906.013000", "095906.016000", "095906.019000", "095906.022000", "095906.025000", "095906.028000", "095906.031000", "095906.034000", "095906.037000", "095906.040000", "095906.043000", "095906.046000", "095906.049000", "095906.052000", "095906.055000", "095906.058000", "095906.061000", "095906.064000", "095906.067000", "095906.070000", "095906.073000", "095925.961000", "095925.964000", "095925.973000", "095925.976000", "095925.979000", "095925.982000", "095925.985000", "095925.988000", "095925.991000", "095925.994000", "095925.997000", "095926.001000", "095926.004000", "095926.007000", "095926.010000", "095926.013000", "095926.016000", "095926.019000", "095926.022000", "095926.025000", "095926.028000", "095926.031000", "095926.034000", "095926.037000", "095926.044000", "095926.047000", "095926.050000", "095945.961000", "095945.964000", "095945.967000", "095945.970000", "095945.973000", "095945.976000", "095945.979000", "095945.982000", "095945.985000", "095945.988000", "095945.991000", "095945.994000", "095945.997000", "095946.001000", "095946.004000", "095946.007000", "095946.010000", "095946.013000", "095946.016000", "095946.019000", "095946.022000", "095946.025000", "095946.028000", "095946.031000", "095946.034000", "095946.037000", "095946.040000", "095946.043000", "100005.961000", "100005.964000", "100005.975000", "100005.978000", "100005.981000", "100005.984000", "100005.987000", "100005.990000", "100005.993000", "100005.996000", "100006.000000", "100006.003000", "100006.006000", "100006.009000", "100006.012000", "100006.015000", "100006.018000", "100006.021000", "100006.024000", "100006.027000", "100006.030000", "100006.033000", "100006.036000", "100006.039000", "100006.042000", "100006.045000", "100006.048000", "100006.051000", "100025.961000", "100025.964000", "100025.967000", "100025.970000", "100025.973000", "100025.976000", "100025.979000", "100025.982000", "100025.985000", "100025.988000", "100025.991000", "100025.994000", "100025.997000", "100026.001000", "100026.004000", "100026.007000", "100026.010000", "100026.013000", "100026.016000", "100026.019000", "100026.028000", "100026.031000", "100026.034000", "100026.038000", "100026.040000", "100026.043000", "100026.046000", "100026.049000", "100045.961000", "100045.964000", "100045.967000", "100045.970000", "100045.973000", "100045.976000", "100045.979000", "100045.982000", "100045.985000", "100045.988000", "100045.991000", "100045.994000", "100045.997000", "100046.001000", "100046.004000", "100046.007000", "100046.010000", "100046.013000", "100046.016000", "100046.019000", "100046.022000", "100046.025000", "100046.028000", "100046.031000", "100046.034000", "100046.037000", "100046.040000", "100046.043000", "100105.961000", "100105.967000", "100105.970000", "100105.973000", "100105.976000", "100105.979000", "100105.982000", "100105.985000", "100105.988000", "100105.991000", "100105.994000", "100105.997000", "100106.001000", "100106.004000", "100106.007000", "100106.010000", "100106.013000", "100106.016000", "100106.019000", "100106.022000", "100106.025000", "100106.028000", "100106.031000", "100106.034000", "100106.037000", "100106.040000", "100106.043000", "100106.046000", "100106.049000", "100125.961000", "100125.964000", "100125.967000", "100125.970000", "100125.973000", "100125.976000", "100125.979000", "100125.982000", "100125.985000", "100125.988000", "100125.992000", "100125.995000", "100125.998000", "100126.002000", "100126.005000", "100126.008000", "100126.011000", "100126.014000", "100126.017000", "100126.020000", "100126.023000", "100145.961000", "100145.964000", "100145.967000", "100145.970000", "100145.973000", "100145.976000", "100145.979000", "100145.982000", "100145.985000", "100145.988000", "100145.991000", "100145.994000", "100145.997000", "100146.001000", "100146.004000", "100146.007000", "100146.010000", "100146.013000", "100146.016000", "100146.019000", "100205.961000", "100205.964000", "100205.967000", "100205.970000", "100205.973000", "100205.976000", "100205.979000", "100205.982000", "100205.985000", "100205.988000", "100205.991000", "100205.994000", "100205.997000", "100206.001000", "100206.004000", "100206.007000", "100206.010000", "100206.013000", "100206.016000", "100206.019000", "100225.961000", "100225.964000", "100225.967000", "100225.970000", "100225.973000", "100225.976000", "100225.979000", "100225.982000", "100225.985000", "100225.988000", "100225.991000", "100226.004000", "100226.007000", "100226.010000", "100226.013000", "100226.016000", "100226.019000", "100226.022000", "100226.027000", "100226.030000", "100245.961000", "100245.964000", "100245.967000", "100245.970000", "100245.973000", "100245.976000", "100245.979000", "100245.982000", "100245.985000", "100245.988000", "100245.991000", "100245.994000", "100245.997000", "100246.001000", "100246.004000", "100246.007000", "100246.010000", "100246.013000", "100246.016000", "100246.019000", "100250.975000", "100250.978000", "100250.981000", "100250.984000", "100250.987000"],
      "InstanceCreationTime": ["095905.992000", "095905.995000", "095906.004000", "095906.007000", "095906.010000", "095906.013000", "095906.016000", "095906.019000", "095906.022000", "095906.025000", "095906.028000", "095906.031000", "095906.034000", "095906.037000", "095906.040000", "095906.043000", "095906.046000", "095906.049000", "095906.052000", "095906.055000", "095906.058000", "095906.061000", "095906.064000", "095906.067000", "095906.070000", "095906.073000", "095925.961000", "095925.964000", "095925.973000", "095925.976000", "095925.979000", "095925.982000", "095925.985000", "095925.988000", "095925.991000", "095925.994000", "095925.997000", "095926.001000", "095926.004000", "095926.007000", "095926.010000", "095926.013000", "095926.016000", "095926.019000", "095926.022000", "095926.025000", "095926.028000", "095926.031000", "095926.034000", "095926.037000", "095926.044000", "095926.047000", "095926.050000", "095945.961000", "095945.964000", "095945.967000", "095945.970000", "095945.973000", "095945.976000", "095945.979000", "095945.982000", "095945.985000", "095945.988000", "095945.991000", "095945.994000", "095945.997000", "095946.001000", "095946.004000", "095946.007000", "095946.010000", "095946.013000", "095946.016000", "095946.019000", "095946.022000", "095946.025000", "095946.028000", "095946.031000", "095946.034000", "095946.037000", "095946.040000", "095946.043000", "100005.961000", "100005.964000", "100005.975000", "100005.978000", "100005.981000", "100005.984000", "100005.987000", "100005.990000", "100005.993000", "100005.996000", "100006.000000", "100006.003000", "100006.006000", "100006.009000", "100006.012000", "100006.015000", "100006.018000", "100006.021000", "100006.024000", "100006.027000", "100006.030000", "100006.033000", "100006.036000", "100006.039000", "100006.042000", "100006.045000", "100006.048000", "100006.051000", "100025.961000", "100025.964000", "100025.967000", "100025.970000", "100025.973000", "100025.976000", "100025.979000", "100025.982000", "100025.985000", "100025.988000", "100025.991000", "100025.994000", "100025.997000", "100026.001000", "100026.004000", "100026.007000", "100026.010000", "100026.013000", "100026.016000", "100026.019000", "100026.028000", "100026.031000", "100026.034000", "100026.038000", "100026.040000", "100026.043000", "100026.046000", "100026.049000", "100045.961000", "100045.964000", "100045.967000", "100045.970000", "100045.973000", "100045.976000", "100045.979000", "100045.982000", "100045.985000", "100045.988000", "100045.991000", "100045.994000", "100045.997000", "100046.001000", "100046.004000", "100046.007000", "100046.010000", "100046.013000", "100046.016000", "100046.019000", "100046.022000", "100046.025000", "100046.028000", "100046.031000", "100046.034000", "100046.037000", "100046.040000", "100046.043000", "100105.961000", "100105.967000", "100105.970000", "100105.973000", "100105.976000", "100105.979000", "100105.982000", "100105.985000", "100105.988000", "100105.991000", "100105.994000", "100105.997000", "100106.001000", "100106.004000", "100106.007000", "100106.010000", "100106.013000", "100106.016000", "100106.019000", "100106.022000", "100106.025000", "100106.028000", "100106.031000", "100106.034000", "100106.037000", "100106.040000", "100106.043000", "100106.046000", "100106.049000", "100125.961000", "100125.964000", "100125.967000", "100125.970000", "100125.973000", "100125.976000", "100125.979000", "100125.982000", "100125.985000", "100125.988000", "100125.992000", "100125.995000", "100125.998000", "100126.002000", "100126.005000", "100126.008000", "100126.011000", "100126.014000", "100126.017000", "100126.020000", "100126.023000", "100145.961000", "100145.964000", "100145.967000", "100145.970000", "100145.973000", "100145.976000", "100145.979000", "100145.982000", "100145.985000", "100145.988000", "100145.991000", "100145.994000", "100145.997000", "100146.001000", "100146.004000", "100146.007000", "100146.010000", "100146.013000", "100146.016000", "100146.019000", "100205.961000", "100205.964000", "100205.967000", "100205.970000", "100205.973000", "100205.976000", "100205.979000", "100205.982000", "100205.985000", "100205.988000", "100205.991000", "100205.994000", "100205.997000", "100206.001000", "100206.004000", "100206.007000", "100206.010000", "100206.013000", "100206.016000", "100206.019000", "100225.961000", "100225.964000", "100225.967000", "100225.970000", "100225.973000", "100225.976000", "100225.979000", "100225.982000", "100225.985000", "100225.988000", "100225.991000", "100226.004000", "100226.007000", "100226.010000", "100226.013000", "100226.016000", "100226.019000", "100226.022000", "100226.027000", "100226.030000", "100245.961000", "100245.964000", "100245.967000", "100245.970000", "100245.973000", "100245.976000", "100245.979000", "100245.982000", "100245.985000", "100245.988000", "100245.991000", "100245.994000", "100245.997000", "100246.001000", "100246.004000", "100246.007000", "100246.010000", "100246.013000", "100246.016000", "100246.019000", "100250.975000", "100250.978000", "100250.981000", "100250.984000", "100250.987000"],
      "InstanceNumber": [1, 2, 3, 4, 5, 6, 7, 8, 9, 10, 11, 12, 13, 14, 15, 16, 17, 18, 19, 20, 21, 22, 23, 24, 25, 26, 27, 28, 29, 30, 31, 32, 33, 34, 35, 36, 37, 38, 39, 40, 41, 42, 43, 44, 45, 46, 47, 48, 49, 50, 51, 52, 53, 54, 55, 56, 57, 58, 59, 60, 61, 62, 63, 64, 65, 66, 67, 68, 69, 70, 71, 72, 73, 74, 75, 76, 77, 78, 79, 80, 81, 82, 83, 84, 85, 86, 87, 88, 89, 90, 91, 92, 93, 94, 95, 96, 97, 98, 99, 100, 101, 102, 103, 104, 105, 106, 107, 108, 109, 110, 111, 112, 113, 114, 115, 116, 117, 118, 119, 120, 121, 122, 123, 124, 125, 126, 127, 128, 129, 130, 131, 132, 133, 134, 135, 136, 137, 138, 139, 140, 141, 142, 143, 144, 145, 146, 147, 148, 149, 150, 151, 152, 153, 154, 155, 156, 157, 158, 159, 160, 161, 162, 163, 164, 165, 166, 167, 168, 169, 170, 171, 172, 173, 174, 175, 176, 177, 178, 179, 180, 181, 182, 183, 184, 185, 186, 187, 188, 189, 190, 191, 192, 193, 194, 195, 196, 197, 198, 199, 200, 201, 202, 203, 204, 205, 206, 207, 208, 209, 210, 211, 212, 213, 214, 215, 216, 217, 218, 219, 220, 221, 222, 223, 224, 225, 226, 227, 228, 229, 230, 231, 232, 233, 234, 235, 236, 237, 238, 239, 240, 241, 242, 243, 244, 245, 246, 247, 248, 249, 250, 251, 252, 253, 254, 255, 256, 257, 258, 259, 260, 261, 262, 263, 264, 265, 266, 267, 268, 269, 270, 271, 272, 273, 274, 275, 276, 277, 278, 279, 280, 281, 282, 283, 284, 285, 286, 287, 288, 289, 290, 291, 292, 293, 294, 295, 296, 297, 298, 299, 300],
      "LargestImagePixelValue": [34395, 33660, 32907, 32120, 32363, 32020, 32040, 31969, 31538, 31819, 31810, 31935, 31977, 31846, 32081, 32140, 32105, 31586, 31847, 31851, 31715, 31896, 32151, 32067, 31932, 31908, 31947, 31537, 31885, 32052, 32075, 31496, 31811, 32087, 31884, 31704, 31543, 32002, 31663, 31829, 31615, 31638, 31867, 32060, 31551, 32033, 31724, 31604, 31358, 31889, 31620, 31552, 31658, 31163, 31190, 31484, 31618, 31754, 31545, 31388, 31666, 31402, 31725, 31252, 31610, 31575, 31231, 31172, 31408, 31688, 31951, 31723, 31379, 31282, 31437, 31451, 31545, 31677, 31128, 31426, 31019, 31313, 31479, 31541, 31349, 31525, 31460, 31202, 32001, 31562, 31837, 31544, 31286, 31740, 31564, 32029, 31468, 31514, 31413, 31412, 32121, 31566, 31502, 31572, 31785, 31713, 31458, 31463, 31490, 31582, 32099, 31747, 31809, 31602, 31856, 31890, 31642, 31845, 31879, 31174, 31593, 31639, 31530, 31505, 32064, 31567, 31756, 31759, 31254, 31246, 31705, 31240, 31038, 31438, 31273, 31848, 31295, 31617, 31362, 31423, 31547, 31534, 31420, 31551, 31597, 31324, 31273, 31344, 31322, 31372, 30897, 31119, 31567, 31400, 31317, 31368, 31142, 31306, 31387, 30838, 31117, 30887, 30953, 30646, 30839, 31052, 31167, 31343, 31561, 30934, 31069, 30800, 31302, 31492, 31548, 31011, 31077, 31019, 30922, 30938, 31374, 31406, 31254, 31250, 31057, 31169, 31093, 31485, 30953, 30784, 30857, 31275, 31136, 31051, 31261, 31135, 30931, 30974, 31137, 31132, 31342, 30964, 30923, 31150, 31060, 30970, 31496, 31165, 30759, 31287, 31115, 31044, 31048, 31152, 31009, 30697, 30812, 30778, 31415, 31380, 31099, 30912, 30809, 31105, 31024, 30849, 30970, 30889, 31235, 30911, 31446, 30837, 31355, 31180, 31397, 31025, 30848, 31048, 30749, 31317, 31231, 31066, 31067, 31409, 30928, 31182, 31511, 30801, 31317, 31472, 31033, 31461, 31480, 31081, 30922, 30865, 31255, 31245, 31085, 31245, 31477, 31348, 31148, 31298, 31105, 31240, 31380, 31562, 31016, 31431, 31287, 31021, 30881, 31563, 31054, 31027, 31157, 31103, 31256, 30996, 31339, 31377, 30806, 31383, 31118, 30951, 31110, 31556, 31530, 31209, 31040, 31201, 31022, 31160, 31619, 31469, 31314, 30865, 30591, 30673],
      "WindowCenter": [9369.0, 9323.0, 9288.0, 9266.0, 9260.0, 9262.0, 9271.0, 9273.0, 9282.0, 9282.0, 9284.0, 9292.0, 9290.0, 9275.0, 9266.0, 9264.0, 9256.0, 9247.0, 9255.0, 9278.0, 9291.0, 9316.0, 9324.0, 9325.0, 9318.0, 9311.0, 9301.0, 9293.0, 9293.0, 9293.0, 9302.0, 9296.0, 9296.0, 9296.0, 9287.0, 9275.0, 9274.0, 9277.0, 9278.0, 9277.0, 9270.0, 9268.0, 9261.0, 9266.0, 9269.0, 9283.0, 9287.0, 9294.0, 9289.0, 9294.0, 9288.0, 9279.0, 9277.0, 9266.0, 9272.0, 9272.0, 9270.0, 9285.0, 9286.0, 9280.0, 9279.0, 9271.0, 9270.0, 9268.0, 9276.0, 9286.0, 9281.0, 9286.0, 9292.0, 9298.0, 9304.0, 9300.0, 9284.0, 9274.0, 9272.0, 9271.0, 9276.0, 9288.0, 9278.0, 9285.0, 9266.0, 9273.0, 9276.0, 9297.0, 9284.0, 9297.0, 9284.0, 9275.0, 9280.0, 9272.0, 9264.0, 9253.0, 9247.0, 9260.0, 9263.0, 9279.0, 9280.0, 9274.0, 9282.0, 9275.0, 9283.0, 9278.0, 9273.0, 9286.0, 9288.0, 9288.0, 9282.0, 9273.0, 9262.0, 9252.0, 9255.0, 9248.0, 9249.0, 9250.0, 9256.0, 9265.0, 9260.0, 9258.0, 9266.0, 9254.0, 9252.0, 9249.0, 9258.0, 9262.0, 9284.0, 9287.0, 9289.0, 9282.0, 9265.0, 9255.0, 9252.0, 9237.0, 9230.0, 9242.0, 9243.0, 9256.0, 9260.0, 9276.0, 9272.0, 9273.0, 9278.0, 9272.0, 9263.0, 9267.0, 9269.0, 9281.0, 9280.0, 9271.0, 9263.0, 9262.0, 9246.0, 9245.0, 9249.0, 9260.0, 9279.0, 9288.0, 9282.0, 9282.0, 9270.0, 9266.0, 9271.0, 9258.0, 9262.0, 9263.0, 9264.0, 9268.0, 9270.0, 9279.0, 9279.0, 9279.0, 9273.0, 9268.0, 9271.0, 9262.0, 9259.0, 9247.0, 9253.0, 9255.0, 9264.0, 9265.0, 9267.0, 9271.0, 9272.0, 9272.0, 9266.0, 9266.0, 9264.0, 9277.0, 9279.0, 9274.0, 9278.0, 9285.0, 9285.0, 9277.0, 9272.0, 9256.0, 9239.0, 9233.0, 9237.0, 9238.0, 9246.0, 9249.0, 9256.0, 9258.0, 9266.0, 9268.0, 9273.0, 9276.0, 9285.0, 9300.0, 9304.0, 9302.0, 9293.0, 9291.0, 9303.0, 9296.0, 9289.0, 9280.0, 9276.0, 9266.0, 9250.0, 9242.0, 9249.0, 9257.0, 9265.0, 9253.0, 9256.0, 9249.0, 9256.0, 9257.0, 9272.0, 9275.0, 9283.0, 9290.0, 9284.0, 9274.0, 9258.0, 9257.0, 9259.0, 9272.0, 9282.0, 9278.0, 9284.0, 9282.0, 9285.0, 9293.0, 9294.0, 9287.0, 9292.0, 9284.0, 9285.0, 9284.0, 9282.0, 9279.0, 9286.0, 9296.0, 9300.0, 9300.0, 9287.0, 9276.0, 9268.0, 9272.0, 9272.0, 9281.0, 9292.0, 9302.0, 9308.0, 9302.0, 9287.0, 9282.0, 9272.0, 9268.0, 9262.0, 9265.0, 9259.0, 9264.0, 9264.0, 9272.0, 9273.0, 9267.0, 9273.0, 9268.0, 9270.0, 9287.0, 9285.0, 9295.0, 9294.0, 9298.0, 9290.0, 9276.0, 9266.0, 9264.0, 9266.0, 9269.0, 9282.0, 9288.0, 9274.0, 9268.0, 9270.0, 9263.0],
