{
  "AcquisitionMatrixPE": 104,
  "AcquisitionNumber": 1,
  "AcquisitionTime": "11:10:6.547500",
  "BandwidthPerPixelPhaseEncode": 16.297,
  "BaseResolution": 104,
  "BodyPartExamined": "BRAIN",
  "ConsistencyInfo": "N4_VE11C_LATEST_20160120",
  "ConversionSoftware": "dcm2niix",
  "ConversionSoftwareVersion": "v1.0.20210317",
  "DerivedVendorReportedEchoSpacing": 0.000590009,
  "DeviceSerialNumber": "166018",
  "DwellTime": 2.1e-06,
  "EchoTime": 0.0376,
  "EchoTrainLength": 104,
  "EffectiveEchoSpacing": 0.000590009,
  "FlipAngle": 68,
  "ImageComments": "Unaliased MB6/PE3/LB",
  "ImageOrientationPatientDICOM": [0.995386, 0.0949062, -0.0141483, -0.0958447, 0.976307, -0.194008],
  "ImageType": [
    "ORIGINAL",
    "PRIMARY",
    "M",
    "MB",
    "ND",
    "MOSAIC"
],
  "ImagingFrequency": 123.197,
  "InPlanePhaseEncodingDirectionDICOM": "COL",
  "InstitutionAddress": "Washington Place 6,NYC,NYC,US,10003",
  "InstitutionName": "NYU - CBI",
  "InstitutionalDepartmentName": "Department",
  "MRAcquisitionType": "2D",
  "MagneticFieldStrength": 3,
  "Manufacturer": "Siemens",
  "ManufacturersModelName": "Prisma",
  "Modality": "MR",
  "MultibandAccelerationFactor": 6,
  "PartialFourier": 1,
  "PatientPosition": "HFS",
  "PercentPhaseFOV": 100,
  "PercentSampling": 100,
  "PhaseEncodingDirection": "j",
  "PhaseEncodingSteps": 104,
  "PhaseResolution": 1,
  "PixelBandwidth": 2290,
  "ProcedureStepDescription": "Investigators^Winawer",
  "ProtocolName": "cmrr_mbepi_s6_2mm_66sl_PA_task-wedgering3",
  "PulseSequenceDetails": "%CustomerSeq%\\cmrr_mbep2d_bold",
  "ReceiveCoilActiveElements": "HC1-7",
  "ReceiveCoilName": "HeadNeck_64",
  "ReconMatrixPE": 104,
  "RepetitionTime": 1,
  "SAR": 0.0707998,
  "ScanOptions": "FS",
  "ScanningSequence": "EP",
  "SequenceName": "epfid2d1_104",
  "SequenceVariant": "SK\\SS",
  "SeriesDescription": "cmrr_mbepi_s6_2mm_66sl_PA_task-wedgering3",
  "SeriesNumber": 18,
  "ShimSetting": [304, -12656, -8494, 138, 34, -48, 11, 20],
  "SliceThickness": 2,
  "SliceTiming": [0, 0.5325, 0.0875, 0.6225, 0.1775, 0.7125, 0.2675, 0.8, 0.355, 0.89, 0.445, 0, 0.5325, 0.0875, 0.6225, 0.1775, 0.7125, 0.2675, 0.8, 0.355, 0.89, 0.445, 0, 0.5325, 0.0875, 0.6225, 0.1775, 0.7125, 0.2675, 0.8, 0.355, 0.89, 0.445, 0, 0.5325, 0.0875, 0.6225, 0.1775, 0.7125, 0.2675, 0.8, 0.355, 0.89, 0.445, 0, 0.5325, 0.0875, 0.6225, 0.1775, 0.7125, 0.2675, 0.8, 0.355, 0.89, 0.445, 0, 0.5325, 0.0875, 0.6225, 0.1775, 0.7125, 0.2675, 0.8, 0.355, 0.89, 0.445],
  "SoftwareVersions": "syngo MR E11",
  "SpacingBetweenSlices": 2,
  "StationName": "AWP166018",
  "TaskName": "wedgering3",
  "TotalReadoutTime": 0.060771,
  "TxRefAmp": 216.547,
  "VendorReportedEchoSpacing": 0.00059,
  "WipMemBlock": "97e9ed68-6e7d-4976-8adb-3c9b8bb01e07||Sequence: R016 ve11c/master r/8780670; Nov 27 2017 15:05:12 by eja",
  "dcmmeta_affine": [
    [-1.9907712936401367, -0.19168949127197266, 0.00919897761195898, 117.69992065429688],
    [-0.18981249630451202, 1.9526134729385376, -0.38893699645996094, -62.00932312011719],
    [-0.028296541422605515, 0.3880153298377991, 1.9617959260940552, -53.57741165161133],
    [0.0, 0.0, 0.0, 1.0]
],
  "dcmmeta_reorient_transform": [
    [0.0, -1.0, 0.0, 103.0],
    [1.0, 0.0, 0.0, 0.0],
    [0.0, 0.0, 1.0, 0.0],
    [0.0, 0.0, 0.0, 1.0]
],
  "dcmmeta_shape": [104, 104, 66, 300],
  "dcmmeta_slice_dim": 2,
  "dcmmeta_version": 0.6,
  "global": {
    "const": {
      "AccessionNumber": "Lf06gi6L",
      "AcquisitionMatrix": [104, 0, 0, 104],
      "AngioFlag": "N",
      "BitsAllocated": 16,
      "BitsStored": 16,
      "BodyPartExamined": "BRAIN",
      "Columns": 936,
      "EchoNumbers": 1,
      "EchoTime": 37.6,
      "EchoTrainLength": 104,
      "FlipAngle": 68.0,
      "HighBit": 15,
      "ImageOrientationPatient": [0.99538566889889, 0.0949062515469, -0.0141482708495, -0.0958447434891, 0.97630671908341, -0.1940076684518],
      "ImagePositionPatient": [-846.37395169896, -1030.359051066, 159.57391127336],
      "ImageType": [
        "ORIGINAL",
        "PRIMARY",
        "M",
        "MB",
        "ND",
        "MOSAIC"
],
      "ImagedNucleus": "1H",
      "ImagingFrequency": 123.196814,
      "InPlanePhaseEncodingDirection": "COL",
      "MRAcquisitionType": "2D",
      "MagneticFieldStrength": 3.0,
      "Manufacturer": "SIEMENS",
      "ManufacturerModelName": "Prisma",
      "Modality": "MR",
      "NumberOfAverages": 1.0,
      "NumberOfPhaseEncodingSteps": 104,
      "PercentPhaseFieldOfView": 100.0,
      "PercentSampling": 100.0,
      "PerformedProcedureStepStartTime": "103135.366000",
      "PhotometricInterpretation": "MONOCHROME2",
      "PixelBandwidth": 2290.0,
      "PixelRepresentation": 0,
      "PixelSpacing": [2.0, 2.0],
      "ProtocolName": "cmrr_mbepi_s6_2mm_66sl_PA_task-wedgering3",
      "RepetitionTime": 1000.0,
      "Rows": 936,
      "SAR": 0.07079980579539,
      "SamplesPerPixel": 1,
      "ScanOptions": "FS",
      "ScanningSequence": "EP",
      "SequenceName": "epfid2d1_104",
      "SequenceVariant": [
        "SK",
        "SS"
],
      "SeriesDescription": "cmrr_mbepi_s6_2mm_66sl_PA_task-wedgering3",
      "SeriesNumber": 18,
      "SeriesTime": "111121.034000",
      "SliceLocation": -39.953754088975,
      "SliceThickness": 2.0,
      "SmallestImagePixelValue": 0,
      "SoftwareVersions": "syngo MR E11",
      "SpacingBetweenSlices": 2.0000000125215,
      "SpecificCharacterSet": "ISO_IR 100",
      "StudyID": "1",
      "StudyTime": "103135.295000",
      "TransmitCoilName": "Body",
      "VariableFlipAngleFlag": "N",
      "WindowCenterWidthExplanation": "Algo1",
      "dBdt": 0.0},
    "slices": {}
  },
  "time": {
    "samples": {
      "AcquisitionNumber": [1, 2, 3, 4, 5, 6, 7, 8, 9, 10, 11, 12, 13, 14, 15, 16, 17, 18, 19, 20, 21, 22, 23, 24, 25, 26, 27, 28, 29, 30, 31, 32, 33, 34, 35, 36, 37, 38, 39, 40, 41, 42, 43, 44, 45, 46, 47, 48, 49, 50, 51, 52, 53, 54, 55, 56, 57, 58, 59, 60, 61, 62, 63, 64, 65, 66, 67, 68, 69, 70, 71, 72, 73, 74, 75, 76, 77, 78, 79, 80, 81, 82, 83, 84, 85, 86, 87, 88, 89, 90, 91, 92, 93, 94, 95, 96, 97, 98, 99, 100, 101, 102, 103, 104, 105, 106, 107, 108, 109, 110, 111, 112, 113, 114, 115, 116, 117, 118, 119, 120, 121, 122, 123, 124, 125, 126, 127, 128, 129, 130, 131, 132, 133, 134, 135, 136, 137, 138, 139, 140, 141, 142, 143, 144, 145, 146, 147, 148, 149, 150, 151, 152, 153, 154, 155, 156, 157, 158, 159, 160, 161, 162, 163, 164, 165, 166, 167, 168, 169, 170, 171, 172, 173, 174, 175, 176, 177, 178, 179, 180, 181, 182, 183, 184, 185, 186, 187, 188, 189, 190, 191, 192, 193, 194, 195, 196, 197, 198, 199, 200, 201, 202, 203, 204, 205, 206, 207, 208, 209, 210, 211, 212, 213, 214, 215, 216, 217, 218, 219, 220, 221, 222, 223, 224, 225, 226, 227, 228, 229, 230, 231, 232, 233, 234, 235, 236, 237, 238, 239, 240, 241, 242, 243, 244, 245, 246, 247, 248, 249, 250, 251, 252, 253, 254, 255, 256, 257, 258, 259, 260, 261, 262, 263, 264, 265, 266, 267, 268, 269, 270, 271, 272, 273, 274, 275, 276, 277, 278, 279, 280, 281, 282, 283, 284, 285, 286, 287, 288, 289, 290, 291, 292, 293, 294, 295, 296, 297, 298, 299, 300],
      "AcquisitionTime": ["111006.547500", "111007.547500", "111008.547500", "111009.547500", "111010.547500", "111011.547500", "111012.547500", "111013.547500", "111014.547500", "111015.547500", "111016.547500", "111017.547500", "111018.547500", "111019.547500", "111020.547500", "111021.547500", "111022.547500", "111023.547500", "111024.547500", "111025.547500", "111026.547500", "111027.547500", "111028.547500", "111029.547500", "111030.547500", "111031.547500", "111032.547500", "111033.547500", "111034.547500", "111035.547500", "111036.547500", "111037.547500", "111038.547500", "111039.547500", "111040.547500", "111041.547500", "111042.547500", "111043.547500", "111044.547500", "111045.547500", "111046.547500", "111047.547500", "111048.547500", "111049.547500", "111050.547500", "111051.547500", "111052.547500", "111053.547500", "111054.547500", "111055.547500", "111056.547500", "111057.547500", "111058.547500", "111059.547500", "111100.547500", "111101.547500", "111102.547500", "111103.547500", "111104.547500", "111105.547500", "111106.547500", "111107.547500", "111108.547500", "111109.547500", "111110.547500", "111111.547500", "111112.547500", "111113.547500", "111114.547500", "111115.547500", "111116.547500", "111117.547500", "111118.547500", "111119.547500", "111120.547500", "111121.547500", "111122.547500", "111123.547500", "111124.547500", "111125.547500", "111126.547500", "111127.547500", "111128.547500", "111129.547500", "111130.547500", "111131.547500", "111132.547500", "111133.547500", "111134.547500", "111135.547500", "111136.547500", "111137.547500", "111138.547500", "111139.547500", "111140.547500", "111141.547500", "111142.547500", "111143.547500", "111144.547500", "111145.547500", "111146.547500", "111147.547500", "111148.547500", "111149.547500", "111150.547500", "111151.547500", "111152.547500", "111153.547500", "111154.547500", "111155.547500", "111156.547500", "111157.547500", "111158.547500", "111159.547500", "111200.547500", "111201.547500", "111202.547500", "111203.547500", "111204.547500", "111205.547500", "111206.547500", "111207.547500", "111208.547500", "111209.547500", "111210.547500", "111211.547500", "111212.547500", "111213.547500", "111214.547500", "111215.547500", "111216.547500", "111217.547500", "111218.547500", "111219.547500", "111220.547500", "111221.547500", "111222.547500", "111223.547500", "111224.547500", "111225.547500", "111226.547500", "111227.547500", "111228.547500", "111229.547500", "111230.547500", "111231.547500", "111232.547500", "111233.547500", "111234.547500", "111235.547500", "111236.547500", "111237.547500", "111238.547500", "111239.547500", "111240.547500", "111241.547500", "111242.547500", "111243.547500", "111244.547500", "111245.547500", "111246.547500", "111247.547500", "111248.547500", "111249.547500", "111250.547500", "111251.547500", "111252.547500", "111253.547500", "111254.547500", "111255.547500", "111256.547500", "111257.547500", "111258.547500", "111259.547500", "111300.547500", "111301.547500", "111302.547500", "111303.547500", "111304.547500", "111305.547500", "111306.547500", "111307.547500", "111308.547500", "111309.547500", "111310.547500", "111311.547500", "111312.547500", "111313.547500", "111314.547500", "111315.547500", "111316.547500", "111317.547500", "111318.547500", "111319.547500", "111320.547500", "111321.547500", "111322.547500", "111323.547500", "111324.547500", "111325.547500", "111326.547500", "111327.547500", "111328.547500", "111329.547500", "111330.547500", "111331.547500", "111332.547500", "111333.547500", "111334.547500", "111335.547500", "111336.547500", "111337.547500", "111338.547500", "111339.547500", "111340.547500", "111341.547500", "111342.547500", "111343.547500", "111344.547500", "111345.547500", "111346.547500", "111347.547500", "111348.547500", "111349.547500", "111350.547500", "111351.547500", "111352.547500", "111353.547500", "111354.547500", "111355.547500", "111356.547500", "111357.547500", "111358.547500", "111359.547500", "111400.547500", "111401.547500", "111402.547500", "111403.547500", "111404.547500", "111405.547500", "111406.547500", "111407.547500", "111408.547500", "111409.547500", "111410.547500", "111411.547500", "111412.547500", "111413.547500", "111414.547500", "111415.547500", "111416.547500", "111417.547500", "111418.547500", "111419.547500", "111420.547500", "111421.547500", "111422.547500", "111423.547500", "111424.547500", "111425.547500", "111426.547500", "111427.547500", "111428.547500", "111429.547500", "111430.547500", "111431.547500", "111432.547500", "111433.547500", "111434.547500", "111435.547500", "111436.547500", "111437.547500", "111438.547500", "111439.547500", "111440.547500", "111441.547500", "111442.547500", "111443.547500", "111444.547500", "111445.547500", "111446.547500", "111447.547500", "111448.547500", "111449.547500", "111450.547500", "111451.547500", "111452.547500", "111453.547500", "111454.547500", "111455.547500", "111456.547500", "111457.547500", "111458.547500", "111459.547500", "111500.547500", "111501.547500", "111502.547500", "111503.547500", "111504.547500", "111505.547500"],
      "ContentTime": ["111121.037000", "111121.040000", "111121.043000", "111121.046000", "111121.049000", "111121.052000", "111121.056000", "111121.059000", "111121.062000", "111121.065000", "111121.068000", "111121.071000", "111121.078000", "111121.081000", "111121.084000", "111121.087000", "111121.090000", "111121.093000", "111121.097000", "111121.100000", "111121.103000", "111121.106000", "111121.109000", "111121.112000", "111121.115000", "111121.118000", "111121.121000", "111121.124000", "111121.127000", "111121.130000", "111121.134000", "111121.137000", "111121.140000", "111121.143000", "111141.008000", "111141.011000", "111141.014000", "111141.018000", "111141.021000", "111141.024000", "111141.027000", "111141.030000", "111141.033000", "111141.036000", "111141.039000", "111141.042000", "111141.045000", "111141.048000", "111141.052000", "111141.060000", "111141.063000", "111141.066000", "111141.069000", "111141.072000", "111141.075000", "111141.078000", "111141.081000", "111141.085000", "111141.088000", "111141.091000", "111141.094000", "111141.097000", "111201.008000", "111201.011000", "111201.014000", "111201.018000", "111201.021000", "111201.024000", "111201.027000", "111201.030000", "111201.033000", "111201.036000", "111201.039000", "111201.042000", "111201.045000", "111201.048000", "111201.051000", "111201.055000", "111201.058000", "111201.061000", "111201.064000", "111201.067000", "111201.070000", "111201.073000", "111201.076000", "111201.079000", "111201.087000", "111201.090000", "111201.093000", "111201.101000", "111221.009000", "111221.012000", "111221.015000", "111221.019000", "111221.027000", "111221.030000", "111221.033000", "111221.036000", "111221.039000", "111221.042000", "111221.045000", "111221.048000", "111221.051000", "111221.055000", "111221.058000", "111221.061000", "111221.064000", "111221.067000", "111221.070000", "111221.073000", "111221.076000", "111221.079000", "111221.083000", "111221.086000", "111221.089000", "111221.092000", "111221.095000", "111221.098000", "111241.009000", "111241.012000", "111241.016000", "111241.019000", "111241.022000", "111241.025000", "111241.028000", "111241.031000", "111241.034000", "111241.037000", "111241.040000", "111241.043000", "111241.046000", "111241.049000", "111241.053000", "111241.056000", "111241.059000", "111241.062000", "111241.065000", "111241.068000", "111241.071000", "111241.074000", "111241.077000", "111241.080000", "111241.083000", "111241.087000", "111241.090000", "111241.093000", "111241.096000", "111301.008000", "111301.011000", "111301.014000", "111301.017000", "111301.021000", "111301.024000", "111301.027000", "111301.033000", "111301.037000", "111301.040000", "111301.060000", "111301.063000", "111301.067000", "111301.070000", "111301.073000", "111301.076000", "111301.079000", "111301.082000", "111301.085000", "111301.088000", "111301.092000", "111301.095000", "111301.098000", "111301.101000", "111301.104000", "111301.107000", "111321.008000", "111321.011000", "111321.014000", "111321.018000", "111321.021000", "111321.024000", "111321.027000", "111321.030000", "111321.033000", "111321.036000", "111321.039000", "111321.042000", "111321.045000", "111321.049000", "111321.052000", "111321.055000", "111321.058000", "111321.061000", "111321.064000", "111321.067000", "111341.008000", "111341.011000", "111341.015000", "111341.018000", "111341.021000", "111341.024000", "111341.027000", "111341.030000", "111341.033000", "111341.036000", "111341.040000", "111341.043000", "111341.046000", "111341.049000", "111341.052000", "111341.055000", "111341.058000", "111341.061000", "111341.064000", "111341.067000", "111401.008000", "111401.011000", "111401.015000", "111401.018000", "111401.021000", "111401.024000", "111401.027000", "111401.030000", "111401.033000", "111401.036000", "111401.039000", "111401.042000", "111401.046000", "111401.049000", "111401.052000", "111401.055000", "111401.058000", "111401.061000", "111401.064000", "111401.067000", "111421.008000", "111421.011000", "111421.015000", "111421.018000", "111421.021000", "111421.024000", "111421.027000", "111421.030000", "111421.033000", "111421.036000", "111421.040000", "111421.043000", "111421.046000", "111421.049000", "111421.052000", "111421.055000", "111421.058000", "111421.061000", "111421.064000", "111421.067000", "111441.009000", "111441.012000", "111441.016000", "111441.019000", "111441.022000", "111441.025000", "111441.028000", "111441.031000", "111441.034000", "111441.037000", "111441.041000", "111441.044000", "111441.047000", "111441.050000", "111441.053000", "111441.056000", "111441.059000", "111441.062000", "111441.071000", "111441.074000", "111501.009000", "111501.012000", "111501.016000", "111501.019000", "111501.022000", "111501.025000", "111501.028000", "111501.031000", "111501.034000", "111501.037000", "111501.040000", "111501.044000", "111501.047000", "111501.050000", "111501.053000", "111501.056000", "111501.059000", "111501.062000", "111501.070000", "111501.074000", "111507.639000", "111507.642000", "111507.645000", "111507.648000", "111507.652000", "111507.655000", "111507.658000"],
      "InstanceCreationTime": ["111121.037000", "111121.040000", "111121.043000", "111121.046000", "111121.049000", "111121.052000", "111121.056000", "111121.059000", "111121.062000", "111121.065000", "111121.068000", "111121.071000", "111121.078000", "111121.081000", "111121.084000", "111121.087000", "111121.090000", "111121.093000", "111121.097000", "111121.100000", "111121.103000", "111121.106000", "111121.109000", "111121.112000", "111121.115000", "111121.118000", "111121.121000", "111121.124000", "111121.127000", "111121.130000", "111121.134000", "111121.137000", "111121.140000", "111121.143000", "111141.008000", "111141.011000", "111141.014000", "111141.018000", "111141.021000", "111141.024000", "111141.027000", "111141.030000", "111141.033000", "111141.036000", "111141.039000", "111141.042000", "111141.045000", "111141.048000", "111141.052000", "111141.060000", "111141.063000", "111141.066000", "111141.069000", "111141.072000", "111141.075000", "111141.078000", "111141.081000", "111141.085000", "111141.088000", "111141.091000", "111141.094000", "111141.097000", "111201.008000", "111201.011000", "111201.014000", "111201.018000", "111201.021000", "111201.024000", "111201.027000", "111201.030000", "111201.033000", "111201.036000", "111201.039000", "111201.042000", "111201.045000", "111201.048000", "111201.051000", "111201.055000", "111201.058000", "111201.061000", "111201.064000", "111201.067000", "111201.070000", "111201.073000", "111201.076000", "111201.079000", "111201.087000", "111201.090000", "111201.093000", "111201.101000", "111221.009000", "111221.012000", "111221.015000", "111221.019000", "111221.027000", "111221.030000", "111221.033000", "111221.036000", "111221.039000", "111221.042000", "111221.045000", "111221.048000", "111221.051000", "111221.055000", "111221.058000", "111221.061000", "111221.064000", "111221.067000", "111221.070000", "111221.073000", "111221.076000", "111221.079000", "111221.083000", "111221.086000", "111221.089000", "111221.092000", "111221.095000", "111221.098000", "111241.009000", "111241.012000", "111241.016000", "111241.019000", "111241.022000", "111241.025000", "111241.028000", "111241.031000", "111241.034000", "111241.037000", "111241.040000", "111241.043000", "111241.046000", "111241.049000", "111241.053000", "111241.056000", "111241.059000", "111241.062000", "111241.065000", "111241.068000", "111241.071000", "111241.074000", "111241.077000", "111241.080000", "111241.083000", "111241.087000", "111241.090000", "111241.093000", "111241.096000", "111301.008000", "111301.011000", "111301.014000", "111301.017000", "111301.021000", "111301.024000", "111301.027000", "111301.033000", "111301.037000", "111301.040000", "111301.060000", "111301.063000", "111301.067000", "111301.070000", "111301.073000", "111301.076000", "111301.079000", "111301.082000", "111301.085000", "111301.088000", "111301.092000", "111301.095000", "111301.098000", "111301.101000", "111301.104000", "111301.107000", "111321.008000", "111321.011000", "111321.014000", "111321.018000", "111321.021000", "111321.024000", "111321.027000", "111321.030000", "111321.033000", "111321.036000", "111321.039000", "111321.042000", "111321.045000", "111321.049000", "111321.052000", "111321.055000", "111321.058000", "111321.061000", "111321.064000", "111321.067000", "111341.008000", "111341.011000", "111341.015000", "111341.018000", "111341.021000", "111341.024000", "111341.027000", "111341.030000", "111341.033000", "111341.036000", "111341.040000", "111341.043000", "111341.046000", "111341.049000", "111341.052000", "111341.055000", "111341.058000", "111341.061000", "111341.064000", "111341.067000", "111401.008000", "111401.011000", "111401.015000", "111401.018000", "111401.021000", "111401.024000", "111401.027000", "111401.030000", "111401.033000", "111401.036000", "111401.039000", "111401.042000", "111401.046000", "111401.049000", "111401.052000", "111401.055000", "111401.058000", "111401.061000", "111401.064000", "111401.067000", "111421.008000", "111421.011000", "111421.015000", "111421.018000", "111421.021000", "111421.024000", "111421.027000", "111421.030000", "111421.033000", "111421.036000", "111421.040000", "111421.043000", "111421.046000", "111421.049000", "111421.052000", "111421.055000", "111421.058000", "111421.061000", "111421.064000", "111421.067000", "111441.009000", "111441.012000", "111441.016000", "111441.019000", "111441.022000", "111441.025000", "111441.028000", "111441.031000", "111441.034000", "111441.037000", "111441.041000", "111441.044000", "111441.047000", "111441.050000", "111441.053000", "111441.056000", "111441.059000", "111441.062000", "111441.071000", "111441.074000", "111501.009000", "111501.012000", "111501.016000", "111501.019000", "111501.022000", "111501.025000", "111501.028000", "111501.031000", "111501.034000", "111501.037000", "111501.040000", "111501.044000", "111501.047000", "111501.050000", "111501.053000", "111501.056000", "111501.059000", "111501.062000", "111501.070000", "111501.074000", "111507.639000", "111507.642000", "111507.645000", "111507.648000", "111507.652000", "111507.655000", "111507.658000"],
      "InstanceNumber": [1, 2, 3, 4, 5, 6, 7, 8, 9, 10, 11, 12, 13, 14, 15, 16, 17, 18, 19, 20, 21, 22, 23, 24, 25, 26, 27, 28, 29, 30, 31, 32, 33, 34, 35, 36, 37, 38, 39, 40, 41, 42, 43, 44, 45, 46, 47, 48, 49, 50, 51, 52, 53, 54, 55, 56, 57, 58, 59, 60, 61, 62, 63, 64, 65, 66, 67, 68, 69, 70, 71, 72, 73, 74, 75, 76, 77, 78, 79, 80, 81, 82, 83, 84, 85, 86, 87, 88, 89, 90, 91, 92, 93, 94, 95, 96, 97, 98, 99, 100, 101, 102, 103, 104, 105, 106, 107, 108, 109, 110, 111, 112, 113, 114, 115, 116, 117, 118, 119, 120, 121, 122, 123, 124, 125, 126, 127, 128, 129, 130, 131, 132, 133, 134, 135, 136, 137, 138, 139, 140, 141, 142, 143, 144, 145, 146, 147, 148, 149, 150, 151, 152, 153, 154, 155, 156, 157, 158, 159, 160, 161, 162, 163, 164, 165, 166, 167, 168, 169, 170, 171, 172, 173, 174, 175, 176, 177, 178, 179, 180, 181, 182, 183, 184, 185, 186, 187, 188, 189, 190, 191, 192, 193, 194, 195, 196, 197, 198, 199, 200, 201, 202, 203, 204, 205, 206, 207, 208, 209, 210, 211, 212, 213, 214, 215, 216, 217, 218, 219, 220, 221, 222, 223, 224, 225, 226, 227, 228, 229, 230, 231, 232, 233, 234, 235, 236, 237, 238, 239, 240, 241, 242, 243, 244, 245, 246, 247, 248, 249, 250, 251, 252, 253, 254, 255, 256, 257, 258, 259, 260, 261, 262, 263, 264, 265, 266, 267, 268, 269, 270, 271, 272, 273, 274, 275, 276, 277, 278, 279, 280, 281, 282, 283, 284, 285, 286, 287, 288, 289, 290, 291, 292, 293, 294, 295, 296, 297, 298, 299, 300],
      "LargestImagePixelValue": [35163, 31941, 32710, 31630, 28161, 28631, 28179, 28239, 27810, 28009, 28690, 29427, 28702, 29290, 29863, 29802, 29381, 29419, 29802, 29583, 29086, 29608, 29480, 29200, 28525, 29144, 29578, 28784, 28760, 29319, 29456, 28635, 29480, 29287, 28609, 29385, 29417, 28826, 28831, 29042, 28809, 28277, 28818, 29256, 28613, 28527, 29211, 29164, 28534, 29226, 29053, 29153, 28980, 29348, 28726, 28519, 29221, 29302, 29032, 29686, 29316, 28793, 29249, 29335, 29342, 28340, 29564, 29406, 28524, 28851, 29068, 28523, 27908, 28596, 29140, 28595, 28293, 29385, 29401, 28833, 29049, 29646, 28922, 29033, 29182, 29267, 28567, 29259, 29330, 28617, 29194, 29289, 28674, 28523, 29079, 28791, 27926, 28598, 28917, 28173, 28231, 29052, 28489, 28069, 29210, 29302, 28888, 29184, 29342, 28965, 28732, 29076, 28992, 28187, 31471, 32485, 31405, 28944, 28420, 28076, 27835, 27754, 28325, 28837, 29691, 29560, 29674, 29701, 29699, 29460, 29245, 29985, 30427, 29626, 29853, 30253, 29452, 29673, 29642, 29533, 29549, 29960, 30046, 29297, 29404, 29438, 28976, 29536, 29992, 29811, 29495, 29663, 29181, 29166, 29511, 29069, 29118, 29117, 29828, 29424, 29521, 29609, 29162, 29246, 30129, 30095, 29800, 29828, 29810, 29482, 29995, 30002, 29674, 29453, 29335, 29646, 29896, 29779, 29789, 30113, 29870, 29559, 30236, 30059, 29979, 30315, 29787, 29699, 30111, 29786, 29556, 30155, 29814, 29590, 29569, 29508, 29576, 29447, 28323, 29064, 28970, 29303, 29456, 29552, 29396, 29513, 29703, 29875, 32789, 29721, 29570, 29632, 29302, 29611, 29819, 29835, 29649, 29395, 29421, 29528, 29118, 29272, 29633, 29587, 29502, 29523, 29460, 29197, 29856, 29736, 29347, 29375, 29628, 29530, 29457, 29637, 29635, 29837, 29340, 29734, 29730, 31673, 28906, 29688, 29379, 29118, 28969, 28682, 28419, 31363, 28727, 28736, 29627, 29779, 29151, 29917, 29953, 29385, 28757, 29508, 29528, 28938, 29274, 29273, 29279, 28868, 29052, 29067, 28582, 28277, 28772, 29165, 28665, 28736, 29317, 28969, 28911, 29076, 29556, 28899, 30126, 29353, 29107, 29058, 29391, 28990, 29122, 29140, 28969, 29640, 29870, 29648, 29668, 29569, 29529, 29331, 29886, 29686, 29727, 29562],
      "WindowCenter": [9121.0, 9059.0, 9071.0, 9058.0, 9004.0, 9016.0, 9012.0, 9002.0, 8994.0, 9000.0, 9013.0, 9011.0, 8996.0, 9006.0, 9020.0, 9014.0, 9013.0, 9007.0, 9015.0, 9007.0, 8998.0, 9004.0, 9007.0, 8993.0, 8985.0, 8999.0, 9017.0, 9005.0, 9002.0, 9017.0, 9013.0, 8995.0, 9014.0, 9006.0, 9002.0, 9017.0, 9010.0, 9010.0, 9002.0, 9020.0, 9011.0, 8999.0, 9019.0, 9018.0, 9013.0, 9001.0, 9026.0, 9025.0, 9005.0, 9018.0, 9017.0, 9020.0, 9015.0, 9025.0, 9011.0, 8994.0, 9016.0, 9013.0, 9015.0, 9021.0, 9014.0, 9010.0, 8998.0, 9012.0, 9005.0, 8984.0, 8998.0, 8997.0, 8984.0, 8989.0, 9006.0, 8992.0, 8980.0, 8992.0, 9009.0, 8994.0, 8978.0, 8998.0, 9003.0, 8991.0, 8988.0, 9003.0, 8985.0, 8988.0, 9000.0, 8991.0, 8985.0, 8999.0, 9005.0, 8995.0, 8999.0, 9013.0, 9009.0, 8995.0, 9010.0, 9001.0, 8973.0, 8988.0, 8996.0, 8999.0, 8999.0, 9030.0, 9008.0, 8989.0, 9009.0, 9007.0, 8995.0, 9008.0, 9007.0, 9002.0, 8991.0, 9017.0, 9007.0, 8988.0, 9039.0, 9066.0, 9048.0, 9001.0, 9038.0, 9030.0, 9032.0, 9024.0, 9035.0, 9028.0, 9050.0, 9044.0, 9048.0, 9038.0, 9050.0, 9040.0, 9016.0, 9035.0, 9034.0, 9037.0, 9035.0, 9046.0, 9032.0, 9029.0, 9036.0, 9029.0, 9029.0, 9042.0, 9035.0, 9038.0, 9040.0, 9043.0, 9034.0, 9029.0, 9043.0, 9036.0, 9036.0, 9037.0, 9021.0, 9024.0, 9030.0, 9014.0, 9015.0, 9008.0, 9010.0, 9009.0, 9001.0, 9009.0, 8998.0, 8993.0, 9007.0, 9005.0, 9000.0, 9007.0, 9010.0, 9020.0, 9031.0, 9041.0, 9034.0, 9021.0, 9009.0, 9015.0, 9017.0, 9006.0, 9005.0, 9014.0, 9005.0, 9000.0, 9006.0, 9005.0, 9006.0, 9015.0, 9000.0, 9001.0, 9015.0, 9008.0, 9018.0, 9023.0, 9026.0, 9027.0, 9020.0, 9029.0, 9041.0, 9039.0, 9019.0, 9032.0, 9034.0, 9029.0, 9012.0, 9010.0, 9011.0, 9010.0, 9006.0, 9006.0, 9050.0, 9008.0, 8999.0, 9014.0, 9008.0, 9015.0, 9006.0, 9014.0, 9014.0, 9015.0, 9018.0, 9019.0, 9013.0, 9010.0, 9033.0, 9019.0, 9024.0, 9030.0, 9028.0, 9013.0, 9025.0, 9025.0, 9019.0, 9009.0, 9019.0, 9011.0, 9010.0, 9007.0, 9017.0, 9015.0, 9000.0, 9007.0, 9008.0, 9036.0, 8978.0, 8992.0, 9004.0, 9004.0, 9004.0, 8994.0, 8990.0, 9042.0, 8982.0, 8978.0, 9000.0, 8997.0, 8984.0, 9006.0, 9014.0, 9000.0, 8985.0, 9002.0, 9003.0, 8999.0, 8995.0, 9006.0, 9005.0, 9004.0, 9011.0, 9012.0, 9000.0, 8989.0, 9003.0, 9003.0, 8996.0, 8986.0, 9008.0, 8987.0, 8987.0, 8982.0, 8999.0, 8985.0, 8993.0, 8990.0, 9001.0, 9007.0, 9003.0, 9005.0, 9007.0, 9008.0, 8998.0, 9006.0, 8998.0, 9002.0, 8994.0, 8995.0, 8994.0, 8995.0, 9010.0, 9009.0, 9020.0, 9013.0],
