{
  "AcquisitionMatrixPE": 104,
  "AcquisitionNumber": 1,
  "AcquisitionTime": "10:38:3.362500",
  "BandwidthPerPixelPhaseEncode": 16.297,
  "BaseResolution": 104,
  "BodyPartExamined": "BRAIN",
  "ConsistencyInfo": "N4_VE11C_LATEST_20160120",
  "ConversionSoftware": "dcm2niix",
  "ConversionSoftwareVersion": "v1.0.20210317",
  "DerivedVendorReportedEchoSpacing": 0.000590009,
  "DeviceSerialNumber": "166018",
  "DwellTime": 2.1e-06,
  "EchoTime": 0.0376,
  "EchoTrainLength": 104,
  "EffectiveEchoSpacing": 0.000590009,
  "FlipAngle": 68,
  "ImageComments": "Unaliased MB6/PE3/LB",
  "ImageOrientationPatientDICOM": [0.995386, 0.0949062, -0.0141483, -0.0958447, 0.976307, -0.194008],
  "ImageType": [
    "ORIGINAL",
    "PRIMARY",
    "M",
    "MB",
    "ND",
    "MOSAIC"
],
  "ImagingFrequency": 123.197,
  "InPlanePhaseEncodingDirectionDICOM": "COL",
  "InstitutionAddress": "Washington Place 6,NYC,NYC,US,10003",
  "InstitutionName": "NYU - CBI",
  "InstitutionalDepartmentName": "Department",
  "MRAcquisitionType": "2D",
  "MagneticFieldStrength": 3,
  "Manufacturer": "Siemens",
  "ManufacturersModelName": "Prisma",
  "Modality": "MR",
  "MultibandAccelerationFactor": 6,
  "PartialFourier": 1,
  "PatientPosition": "HFS",
  "PercentPhaseFOV": 100,
  "PercentSampling": 100,
  "PhaseEncodingDirection": "j",
  "PhaseEncodingSteps": 104,
  "PhaseResolution": 1,
  "PixelBandwidth": 2290,
  "ProcedureStepDescription": "Investigators^Winawer",
  "ProtocolName": "cmrr_mbepi_s6_2mm_66sl_PA_task-bar1",
  "PulseSequenceDetails": "%CustomerSeq%\\cmrr_mbep2d_bold",
  "ReceiveCoilActiveElements": "HC1-7",
  "ReceiveCoilName": "HeadNeck_64",
  "ReconMatrixPE": 104,
  "RepetitionTime": 1,
  "SAR": 0.0707998,
  "ScanOptions": "FS",
  "ScanningSequence": "EP",
  "SequenceName": "epfid2d1_104",
  "SequenceVariant": "SK\\SS",
  "SeriesDescription": "cmrr_mbepi_s6_2mm_66sl_PA_task-bar1",
  "SeriesNumber": 8,
  "ShimSetting": [304, -12656, -8494, 138, 34, -48, 11, 20],
  "SliceThickness": 2,
  "SliceTiming": [0, 0.535, 0.0875, 0.6225, 0.1775, 0.7125, 0.2675, 0.8, 0.355, 0.89, 0.445, 0, 0.535, 0.0875, 0.6225, 0.1775, 0.7125, 0.2675, 0.8, 0.355, 0.89, 0.445, 0, 0.535, 0.0875, 0.6225, 0.1775, 0.7125, 0.2675, 0.8, 0.355, 0.89, 0.445, 0, 0.535, 0.0875, 0.6225, 0.1775, 0.7125, 0.2675, 0.8, 0.355, 0.89, 0.445, 0, 0.535, 0.0875, 0.6225, 0.1775, 0.7125, 0.2675, 0.8, 0.355, 0.89, 0.445, 0, 0.535, 0.0875, 0.6225, 0.1775, 0.7125, 0.2675, 0.8, 0.355, 0.89, 0.445],
  "SoftwareVersions": "syngo MR E11",
  "SpacingBetweenSlices": 2,
  "StationName": "AWP166018",
  "TaskName": "bar1",
  "TotalReadoutTime": 0.060771,
  "TxRefAmp": 216.547,
  "VendorReportedEchoSpacing": 0.00059,
  "WipMemBlock": "50542c11-b64b-4435-9d8d-6de3260945fc||Sequence: R016 ve11c/master r/8780670; Nov 27 2017 15:05:12 by eja",
  "dcmmeta_affine": [
    [-1.9907712936401367, -0.19168949127197266, 0.00919897761195898, 117.69992065429688],
    [-0.18981249630451202, 1.9526134729385376, -0.38893699645996094, -62.00932312011719],
    [-0.028296541422605515, 0.3880153298377991, 1.9617959260940552, -53.57741165161133],
    [0.0, 0.0, 0.0, 1.0]
],
  "dcmmeta_reorient_transform": [
    [0.0, -1.0, 0.0, 103.0],
    [1.0, 0.0, 0.0, 0.0],
    [0.0, 0.0, 1.0, 0.0],
    [0.0, 0.0, 0.0, 1.0]
],
  "dcmmeta_shape": [104, 104, 66, 300],
  "dcmmeta_slice_dim": 2,
  "dcmmeta_version": 0.6,
  "global": {
    "const": {
      "AccessionNumber": "Lf06gi6L",
      "AcquisitionMatrix": [104, 0, 0, 104],
      "AngioFlag": "N",
      "BitsAllocated": 16,
      "BitsStored": 16,
      "BodyPartExamined": "BRAIN",
      "Columns": 936,
      "EchoNumbers": 1,
      "EchoTime": 37.6,
      "EchoTrainLength": 104,
      "FlipAngle": 68.0,
      "HighBit": 15,
      "ImageOrientationPatient": [0.99538566889889, 0.0949062515469, -0.0141482708495, -0.0958447434891, 0.97630671908341, -0.1940076684518],
      "ImagePositionPatient": [-846.37395169896, -1030.359051066, 159.57391127336],
      "ImageType": [
        "ORIGINAL",
        "PRIMARY",
        "M",
        "MB",
        "ND",
        "MOSAIC"
],
      "ImagedNucleus": "1H",
      "ImagingFrequency": 123.196792,
      "InPlanePhaseEncodingDirection": "COL",
      "MRAcquisitionType": "2D",
      "MagneticFieldStrength": 3.0,
      "Manufacturer": "SIEMENS",
      "ManufacturerModelName": "Prisma",
      "Modality": "MR",
      "NumberOfAverages": 1.0,
      "NumberOfPhaseEncodingSteps": 104,
      "PercentPhaseFieldOfView": 100.0,
      "PercentSampling": 100.0,
      "PerformedProcedureStepStartTime": "103135.366000",
      "PhotometricInterpretation": "MONOCHROME2",
      "PixelBandwidth": 2290.0,
      "PixelRepresentation": 0,
      "PixelSpacing": [2.0, 2.0],
      "ProtocolName": "cmrr_mbepi_s6_2mm_66sl_PA_task-bar1",
      "RepetitionTime": 1000.0,
      "Rows": 936,
      "SAR": 0.07079980579539,
      "SamplesPerPixel": 1,
      "ScanOptions": "FS",
      "ScanningSequence": "EP",
      "SequenceName": "epfid2d1_104",
      "SequenceVariant": [
        "SK",
        "SS"
],
      "SeriesDescription": "cmrr_mbepi_s6_2mm_66sl_PA_task-bar1",
      "SeriesNumber": 8,
      "SeriesTime": "103921.110000",
      "SliceLocation": -39.953754088975,
      "SliceThickness": 2.0,
      "SmallestImagePixelValue": 0,
      "SoftwareVersions": "syngo MR E11",
      "SpacingBetweenSlices": 2.0000000125215,
      "SpecificCharacterSet": "ISO_IR 100",
      "StudyID": "1",
      "StudyTime": "103135.295000",
      "TransmitCoilName": "Body",
      "VariableFlipAngleFlag": "N",
      "WindowCenterWidthExplanation": "Algo1",
      "dBdt": 0.0},
    "slices": {}
  },
  "time": {
    "samples": {
      "AcquisitionNumber": [1, 2, 3, 4, 5, 6, 7, 8, 9, 10, 11, 12, 13, 14, 15, 16, 17, 18, 19, 20, 21, 22, 23, 24, 25, 26, 27, 28, 29, 30, 31, 32, 33, 34, 35, 36, 37, 38, 39, 40, 41, 42, 43, 44, 45, 46, 47, 48, 49, 50, 51, 52, 53, 54, 55, 56, 57, 58, 59, 60, 61, 62, 63, 64, 65, 66, 67, 68, 69, 70, 71, 72, 73, 74, 75, 76, 77, 78, 79, 80, 81, 82, 83, 84, 85, 86, 87, 88, 89, 90, 91, 92, 93, 94, 95, 96, 97, 98, 99, 100, 101, 102, 103, 104, 105, 106, 107, 108, 109, 110, 111, 112, 113, 114, 115, 116, 117, 118, 119, 120, 121, 122, 123, 124, 125, 126, 127, 128, 129, 130, 131, 132, 133, 134, 135, 136, 137, 138, 139, 140, 141, 142, 143, 144, 145, 146, 147, 148, 149, 150, 151, 152, 153, 154, 155, 156, 157, 158, 159, 160, 161, 162, 163, 164, 165, 166, 167, 168, 169, 170, 171, 172, 173, 174, 175, 176, 177, 178, 179, 180, 181, 182, 183, 184, 185, 186, 187, 188, 189, 190, 191, 192, 193, 194, 195, 196, 197, 198, 199, 200, 201, 202, 203, 204, 205, 206, 207, 208, 209, 210, 211, 212, 213, 214, 215, 216, 217, 218, 219, 220, 221, 222, 223, 224, 225, 226, 227, 228, 229, 230, 231, 232, 233, 234, 235, 236, 237, 238, 239, 240, 241, 242, 243, 244, 245, 246, 247, 248, 249, 250, 251, 252, 253, 254, 255, 256, 257, 258, 259, 260, 261, 262, 263, 264, 265, 266, 267, 268, 269, 270, 271, 272, 273, 274, 275, 276, 277, 278, 279, 280, 281, 282, 283, 284, 285, 286, 287, 288, 289, 290, 291, 292, 293, 294, 295, 296, 297, 298, 299, 300],
      "AcquisitionTime": ["103803.362500", "103804.362500", "103805.362500", "103806.362500", "103807.362500", "103808.362500", "103809.362500", "103810.362500", "103811.362500", "103812.362500", "103813.362500", "103814.362500", "103815.362500", "103816.362500", "103817.362500", "103818.362500", "103819.362500", "103820.362500", "103821.362500", "103822.362500", "103823.362500", "103824.362500", "103825.362500", "103826.362500", "103827.362500", "103828.362500", "103829.362500", "103830.362500", "103831.362500", "103832.362500", "103833.362500", "103834.362500", "103835.362500", "103836.362500", "103837.362500", "103838.362500", "103839.362500", "103840.362500", "103841.362500", "103842.362500", "103843.362500", "103844.362500", "103845.362500", "103846.362500", "103847.362500", "103848.362500", "103849.362500", "103850.362500", "103851.362500", "103852.362500", "103853.362500", "103854.362500", "103855.362500", "103856.362500", "103857.362500", "103858.362500", "103859.362500", "103900.362500", "103901.362500", "103902.362500", "103903.362500", "103904.362500", "103905.362500", "103906.362500", "103907.362500", "103908.362500", "103909.362500", "103910.362500", "103911.362500", "103912.362500", "103913.362500", "103914.362500", "103915.362500", "103916.362500", "103917.362500", "103918.362500", "103919.362500", "103920.362500", "103921.362500", "103922.362500", "103923.362500", "103924.362500", "103925.362500", "103926.362500", "103927.362500", "103928.362500", "103929.362500", "103930.362500", "103931.362500", "103932.362500", "103933.362500", "103934.362500", "103935.362500", "103936.362500", "103937.362500", "103938.362500", "103939.362500", "103940.362500", "103941.362500", "103942.362500", "103943.362500", "103944.362500", "103945.362500", "103946.362500", "103947.362500", "103948.362500", "103949.362500", "103950.362500", "103951.362500", "103952.362500", "103953.362500", "103954.362500", "103955.362500", "103956.362500", "103957.362500", "103958.362500", "103959.362500", "104000.362500", "104001.362500", "104002.362500", "104003.362500", "104004.362500", "104005.362500", "104006.362500", "104007.362500", "104008.362500", "104009.362500", "104010.362500", "104011.362500", "104012.362500", "104013.362500", "104014.362500", "104015.362500", "104016.362500", "104017.362500", "104018.362500", "104019.362500", "104020.362500", "104021.362500", "104022.362500", "104023.362500", "104024.362500", "104025.362500", "104026.362500", "104027.362500", "104028.362500", "104029.362500", "104030.362500", "104031.362500", "104032.362500", "104033.362500", "104034.362500", "104035.362500", "104036.362500", "104037.362500", "104038.362500", "104039.362500", "104040.362500", "104041.362500", "104042.362500", "104043.362500", "104044.362500", "104045.362500", "104046.362500", "104047.362500", "104048.362500", "104049.362500", "104050.362500", "104051.362500", "104052.362500", "104053.362500", "104054.362500", "104055.362500", "104056.362500", "104057.362500", "104058.362500", "104059.362500", "104100.362500", "104101.362500", "104102.362500", "104103.362500", "104104.362500", "104105.362500", "104106.362500", "104107.362500", "104108.362500", "104109.362500", "104110.362500", "104111.362500", "104112.362500", "104113.362500", "104114.362500", "104115.362500", "104116.362500", "104117.362500", "104118.362500", "104119.362500", "104120.362500", "104121.362500", "104122.362500", "104123.362500", "104124.362500", "104125.362500", "104126.362500", "104127.362500", "104128.362500", "104129.362500", "104130.362500", "104131.362500", "104132.362500", "104133.362500", "104134.362500", "104135.362500", "104136.362500", "104137.362500", "104138.362500", "104139.362500", "104140.362500", "104141.362500", "104142.362500", "104143.362500", "104144.362500", "104145.362500", "104146.362500", "104147.362500", "104148.362500", "104149.362500", "104150.362500", "104151.362500", "104152.362500", "104153.362500", "104154.362500", "104155.362500", "104156.362500", "104157.362500", "104158.362500", "104159.362500", "104200.362500", "104201.362500", "104202.362500", "104203.362500", "104204.362500", "104205.362500", "104206.362500", "104207.362500", "104208.362500", "104209.362500", "104210.362500", "104211.362500", "104212.362500", "104213.362500", "104214.362500", "104215.362500", "104216.362500", "104217.362500", "104218.362500", "104219.362500", "104220.362500", "104221.362500", "104222.362500", "104223.362500", "104224.362500", "104225.362500", "104226.362500", "104227.362500", "104228.362500", "104229.362500", "104230.362500", "104231.362500", "104232.362500", "104233.362500", "104234.362500", "104235.362500", "104236.362500", "104237.362500", "104238.362500", "104239.362500", "104240.362500", "104241.362500", "104242.362500", "104243.362500", "104244.362500", "104245.362500", "104246.362500", "104247.362500", "104248.362500", "104249.362500", "104250.362500", "104251.362500", "104252.362500", "104253.362500", "104254.362500", "104255.362500", "104256.362500", "104257.362500", "104258.362500", "104259.362500", "104300.362500", "104301.362500", "104302.362500"],
      "ContentTime": ["103921.114000", "103921.117000", "103921.120000", "103921.124000", "103921.127000", "103921.130000", "103921.133000", "103921.136000", "103921.139000", "103921.142000", "103921.145000", "103921.148000", "103921.151000", "103921.154000", "103921.158000", "103921.161000", "103921.164000", "103921.167000", "103921.170000", "103921.173000", "103921.176000", "103921.179000", "103921.183000", "103921.186000", "103921.200000", "103921.203000", "103921.206000", "103921.209000", "103921.212000", "103921.234000", "103921.237000", "103921.240000", "103921.244000", "103921.247000", "103921.250000", "103921.253000", "103921.256000", "103921.259000", "103941.081000", "103941.085000", "103941.088000", "103941.091000", "103941.100000", "103941.103000", "103941.106000", "103941.109000", "103941.112000", "103941.116000", "103941.119000", "103941.122000", "103941.125000", "103941.128000", "103941.131000", "103941.134000", "103941.137000", "103941.140000", "103941.143000", "103941.146000", "103941.149000", "103941.153000", "103941.156000", "103941.159000", "103941.162000", "103941.165000", "103941.168000", "103941.171000", "103941.174000", "104001.082000", "104001.085000", "104001.088000", "104001.091000", "104001.095000", "104001.098000", "104001.101000", "104001.104000", "104001.107000", "104001.110000", "104001.113000", "104001.116000", "104001.119000", "104001.122000", "104001.125000", "104001.128000", "104001.132000", "104001.135000", "104001.138000", "104001.141000", "104001.144000", "104001.147000", "104001.150000", "104001.153000", "104001.156000", "104001.159000", "104001.162000", "104001.165000", "104021.081000", "104021.084000", "104021.090000", "104021.093000", "104021.096000", "104021.099000", "104021.102000", "104021.105000", "104021.108000", "104021.111000", "104021.115000", "104021.118000", "104021.121000", "104021.124000", "104021.127000", "104021.130000", "104021.133000", "104021.136000", "104021.140000", "104021.143000", "104021.146000", "104021.149000", "104021.152000", "104021.155000", "104021.158000", "104021.161000", "104021.164000", "104021.167000", "104021.170000", "104041.081000", "104041.084000", "104041.087000", "104041.090000", "104041.094000", "104041.097000", "104041.100000", "104041.103000", "104041.114000", "104041.117000", "104041.120000", "104041.123000", "104041.126000", "104041.130000", "104041.133000", "104041.136000", "104041.139000", "104041.142000", "104041.145000", "104041.148000", "104041.151000", "104041.155000", "104041.158000", "104041.161000", "104041.164000", "104041.167000", "104041.170000", "104041.173000", "104101.081000", "104101.084000", "104101.087000", "104101.091000", "104101.094000", "104101.097000", "104101.100000", "104101.103000", "104101.114000", "104101.117000", "104101.120000", "104101.123000", "104101.127000", "104101.130000", "104101.133000", "104101.136000", "104101.139000", "104101.142000", "104101.145000", "104101.148000", "104101.151000", "104101.154000", "104101.158000", "104101.161000", "104101.164000", "104121.081000", "104121.084000", "104121.087000", "104121.090000", "104121.094000", "104121.097000", "104121.100000", "104121.103000", "104121.106000", "104121.109000", "104121.112000", "104121.116000", "104121.119000", "104121.122000", "104121.125000", "104121.128000", "104121.131000", "104121.134000", "104121.137000", "104121.140000", "104141.081000", "104141.084000", "104141.088000", "104141.091000", "104141.094000", "104141.097000", "104141.100000", "104141.103000", "104141.106000", "104141.109000", "104141.113000", "104141.116000", "104141.119000", "104141.122000", "104141.125000", "104141.128000", "104141.131000", "104141.134000", "104141.137000", "104141.140000", "104201.144000", "104201.147000", "104201.151000", "104201.154000", "104201.157000", "104201.160000", "104201.163000", "104201.166000", "104201.169000", "104201.172000", "104201.175000", "104201.179000", "104201.182000", "104201.185000", "104201.188000", "104201.191000", "104201.194000", "104201.197000", "104201.200000", "104201.203000", "104221.082000", "104221.085000", "104221.089000", "104221.092000", "104221.095000", "104221.098000", "104221.101000", "104221.104000", "104221.107000", "104221.110000", "104221.114000", "104221.117000", "104221.120000", "104221.123000", "104221.126000", "104221.129000", "104221.136000", "104221.139000", "104221.143000", "104221.146000", "104241.081000", "104241.084000", "104241.088000", "104241.091000", "104241.094000", "104241.097000", "104241.107000", "104241.110000", "104241.113000", "104241.117000", "104241.120000", "104241.123000", "104241.126000", "104241.129000", "104241.132000", "104241.135000", "104241.139000", "104241.142000", "104241.145000", "104241.148000", "104301.081000", "104301.084000", "104301.088000", "104301.091000", "104301.094000", "104301.097000", "104301.100000", "104301.103000", "104301.106000", "104301.109000", "104301.113000", "104301.116000", "104301.119000", "104301.122000", "104301.125000", "104301.128000", "104301.131000", "104301.134000", "104301.138000", "104301.141000", "104303.826000", "104303.830000", "104303.833000"],
      "InstanceCreationTime": ["103921.114000", "103921.117000", "103921.120000", "103921.124000", "103921.127000", "103921.130000", "103921.133000", "103921.136000", "103921.139000", "103921.142000", "103921.145000", "103921.148000", "103921.151000", "103921.154000", "103921.158000", "103921.161000", "103921.164000", "103921.167000", "103921.170000", "103921.173000", "103921.176000", "103921.179000", "103921.183000", "103921.186000", "103921.200000", "103921.203000", "103921.206000", "103921.209000", "103921.212000", "103921.234000", "103921.237000", "103921.240000", "103921.244000", "103921.247000", "103921.250000", "103921.253000", "103921.256000", "103921.259000", "103941.081000", "103941.085000", "103941.088000", "103941.091000", "103941.100000", "103941.103000", "103941.106000", "103941.109000", "103941.112000", "103941.116000", "103941.119000", "103941.122000", "103941.125000", "103941.128000", "103941.131000", "103941.134000", "103941.137000", "103941.140000", "103941.143000", "103941.146000", "103941.149000", "103941.153000", "103941.156000", "103941.159000", "103941.162000", "103941.165000", "103941.168000", "103941.171000", "103941.174000", "104001.082000", "104001.085000", "104001.088000", "104001.091000", "104001.095000", "104001.098000", "104001.101000", "104001.104000", "104001.107000", "104001.110000", "104001.113000", "104001.116000", "104001.119000", "104001.122000", "104001.125000", "104001.128000", "104001.132000", "104001.135000", "104001.138000", "104001.141000", "104001.144000", "104001.147000", "104001.150000", "104001.153000", "104001.156000", "104001.159000", "104001.162000", "104001.165000", "104021.081000", "104021.084000", "104021.090000", "104021.093000", "104021.096000", "104021.099000", "104021.102000", "104021.105000", "104021.108000", "104021.111000", "104021.115000", "104021.118000", "104021.121000", "104021.124000", "104021.127000", "104021.130000", "104021.133000", "104021.136000", "104021.140000", "104021.143000", "104021.146000", "104021.149000", "104021.152000", "104021.155000", "104021.158000", "104021.161000", "104021.164000", "104021.167000", "104021.170000", "104041.081000", "104041.084000", "104041.087000", "104041.090000", "104041.094000", "104041.097000", "104041.100000", "104041.103000", "104041.114000", "104041.117000", "104041.120000", "104041.123000", "104041.126000", "104041.130000", "104041.133000", "104041.136000", "104041.139000", "104041.142000", "104041.145000", "104041.148000", "104041.151000", "104041.155000", "104041.158000", "104041.161000", "104041.164000", "104041.167000", "104041.170000", "104041.173000", "104101.081000", "104101.084000", "104101.087000", "104101.091000", "104101.094000", "104101.097000", "104101.100000", "104101.103000", "104101.114000", "104101.117000", "104101.120000", "104101.123000", "104101.127000", "104101.130000", "104101.133000", "104101.136000", "104101.139000", "104101.142000", "104101.145000", "104101.148000", "104101.151000", "104101.154000", "104101.158000", "104101.161000", "104101.164000", "104121.081000", "104121.084000", "104121.087000", "104121.090000", "104121.094000", "104121.097000", "104121.100000", "104121.103000", "104121.106000", "104121.109000", "104121.112000", "104121.116000", "104121.119000", "104121.122000", "104121.125000", "104121.128000", "104121.131000", "104121.134000", "104121.137000", "104121.140000", "104141.081000", "104141.084000", "104141.088000", "104141.091000", "104141.094000", "104141.097000", "104141.100000", "104141.103000", "104141.106000", "104141.109000", "104141.113000", "104141.116000", "104141.119000", "104141.122000", "104141.125000", "104141.128000", "104141.131000", "104141.134000", "104141.137000", "104141.140000", "104201.144000", "104201.147000", "104201.151000", "104201.154000", "104201.157000", "104201.160000", "104201.163000", "104201.166000", "104201.169000", "104201.172000", "104201.175000", "104201.179000", "104201.182000", "104201.185000", "104201.188000", "104201.191000", "104201.194000", "104201.197000", "104201.200000", "104201.203000", "104221.082000", "104221.085000", "104221.089000", "104221.092000", "104221.095000", "104221.098000", "104221.101000", "104221.104000", "104221.107000", "104221.110000", "104221.114000", "104221.117000", "104221.120000", "104221.123000", "104221.126000", "104221.129000", "104221.136000", "104221.139000", "104221.143000", "104221.146000", "104241.081000", "104241.084000", "104241.088000", "104241.091000", "104241.094000", "104241.097000", "104241.107000", "104241.110000", "104241.113000", "104241.117000", "104241.120000", "104241.123000", "104241.126000", "104241.129000", "104241.132000", "104241.135000", "104241.139000", "104241.142000", "104241.145000", "104241.148000", "104301.081000", "104301.084000", "104301.088000", "104301.091000", "104301.094000", "104301.097000", "104301.100000", "104301.103000", "104301.106000", "104301.109000", "104301.113000", "104301.116000", "104301.119000", "104301.122000", "104301.125000", "104301.128000", "104301.131000", "104301.134000", "104301.138000", "104301.141000", "104303.826000", "104303.830000", "104303.833000"],
      "InstanceNumber": [1, 2, 3, 4, 5, 6, 7, 8, 9, 10, 11, 12, 13, 14, 15, 16, 17, 18, 19, 20, 21, 22, 23, 24, 25, 26, 27, 28, 29, 30, 31, 32, 33, 34, 35, 36, 37, 38, 39, 40, 41, 42, 43, 44, 45, 46, 47, 48, 49, 50, 51, 52, 53, 54, 55, 56, 57, 58, 59, 60, 61, 62, 63, 64, 65, 66, 67, 68, 69, 70, 71, 72, 73, 74, 75, 76, 77, 78, 79, 80, 81, 82, 83, 84, 85, 86, 87, 88, 89, 90, 91, 92, 93, 94, 95, 96, 97, 98, 99, 100, 101, 102, 103, 104, 105, 106, 107, 108, 109, 110, 111, 112, 113, 114, 115, 116, 117, 118, 119, 120, 121, 122, 123, 124, 125, 126, 127, 128, 129, 130, 131, 132, 133, 134, 135, 136, 137, 138, 139, 140, 141, 142, 143, 144, 145, 146, 147, 148, 149, 150, 151, 152, 153, 154, 155, 156, 157, 158, 159, 160, 161, 162, 163, 164, 165, 166, 167, 168, 169, 170, 171, 172, 173, 174, 175, 176, 177, 178, 179, 180, 181, 182, 183, 184, 185, 186, 187, 188, 189, 190, 191, 192, 193, 194, 195, 196, 197, 198, 199, 200, 201, 202, 203, 204, 205, 206, 207, 208, 209, 210, 211, 212, 213, 214, 215, 216, 217, 218, 219, 220, 221, 222, 223, 224, 225, 226, 227, 228, 229, 230, 231, 232, 233, 234, 235, 236, 237, 238, 239, 240, 241, 242, 243, 244, 245, 246, 247, 248, 249, 250, 251, 252, 253, 254, 255, 256, 257, 258, 259, 260, 261, 262, 263, 264, 265, 266, 267, 268, 269, 270, 271, 272, 273, 274, 275, 276, 277, 278, 279, 280, 281, 282, 283, 284, 285, 286, 287, 288, 289, 290, 291, 292, 293, 294, 295, 296, 297, 298, 299, 300],
      "LargestImagePixelValue": [33581, 32705, 32519, 31434, 31524, 31678, 30765, 31813, 31719, 31191, 31947, 31585, 31535, 32018, 32072, 31666, 32593, 31621, 31652, 31731, 31276, 32028, 31873, 31647, 32472, 32250, 31488, 32269, 32048, 31901, 32238, 31655, 32060, 32423, 31466, 32431, 32540, 31417, 32309, 32458, 31586, 32220, 32091, 32464, 32758, 32512, 32203, 32622, 31887, 32020, 32306, 32183, 32347, 32965, 32250, 32477, 32896, 32387, 32178, 33015, 32246, 33072, 32469, 32418, 32758, 32619, 32286, 32582, 32292, 32360, 33052, 32179, 32701, 33034, 32551, 32703, 32881, 32328, 32594, 32479, 32664, 33038, 33064, 32677, 32829, 33083, 32602, 33312, 32607, 32630, 32562, 32776, 32494, 32786, 32923, 32822, 32717, 32846, 33042, 33130, 32743, 32528, 32410, 32649, 32760, 32315, 31942, 32892, 33025, 32488, 32188, 32517, 32699, 32224, 33170, 33067, 32730, 33073, 33020, 32897, 33346, 33278, 32989, 33099, 33231, 33217, 32959, 32698, 32825, 32581, 32660, 32703, 32311, 32606, 32321, 32993, 32483, 32733, 32535, 32455, 32739, 32767, 32207, 33005, 32767, 33118, 32645, 32659, 32568, 32861, 32436, 32614, 32959, 32700, 32386, 33055, 32642, 32827, 32893, 32597, 32398, 32534, 31978, 32443, 32621, 32093, 32614, 32366, 31887, 32560, 32136, 31506, 31994, 31600, 32268, 32462, 31967, 32274, 32191, 32097, 32202, 32272, 32069, 32602, 32498, 31865, 32042, 32335, 31863, 31999, 32276, 31732, 32470, 32925, 31984, 32494, 32573, 32030, 32765, 32882, 32830, 32579, 32278, 32815, 32552, 32271, 32831, 32419, 32360, 32182, 31955, 31894, 32114, 31976, 31808, 32044, 31959, 31965, 31972, 31638, 32057, 32381, 32364, 32139, 32008, 31798, 32159, 32187, 31660, 32259, 31604, 31613, 32077, 31677, 31915, 31950, 31307, 31572, 31798, 31440, 31875, 31659, 31595, 31818, 31991, 31689, 31778, 31680, 31184, 31959, 31575, 31647, 31864, 30297, 30731, 30686, 31429, 30322, 30774, 31088, 31495, 30133, 30546, 31150, 30849, 30632, 30545, 30990, 30618, 30446, 30608, 30726, 30332, 30685, 30797, 30533, 31128, 30837, 30667, 30959, 30841, 30274, 30874, 30802, 29555, 29479, 30336, 30305, 28814, 29097, 26958, 27290, 27299, 27876, 26962, 29955, 28453, 27842, 28333, 27899],
      "WindowCenter": [9267.0, 9237.0, 9226.0, 9216.0, 9232.0, 9231.0, 9213.0, 9225.0, 9225.0, 9211.0, 9221.0, 9214.0, 9205.0, 9202.0, 9200.0, 9196.0, 9207.0, 9203.0, 9203.0, 9212.0, 9214.0, 9228.0, 9230.0, 9222.0, 9234.0, 9227.0, 9214.0, 9226.0, 9220.0, 9220.0, 9226.0, 9221.0, 9222.0, 9235.0, 9234.0, 9244.0, 9244.0, 9218.0, 9218.0, 9217.0, 9211.0, 9209.0, 9193.0, 9199.0, 9207.0, 9215.0, 9217.0, 9226.0, 9204.0, 9202.0, 9209.0, 9208.0, 9202.0, 9215.0, 9201.0, 9208.0, 9213.0, 9208.0, 9208.0, 9220.0, 9209.0, 9216.0, 9210.0, 9217.0, 9216.0, 9206.0, 9209.0, 9217.0, 9218.0, 9228.0, 9234.0, 9227.0, 9225.0, 9223.0, 9208.0, 9199.0, 9205.0, 9193.0, 9205.0, 9200.0, 9199.0, 9205.0, 9204.0, 9199.0, 9205.0, 9198.0, 9206.0, 9212.0, 9200.0, 9208.0, 9208.0, 9210.0, 9211.0, 9209.0, 9217.0, 9217.0, 9203.0, 9209.0, 9216.0, 9222.0, 9219.0, 9218.0, 9212.0, 9218.0, 9226.0, 9219.0, 9205.0, 9216.0, 9214.0, 9218.0, 9211.0, 9208.0, 9201.0, 9187.0, 9196.0, 9183.0, 9185.0, 9199.0, 9191.0, 9192.0, 9198.0, 9197.0, 9192.0, 9200.0, 9206.0, 9215.0, 9210.0, 9204.0, 9212.0, 9212.0, 9214.0, 9221.0, 9215.0, 9214.0, 9214.0, 9220.0, 9213.0, 9213.0, 9212.0, 9213.0, 9213.0, 9212.0, 9205.0, 9210.0, 9203.0, 9208.0, 9201.0, 9193.0, 9202.0, 9210.0, 9197.0, 9204.0, 9204.0, 9195.0, 9190.0, 9202.0, 9188.0, 9188.0, 9194.0, 9194.0, 9195.0, 9203.0, 9193.0, 9206.0, 9213.0, 9208.0, 9214.0, 9215.0, 9208.0, 9221.0, 9207.0, 9203.0, 9216.0, 9202.0, 9208.0, 9214.0, 9205.0, 9222.0, 9223.0, 9216.0, 9214.0, 9205.0, 9199.0, 9196.0, 9195.0, 9189.0, 9180.0, 9186.0, 9181.0, 9189.0, 9207.0, 9192.0, 9197.0, 9195.0, 9181.0, 9187.0, 9186.0, 9173.0, 9178.0, 9174.0, 9184.0, 9183.0, 9179.0, 9199.0, 9193.0, 9195.0, 9202.0, 9195.0, 9197.0, 9187.0, 9181.0, 9181.0, 9180.0, 9181.0, 9181.0, 9190.0, 9189.0, 9190.0, 9191.0, 9182.0, 9183.0, 9195.0, 9195.0, 9190.0, 9198.0, 9194.0, 9193.0, 9207.0, 9202.0, 9206.0, 9192.0, 9192.0, 9191.0, 9175.0, 9182.0, 9184.0, 9178.0, 9186.0, 9186.0, 9181.0, 9185.0, 9186.0, 9194.0, 9196.0, 9203.0, 9203.0, 9204.0, 9187.0, 9174.0, 9185.0, 9178.0, 9184.0, 9182.0, 9151.0, 9155.0, 9164.0, 9181.0, 9167.0, 9166.0, 9173.0, 9181.0, 9153.0, 9152.0, 9147.0, 9141.0, 9140.0, 9139.0, 9161.0, 9157.0, 9158.0, 9165.0, 9167.0, 9160.0, 9166.0, 9164.0, 9166.0, 9171.0, 9164.0, 9166.0, 9170.0, 9158.0, 9151.0, 9155.0, 9148.0, 9130.0, 9131.0, 9150.0, 9153.0, 9119.0, 9111.0, 9072.0, 9083.0, 9080.0, 9086.0, 9066.0, 9107.0, 9083.0, 9060.0, 9073.0, 9060.0],
