{
  "AcquisitionMatrixPE": 104,
  "AcquisitionNumber": 1,
  "AcquisitionTime": "12:06:39.770000",
  "BandwidthPerPixelPhaseEncode": 16.297,
  "BaseResolution": 104,
  "BodyPartExamined": "BRAIN",
  "ConsistencyInfo": "N4_VE11C_LATEST_20160120",
  "ConversionSoftware": "dcm2niix",
  "ConversionSoftwareVersion": "v1.0.20210317",
  "DerivedVendorReportedEchoSpacing": 0.000590009,
  "DeviceSerialNumber": "166018",
  "DwellTime": 2.1e-06,
  "EchoTime": 0.0376,
  "EchoTrainLength": 104,
  "EffectiveEchoSpacing": 0.000590009,
  "FlipAngle": 68,
  "ImageComments": "Unaliased MB6/PE3/LB",
  "ImageOrientationPatientDICOM": [0.99898, -0.0439155, 0.0105375, 0.0444898, 0.997055, -0.0624653],
  "ImageType": [
    "ORIGINAL",
    "PRIMARY",
    "M",
    "MB",
    "ND",
    "MOSAIC"
],
  "ImagingFrequency": 123.197,
  "InPlanePhaseEncodingDirectionDICOM": "COL",
  "InstitutionAddress": "Washington Place 6,NYC,NYC,US,10003",
  "InstitutionName": "NYU - CBI",
  "InstitutionalDepartmentName": "Department",
  "MRAcquisitionType": "2D",
  "MagneticFieldStrength": 3,
  "Manufacturer": "Siemens",
  "ManufacturersModelName": "Prisma",
  "Modality": "MR",
  "MultibandAccelerationFactor": 6,
  "PartialFourier": 1,
  "PatientPosition": "HFS",
  "PercentPhaseFOV": 100,
  "PercentSampling": 100,
  "PhaseEncodingDirection": "j",
  "PhaseEncodingSteps": 104,
  "PhaseResolution": 1,
  "PixelBandwidth": 2290,
  "ProcedureStepDescription": "Investigators^Winawer",
  "ProtocolName": "cmrr_mbepi_s6_2mm_66sl_PA_task-bar3",
  "PulseSequenceDetails": "%CustomerSeq%\\cmrr_mbep2d_bold",
  "ReceiveCoilActiveElements": "HC1-7",
  "ReceiveCoilName": "HeadNeck_64",
  "ReconMatrixPE": 104,
  "RepetitionTime": 1,
  "SAR": 0.0745475,
  "ScanOptions": "FS",
  "ScanningSequence": "EP",
  "SequenceName": "epfid2d1_104",
  "SequenceVariant": "SK\\SS",
  "SeriesDescription": "cmrr_mbepi_s6_2mm_66sl_PA_task-bar3",
  "SeriesNumber": 16,
  "ShimSetting": [283, -12639, -8484, 280, -31, -62, -36, 86],
  "SliceThickness": 2,
  "SliceTiming": [0, 0.535, 0.0875, 0.6225, 0.1775, 0.7125, 0.2675, 0.8, 0.355, 0.89, 0.445, 0, 0.535, 0.0875, 0.6225, 0.1775, 0.7125, 0.2675, 0.8, 0.355, 0.89, 0.445, 0, 0.535, 0.0875, 0.6225, 0.1775, 0.7125, 0.2675, 0.8, 0.355, 0.89, 0.445, 0, 0.535, 0.0875, 0.6225, 0.1775, 0.7125, 0.2675, 0.8, 0.355, 0.89, 0.445, 0, 0.535, 0.0875, 0.6225, 0.1775, 0.7125, 0.2675, 0.8, 0.355, 0.89, 0.445, 0, 0.535, 0.0875, 0.6225, 0.1775, 0.7125, 0.2675, 0.8, 0.355, 0.89, 0.445],
  "SoftwareVersions": "syngo MR E11",
  "SpacingBetweenSlices": 2,
  "StationName": "AWP166018",
  "TaskName": "bar3",
  "TotalReadoutTime": 0.060771,
  "TxRefAmp": 208.96,
  "VendorReportedEchoSpacing": 0.00059,
  "WipMemBlock": "ddbc6cc4-6d93-4710-8580-2e3f4428d0ab||Sequence: R016 ve11c/master r/8780670; Nov 27 2017 15:05:12 by eja",
  "dcmmeta_affine": [
    [-1.9979593753814697, 0.08897966146469116, 0.015526468865573406, 106.88592529296875],
    [0.08783107995986938, 1.994110107421875, -0.12574076652526855, -86.77977752685547],
    [0.0210749302059412, 0.12493062019348145, 1.9959830045700073, -46.41769790649414],
    [0.0, 0.0, 0.0, 1.0]
],
  "dcmmeta_reorient_transform": [
    [0.0, -1.0, 0.0, 103.0],
    [1.0, 0.0, 0.0, 0.0],
    [0.0, 0.0, 1.0, 0.0],
    [0.0, 0.0, 0.0, 1.0]
],
  "dcmmeta_shape": [104, 104, 66, 300],
  "dcmmeta_slice_dim": 2,
  "dcmmeta_version": 0.6,
  "global": {
    "const": {
      "AccessionNumber": "Litbm0vs",
      "AcquisitionMatrix": [104, 0, 0, 104],
      "AngioFlag": "N",
      "BitsAllocated": 16,
      "BitsStored": 16,
      "BodyPartExamined": "BRAIN",
      "Columns": 936,
      "EchoNumbers": 1,
      "EchoTime": 37.6,
      "EchoTrainLength": 104,
      "FlipAngle": 68.0,
      "HighBit": 15,
      "ImageOrientationPatient": [0.99897967303393, -0.0439155404765, 0.01053746505056, 0.04448983088785, 0.99705503351853, -0.062465311037],
      "ImagePositionPatient": [-984.21745921845, -911.62561459015, 9.654123572279],
      "ImageType": [
        "ORIGINAL",
        "PRIMARY",
        "M",
        "MB",
        "ND",
        "MOSAIC"
],
      "ImagedNucleus": "1H",
      "ImagingFrequency": 123.196795,
      "InPlanePhaseEncodingDirection": "COL",
      "MRAcquisitionType": "2D",
      "MagneticFieldStrength": 3.0,
      "Manufacturer": "SIEMENS",
      "ManufacturerModelName": "Prisma",
      "Modality": "MR",
      "NumberOfAverages": 1.0,
      "NumberOfPhaseEncodingSteps": 104,
      "PercentPhaseFieldOfView": 100.0,
      "PercentSampling": 100.0,
      "PerformedProcedureStepStartTime": "113000.110000",
      "PhotometricInterpretation": "MONOCHROME2",
      "PixelBandwidth": 2290.0,
      "PixelRepresentation": 0,
      "PixelSpacing": [2.0, 2.0],
      "ProtocolName": "cmrr_mbepi_s6_2mm_66sl_PA_task-bar3",
      "RepetitionTime": 1000.0,
      "Rows": 936,
      "SAR": 0.07454751776401,
      "SamplesPerPixel": 1,
      "ScanOptions": "FS",
      "ScanningSequence": "EP",
      "SequenceName": "epfid2d1_104",
      "SequenceVariant": [
        "SK",
        "SS"
],
      "SeriesDescription": "cmrr_mbepi_s6_2mm_66sl_PA_task-bar3",
      "SeriesNumber": 16,
      "SeriesTime": "120745.144000",
      "SliceLocation": -40.038809875023,
      "SliceThickness": 2.0,
      "SmallestImagePixelValue": 0,
      "SoftwareVersions": "syngo MR E11",
      "SpacingBetweenSlices": 1.9999999349825,
      "SpecificCharacterSet": "ISO_IR 100",
      "StudyID": "1",
      "StudyTime": "112959.991000",
      "TransmitCoilName": "Body",
      "VariableFlipAngleFlag": "N",
      "WindowCenterWidthExplanation": "Algo1",
      "dBdt": 0.0},
    "slices": {}
  },
  "time": {
    "samples": {
      "AcquisitionNumber": [1, 2, 3, 4, 5, 6, 7, 8, 9, 10, 11, 12, 13, 14, 15, 16, 17, 18, 19, 20, 21, 22, 23, 24, 25, 26, 27, 28, 29, 30, 31, 32, 33, 34, 35, 36, 37, 38, 39, 40, 41, 42, 43, 44, 45, 46, 47, 48, 49, 50, 51, 52, 53, 54, 55, 56, 57, 58, 59, 60, 61, 62, 63, 64, 65, 66, 67, 68, 69, 70, 71, 72, 73, 74, 75, 76, 77, 78, 79, 80, 81, 82, 83, 84, 85, 86, 87, 88, 89, 90, 91, 92, 93, 94, 95, 96, 97, 98, 99, 100, 101, 102, 103, 104, 105, 106, 107, 108, 109, 110, 111, 112, 113, 114, 115, 116, 117, 118, 119, 120, 121, 122, 123, 124, 125, 126, 127, 128, 129, 130, 131, 132, 133, 134, 135, 136, 137, 138, 139, 140, 141, 142, 143, 144, 145, 146, 147, 148, 149, 150, 151, 152, 153, 154, 155, 156, 157, 158, 159, 160, 161, 162, 163, 164, 165, 166, 167, 168, 169, 170, 171, 172, 173, 174, 175, 176, 177, 178, 179, 180, 181, 182, 183, 184, 185, 186, 187, 188, 189, 190, 191, 192, 193, 194, 195, 196, 197, 198, 199, 200, 201, 202, 203, 204, 205, 206, 207, 208, 209, 210, 211, 212, 213, 214, 215, 216, 217, 218, 219, 220, 221, 222, 223, 224, 225, 226, 227, 228, 229, 230, 231, 232, 233, 234, 235, 236, 237, 238, 239, 240, 241, 242, 243, 244, 245, 246, 247, 248, 249, 250, 251, 252, 253, 254, 255, 256, 257, 258, 259, 260, 261, 262, 263, 264, 265, 266, 267, 268, 269, 270, 271, 272, 273, 274, 275, 276, 277, 278, 279, 280, 281, 282, 283, 284, 285, 286, 287, 288, 289, 290, 291, 292, 293, 294, 295, 296, 297, 298, 299, 300],
      "AcquisitionTime": ["120639.770000", "120640.770000", "120641.770000", "120642.770000", "120643.770000", "120644.770000", "120645.770000", "120646.770000", "120647.770000", "120648.770000", "120649.770000", "120650.770000", "120651.770000", "120652.770000", "120653.770000", "120654.770000", "120655.770000", "120656.770000", "120657.770000", "120658.770000", "120659.770000", "120700.770000", "120701.770000", "120702.770000", "120703.770000", "120704.770000", "120705.770000", "120706.770000", "120707.770000", "120708.770000", "120709.770000", "120710.770000", "120711.770000", "120712.770000", "120713.770000", "120714.770000", "120715.770000", "120716.770000", "120717.770000", "120718.770000", "120719.770000", "120720.770000", "120721.770000", "120722.770000", "120723.770000", "120724.770000", "120725.770000", "120726.770000", "120727.770000", "120728.770000", "120729.770000", "120730.770000", "120731.770000", "120732.770000", "120733.770000", "120734.770000", "120735.770000", "120736.770000", "120737.770000", "120738.770000", "120739.770000", "120740.770000", "120741.770000", "120742.770000", "120743.770000", "120744.770000", "120745.770000", "120746.770000", "120747.770000", "120748.770000", "120749.770000", "120750.770000", "120751.770000", "120752.770000", "120753.770000", "120754.770000", "120755.770000", "120756.770000", "120757.770000", "120758.770000", "120759.770000", "120800.770000", "120801.770000", "120802.770000", "120803.770000", "120804.770000", "120805.770000", "120806.770000", "120807.770000", "120808.770000", "120809.770000", "120810.770000", "120811.770000", "120812.770000", "120813.770000", "120814.770000", "120815.770000", "120816.770000", "120817.770000", "120818.770000", "120819.770000", "120820.770000", "120821.770000", "120822.770000", "120823.770000", "120824.770000", "120825.770000", "120826.770000", "120827.770000", "120828.770000", "120829.770000", "120830.770000", "120831.770000", "120832.770000", "120833.770000", "120834.770000", "120835.770000", "120836.770000", "120837.770000", "120838.770000", "120839.770000", "120840.770000", "120841.770000", "120842.770000", "120843.770000", "120844.770000", "120845.770000", "120846.770000", "120847.770000", "120848.770000", "120849.770000", "120850.770000", "120851.770000", "120852.770000", "120853.770000", "120854.770000", "120855.770000", "120856.770000", "120857.770000", "120858.770000", "120859.770000", "120900.770000", "120901.770000", "120902.770000", "120903.770000", "120904.770000", "120905.770000", "120906.770000", "120907.770000", "120908.770000", "120909.770000", "120910.770000", "120911.770000", "120912.770000", "120913.770000", "120914.770000", "120915.770000", "120916.770000", "120917.770000", "120918.770000", "120919.770000", "120920.770000", "120921.770000", "120922.770000", "120923.770000", "120924.770000", "120925.770000", "120926.770000", "120927.770000", "120928.770000", "120929.770000", "120930.770000", "120931.770000", "120932.770000", "120933.770000", "120934.770000", "120935.770000", "120936.770000", "120937.770000", "120938.770000", "120939.770000", "120940.770000", "120941.770000", "120942.770000", "120943.770000", "120944.770000", "120945.770000", "120946.770000", "120947.770000", "120948.770000", "120949.770000", "120950.770000", "120951.770000", "120952.770000", "120953.770000", "120954.770000", "120955.770000", "120956.770000", "120957.770000", "120958.770000", "120959.770000", "121000.770000", "121001.770000", "121002.770000", "121003.770000", "121004.770000", "121005.770000", "121006.770000", "121007.770000", "121008.770000", "121009.770000", "121010.770000", "121011.770000", "121012.770000", "121013.770000", "121014.770000", "121015.770000", "121016.770000", "121017.770000", "121018.770000", "121019.770000", "121020.770000", "121021.770000", "121022.770000", "121023.770000", "121024.770000", "121025.770000", "121026.770000", "121027.770000", "121028.770000", "121029.770000", "121030.770000", "121031.770000", "121032.770000", "121033.770000", "121034.770000", "121035.770000", "121036.770000", "121037.770000", "121038.770000", "121039.770000", "121040.770000", "121041.770000", "121042.770000", "121043.770000", "121044.770000", "121045.770000", "121046.770000", "121047.770000", "121048.770000", "121049.770000", "121050.770000", "121051.770000", "121052.770000", "121053.770000", "121054.770000", "121055.770000", "121056.770000", "121057.770000", "121058.770000", "121059.770000", "121100.770000", "121101.770000", "121102.770000", "121103.770000", "121104.770000", "121105.770000", "121106.770000", "121107.770000", "121108.770000", "121109.770000", "121110.770000", "121111.770000", "121112.770000", "121113.770000", "121114.770000", "121115.770000", "121116.770000", "121117.770000", "121118.770000", "121119.770000", "121120.770000", "121121.770000", "121122.770000", "121123.770000", "121124.770000", "121125.770000", "121126.770000", "121127.770000", "121128.770000", "121129.770000", "121130.770000", "121131.770000", "121132.770000", "121133.770000", "121134.770000", "121135.770000", "121136.770000", "121137.770000", "121138.770000"],
      "ContentTime": ["120745.147000", "120745.151000", "120745.154000", "120745.157000", "120745.160000", "120745.163000", "120745.178000", "120745.182000", "120745.186000", "120745.189000", "120745.192000", "120745.195000", "120745.198000", "120805.116000", "120805.119000", "120805.122000", "120805.125000", "120805.128000", "120805.131000", "120805.134000", "120805.138000", "120805.141000", "120805.144000", "120805.147000", "120805.150000", "120805.153000", "120805.156000", "120805.258000", "120805.261000", "120805.264000", "120805.267000", "120805.270000", "120805.273000", "120805.276000", "120805.279000", "120805.282000", "120805.286000", "120805.289000", "120805.292000", "120805.295000", "120805.298000", "120805.301000", "120825.117000", "120825.120000", "120825.123000", "120825.126000", "120825.129000", "120825.149000", "120825.152000", "120825.155000", "120825.158000", "120825.161000", "120825.164000", "120825.167000", "120825.170000", "120825.173000", "120825.177000", "120825.180000", "120825.183000", "120825.186000", "120825.189000", "120825.198000", "120825.201000", "120825.204000", "120825.207000", "120825.210000", "120825.213000", "120825.216000", "120825.220000", "120825.223000", "120845.117000", "120845.120000", "120845.124000", "120845.127000", "120845.130000", "120845.133000", "120845.136000", "120845.139000", "120845.142000", "120845.145000", "120845.148000", "120845.151000", "120845.154000", "120845.157000", "120845.161000", "120845.164000", "120845.167000", "120845.170000", "120845.173000", "120845.176000", "120845.179000", "120845.182000", "120845.185000", "120845.188000", "120845.191000", "120845.194000", "120845.198000", "120845.201000", "120905.117000", "120905.120000", "120905.124000", "120905.127000", "120905.130000", "120905.133000", "120905.136000", "120905.140000", "120905.143000", "120905.146000", "120905.150000", "120905.154000", "120905.158000", "120905.161000", "120905.164000", "120905.167000", "120905.170000", "120905.173000", "120905.176000", "120905.179000", "120905.182000", "120905.185000", "120905.189000", "120905.192000", "120905.195000", "120905.198000", "120905.201000", "120905.204000", "120925.117000", "120925.120000", "120925.123000", "120925.126000", "120925.130000", "120925.133000", "120925.136000", "120925.139000", "120925.142000", "120925.145000", "120925.148000", "120925.151000", "120925.154000", "120925.157000", "120925.160000", "120925.164000", "120925.167000", "120925.170000", "120925.173000", "120925.176000", "120925.179000", "120925.182000", "120925.185000", "120925.188000", "120925.192000", "120925.195000", "120925.198000", "120925.201000", "120925.204000", "120945.117000", "120945.120000", "120945.123000", "120945.127000", "120945.130000", "120945.133000", "120945.136000", "120945.139000", "120945.142000", "120945.145000", "120945.148000", "120945.151000", "120945.154000", "120945.157000", "120945.185000", "120945.189000", "120945.192000", "120945.195000", "120945.198000", "120945.201000", "120945.204000", "120945.207000", "120945.210000", "120945.213000", "120945.216000", "120945.219000", "120945.222000", "120945.226000", "121005.116000", "121005.119000", "121005.123000", "121005.126000", "121005.129000", "121005.132000", "121005.135000", "121005.138000", "121005.141000", "121005.144000", "121005.147000", "121005.150000", "121005.154000", "121005.157000", "121005.160000", "121005.163000", "121005.166000", "121005.169000", "121005.172000", "121005.175000", "121005.178000", "121025.116000", "121025.119000", "121025.123000", "121025.126000", "121025.129000", "121025.132000", "121025.135000", "121025.138000", "121025.141000", "121025.144000", "121025.147000", "121025.150000", "121025.153000", "121025.157000", "121025.160000", "121025.163000", "121025.166000", "121025.169000", "121025.172000", "121025.175000", "121045.117000", "121045.120000", "121045.123000", "121045.126000", "121045.130000", "121045.133000", "121045.136000", "121045.139000", "121045.142000", "121045.145000", "121045.148000", "121045.151000", "121045.154000", "121045.158000", "121045.161000", "121045.164000", "121045.167000", "121045.170000", "121045.195000", "121045.198000", "121105.117000", "121105.120000", "121105.123000", "121105.126000", "121105.130000", "121105.133000", "121105.136000", "121105.139000", "121105.142000", "121105.145000", "121105.148000", "121105.151000", "121105.154000", "121105.158000", "121105.161000", "121105.164000", "121105.167000", "121105.170000", "121105.173000", "121105.176000", "121125.117000", "121125.120000", "121125.123000", "121125.126000", "121125.130000", "121125.133000", "121125.136000", "121125.139000", "121125.142000", "121125.145000", "121125.148000", "121125.151000", "121125.154000", "121125.158000", "121125.161000", "121125.164000", "121125.167000", "121125.170000", "121125.173000", "121125.176000", "121140.521000", "121140.524000", "121140.527000", "121140.530000", "121140.534000", "121140.537000", "121140.540000", "121140.543000", "121140.546000", "121140.549000", "121140.552000", "121140.555000", "121140.559000", "121140.562000", "121140.565000", "121140.568000"],
      "InstanceCreationTime": ["120745.147000", "120745.151000", "120745.154000", "120745.157000", "120745.160000", "120745.163000", "120745.178000", "120745.182000", "120745.186000", "120745.189000", "120745.192000", "120745.195000", "120745.198000", "120805.116000", "120805.119000", "120805.122000", "120805.125000", "120805.128000", "120805.131000", "120805.134000", "120805.138000", "120805.141000", "120805.144000", "120805.147000", "120805.150000", "120805.153000", "120805.156000", "120805.258000", "120805.261000", "120805.264000", "120805.267000", "120805.270000", "120805.273000", "120805.276000", "120805.279000", "120805.282000", "120805.286000", "120805.289000", "120805.292000", "120805.295000", "120805.298000", "120805.301000", "120825.117000", "120825.120000", "120825.123000", "120825.126000", "120825.129000", "120825.149000", "120825.152000", "120825.155000", "120825.158000", "120825.161000", "120825.164000", "120825.167000", "120825.170000", "120825.173000", "120825.177000", "120825.180000", "120825.183000", "120825.186000", "120825.189000", "120825.198000", "120825.201000", "120825.204000", "120825.207000", "120825.210000", "120825.213000", "120825.216000", "120825.220000", "120825.223000", "120845.117000", "120845.120000", "120845.124000", "120845.127000", "120845.130000", "120845.133000", "120845.136000", "120845.139000", "120845.142000", "120845.145000", "120845.148000", "120845.151000", "120845.154000", "120845.157000", "120845.161000", "120845.164000", "120845.167000", "120845.170000", "120845.173000", "120845.176000", "120845.179000", "120845.182000", "120845.185000", "120845.188000", "120845.191000", "120845.194000", "120845.198000", "120845.201000", "120905.117000", "120905.120000", "120905.124000", "120905.127000", "120905.130000", "120905.133000", "120905.136000", "120905.140000", "120905.143000", "120905.146000", "120905.150000", "120905.154000", "120905.158000", "120905.161000", "120905.164000", "120905.167000", "120905.170000", "120905.173000", "120905.176000", "120905.179000", "120905.182000", "120905.185000", "120905.189000", "120905.192000", "120905.195000", "120905.198000", "120905.201000", "120905.204000", "120925.117000", "120925.120000", "120925.123000", "120925.126000", "120925.130000", "120925.133000", "120925.136000", "120925.139000", "120925.142000", "120925.145000", "120925.148000", "120925.151000", "120925.154000", "120925.157000", "120925.160000", "120925.164000", "120925.167000", "120925.170000", "120925.173000", "120925.176000", "120925.179000", "120925.182000", "120925.185000", "120925.188000", "120925.192000", "120925.195000", "120925.198000", "120925.201000", "120925.204000", "120945.117000", "120945.120000", "120945.123000", "120945.127000", "120945.130000", "120945.133000", "120945.136000", "120945.139000", "120945.142000", "120945.145000", "120945.148000", "120945.151000", "120945.154000", "120945.157000", "120945.185000", "120945.189000", "120945.192000", "120945.195000", "120945.198000", "120945.201000", "120945.204000", "120945.207000", "120945.210000", "120945.213000", "120945.216000", "120945.219000", "120945.222000", "120945.226000", "121005.116000", "121005.119000", "121005.123000", "121005.126000", "121005.129000", "121005.132000", "121005.135000", "121005.138000", "121005.141000", "121005.144000", "121005.147000", "121005.150000", "121005.154000", "121005.157000", "121005.160000", "121005.163000", "121005.166000", "121005.169000", "121005.172000", "121005.175000", "121005.178000", "121025.116000", "121025.119000", "121025.123000", "121025.126000", "121025.129000", "121025.132000", "121025.135000", "121025.138000", "121025.141000", "121025.144000", "121025.147000", "121025.150000", "121025.153000", "121025.157000", "121025.160000", "121025.163000", "121025.166000", "121025.169000", "121025.172000", "121025.175000", "121045.117000", "121045.120000", "121045.123000", "121045.126000", "121045.130000", "121045.133000", "121045.136000", "121045.139000", "121045.142000", "121045.145000", "121045.148000", "121045.151000", "121045.154000", "121045.158000", "121045.161000", "121045.164000", "121045.167000", "121045.170000", "121045.195000", "121045.198000", "121105.117000", "121105.120000", "121105.123000", "121105.126000", "121105.130000", "121105.133000", "121105.136000", "121105.139000", "121105.142000", "121105.145000", "121105.148000", "121105.151000", "121105.154000", "121105.158000", "121105.161000", "121105.164000", "121105.167000", "121105.170000", "121105.173000", "121105.176000", "121125.117000", "121125.120000", "121125.123000", "121125.126000", "121125.130000", "121125.133000", "121125.136000", "121125.139000", "121125.142000", "121125.145000", "121125.148000", "121125.151000", "121125.154000", "121125.158000", "121125.161000", "121125.164000", "121125.167000", "121125.170000", "121125.173000", "121125.176000", "121140.521000", "121140.524000", "121140.527000", "121140.530000", "121140.534000", "121140.537000", "121140.540000", "121140.543000", "121140.546000", "121140.549000", "121140.552000", "121140.555000", "121140.559000", "121140.562000", "121140.565000", "121140.568000"],
      "InstanceNumber": [1, 2, 3, 4, 5, 6, 7, 8, 9, 10, 11, 12, 13, 14, 15, 16, 17, 18, 19, 20, 21, 22, 23, 24, 25, 26, 27, 28, 29, 30, 31, 32, 33, 34, 35, 36, 37, 38, 39, 40, 41, 42, 43, 44, 45, 46, 47, 48, 49, 50, 51, 52, 53, 54, 55, 56, 57, 58, 59, 60, 61, 62, 63, 64, 65, 66, 67, 68, 69, 70, 71, 72, 73, 74, 75, 76, 77, 78, 79, 80, 81, 82, 83, 84, 85, 86, 87, 88, 89, 90, 91, 92, 93, 94, 95, 96, 97, 98, 99, 100, 101, 102, 103, 104, 105, 106, 107, 108, 109, 110, 111, 112, 113, 114, 115, 116, 117, 118, 119, 120, 121, 122, 123, 124, 125, 126, 127, 128, 129, 130, 131, 132, 133, 134, 135, 136, 137, 138, 139, 140, 141, 142, 143, 144, 145, 146, 147, 148, 149, 150, 151, 152, 153, 154, 155, 156, 157, 158, 159, 160, 161, 162, 163, 164, 165, 166, 167, 168, 169, 170, 171, 172, 173, 174, 175, 176, 177, 178, 179, 180, 181, 182, 183, 184, 185, 186, 187, 188, 189, 190, 191, 192, 193, 194, 195, 196, 197, 198, 199, 200, 201, 202, 203, 204, 205, 206, 207, 208, 209, 210, 211, 212, 213, 214, 215, 216, 217, 218, 219, 220, 221, 222, 223, 224, 225, 226, 227, 228, 229, 230, 231, 232, 233, 234, 235, 236, 237, 238, 239, 240, 241, 242, 243, 244, 245, 246, 247, 248, 249, 250, 251, 252, 253, 254, 255, 256, 257, 258, 259, 260, 261, 262, 263, 264, 265, 266, 267, 268, 269, 270, 271, 272, 273, 274, 275, 276, 277, 278, 279, 280, 281, 282, 283, 284, 285, 286, 287, 288, 289, 290, 291, 292, 293, 294, 295, 296, 297, 298, 299, 300],
      "LargestImagePixelValue": [41452, 39720, 38511, 38226, 37619, 37412, 37688, 38616, 37800, 37565, 37160, 37727, 37103, 37651, 37233, 37200, 37659, 37904, 37525, 37713, 37777, 37639, 37851, 38382, 37959, 37540, 37834, 37526, 37333, 37506, 37264, 37648, 37780, 37668, 37838, 38208, 37774, 37342, 37888, 38474, 37911, 37564, 37798, 38279, 38189, 37879, 37407, 37321, 38294, 38607, 38244, 38094, 37612, 37615, 38080, 37871, 37953, 37974, 37900, 37977, 37781, 37607, 37324, 38272, 37671, 37644, 37525, 37844, 38196, 37995, 37731, 37298, 37758, 38045, 37567, 37647, 37412, 37488, 38630, 37979, 37632, 37489, 37690, 37869, 37699, 37822, 37618, 37898, 38823, 38197, 37568, 37627, 37602, 38018, 38325, 37994, 37857, 37635, 37828, 38366, 38078, 37444, 37800, 37805, 37892, 37917, 37917, 37767, 38311, 37845, 37609, 38149, 38527, 38208, 37877, 38202, 38089, 38270, 38688, 38282, 38308, 38126, 38035, 38414, 38252, 37711, 38376, 38359, 38304, 38654, 37974, 38368, 38703, 38256, 38253, 38475, 38060, 38269, 37931, 37852, 38445, 38467, 38045, 38602, 38684, 38377, 38449, 37783, 37740, 37941, 37647, 37502, 37475, 37789, 37883, 37978, 37878, 37880, 38210, 37973, 38242, 38410, 38096, 38038, 38154, 38202, 38376, 38125, 38053, 37762, 39497, 38633, 38110, 38380, 38427, 37991, 38571, 38085, 38077, 39141, 38356, 38361, 38320, 37914, 38595, 38065, 38266, 38076, 37906, 38816, 37938, 37786, 38004, 37168, 37615, 37516, 38319, 38426, 37632, 37258, 37624, 37818, 38615, 38137, 38121, 38190, 38995, 39024, 38243, 38635, 38665, 38888, 39258, 37963, 38067, 38205, 38712, 38094, 38224, 38426, 38205, 37958, 37923, 38157, 37839, 38386, 37601, 37498, 37614, 37186, 37548, 37601, 37111, 36885, 37459, 37019, 37194, 37582, 36826, 37398, 37540, 36922, 37076, 37528, 38336, 37817, 37311, 37260, 37538, 37879, 38038, 38133, 37959, 37762, 37619, 37842, 38020, 37989, 37708, 37810, 37834, 37878, 38283, 37649, 37748, 37685, 37523, 38173, 38083, 37887, 37947, 38764, 37905, 38285, 38524, 38450, 37887, 37896, 37508, 38562, 37632, 37610, 37743, 37544, 37761, 37557, 37741, 38819, 38163, 37766, 37873, 38003, 38684, 37620, 37626, 38073, 37691, 38145, 37825, 38101],
      "WindowCenter": [10290.0, 10223.0, 10198.0, 10183.0, 10169.0, 10182.0, 10196.0, 10205.0, 10180.0, 10167.0, 10154.0, 10153.0, 10160.0, 10160.0, 10158.0, 10164.0, 10170.0, 10167.0, 10168.0, 10167.0, 10166.0, 10176.0, 10175.0, 10185.0, 10181.0, 10182.0, 10190.0, 10194.0, 10187.0, 10170.0, 10165.0, 10174.0, 10166.0, 10166.0, 10149.0, 10154.0, 10152.0, 10143.0, 10147.0, 10159.0, 10149.0, 10140.0, 10142.0, 10158.0, 10146.0, 10156.0, 10148.0, 10148.0, 10166.0, 10166.0, 10168.0, 10163.0, 10158.0, 10165.0, 10170.0, 10164.0, 10164.0, 10180.0, 10175.0, 10171.0, 10164.0, 10162.0, 10160.0, 10177.0, 10173.0, 10171.0, 10166.0, 10172.0, 10167.0, 10175.0, 10171.0, 10168.0, 10168.0, 10162.0, 10151.0, 10162.0, 10163.0, 10164.0, 10179.0, 10170.0, 10154.0, 10142.0, 10146.0, 10144.0, 10152.0, 10145.0, 10130.0, 10138.0, 10142.0, 10135.0, 10130.0, 10129.0, 10141.0, 10144.0, 10154.0, 10153.0, 10162.0, 10169.0, 10171.0, 10176.0, 10170.0, 10165.0, 10173.0, 10173.0, 10179.0, 10182.0, 10181.0, 10179.0, 10175.0, 10150.0, 10147.0, 10148.0, 10155.0, 10138.0, 10146.0, 10154.0, 10156.0, 10163.0, 10160.0, 10152.0, 10146.0, 10147.0, 10160.0, 10175.0, 10184.0, 10177.0, 10189.0, 10186.0, 10179.0, 10192.0, 10188.0, 10179.0, 10183.0, 10177.0, 10170.0, 10170.0, 10171.0, 10184.0, 10179.0, 10168.0, 10171.0, 10178.0, 10179.0, 10198.0, 10191.0, 10190.0, 10191.0, 10188.0, 10173.0, 10189.0, 10171.0, 10164.0, 10165.0, 10163.0, 10156.0, 10161.0, 10156.0, 10154.0, 10156.0, 10163.0, 10175.0, 10178.0, 10170.0, 10168.0, 10170.0, 10169.0, 10169.0, 10171.0, 10170.0, 10171.0, 10193.0, 10190.0, 10194.0, 10211.0, 10203.0, 10203.0, 10216.0, 10203.0, 10190.0, 10190.0, 10177.0, 10176.0, 10178.0, 10180.0, 10177.0, 10177.0, 10177.0, 10165.0, 10166.0, 10174.0, 10162.0, 10171.0, 10177.0, 10161.0, 10181.0, 10183.0, 10184.0, 10168.0, 10155.0, 10149.0, 10160.0, 10154.0, 10168.0, 10157.0, 10151.0, 10162.0, 10181.0, 10174.0, 10173.0, 10186.0, 10194.0, 10193.0, 10184.0, 10167.0, 10160.0, 10162.0, 10163.0, 10146.0, 10159.0, 10166.0, 10175.0, 10175.0, 10168.0, 10159.0, 10160.0, 10166.0, 10154.0, 10149.0, 10148.0, 10135.0, 10139.0, 10146.0, 10134.0, 10131.0, 10133.0, 10130.0, 10131.0, 10139.0, 10143.0, 10157.0, 10151.0, 10131.0, 10127.0, 10131.0, 10138.0, 10127.0, 10121.0, 10114.0, 10120.0, 10134.0, 10140.0, 10141.0, 10144.0, 10131.0, 10132.0, 10133.0, 10138.0, 10146.0, 10146.0, 10140.0, 10143.0, 10150.0, 10160.0, 10158.0, 10160.0, 10162.0, 10157.0, 10176.0, 10191.0, 10198.0, 10204.0, 10200.0, 10182.0, 10177.0, 10169.0, 10162.0, 10149.0, 10155.0, 10166.0, 10180.0, 10179.0, 10187.0, 10182.0, 10173.0, 10169.0, 10163.0, 10168.0, 10188.0, 10175.0, 10176.0, 10163.0, 10155.0, 10163.0, 10141.0, 10137.0, 10141.0, 10129.0, 10131.0, 10128.0, 10139.0],
