{
  "AcquisitionMatrixPE": 104,
  "AcquisitionNumber": 1,
  "AcquisitionTime": "12:13:1.422500",
  "BandwidthPerPixelPhaseEncode": 16.297,
  "BaseResolution": 104,
  "BodyPartExamined": "BRAIN",
  "ConsistencyInfo": "N4_VE11C_LATEST_20160120",
  "ConversionSoftware": "dcm2niix",
  "ConversionSoftwareVersion": "v1.0.20210317",
  "DerivedVendorReportedEchoSpacing": 0.000590009,
  "DeviceSerialNumber": "166018",
  "DwellTime": 2.1e-06,
  "EchoTime": 0.0376,
  "EchoTrainLength": 104,
  "EffectiveEchoSpacing": 0.000590009,
  "FlipAngle": 68,
  "ImageComments": "Unaliased MB6/PE3/LB",
  "ImageOrientationPatientDICOM": [0.99898, -0.0439155, 0.0105375, 0.0444898, 0.997055, -0.0624653],
  "ImageType": [
    "ORIGINAL",
    "PRIMARY",
    "M",
    "MB",
    "ND",
    "MOSAIC"
],
  "ImagingFrequency": 123.197,
  "InPlanePhaseEncodingDirectionDICOM": "COL",
  "InstitutionAddress": "Washington Place 6,NYC,NYC,US,10003",
  "InstitutionName": "NYU - CBI",
  "InstitutionalDepartmentName": "Department",
  "MRAcquisitionType": "2D",
  "MagneticFieldStrength": 3,
  "Manufacturer": "Siemens",
  "ManufacturersModelName": "Prisma",
  "Modality": "MR",
  "MultibandAccelerationFactor": 6,
  "PartialFourier": 1,
  "PatientPosition": "HFS",
  "PercentPhaseFOV": 100,
  "PercentSampling": 100,
  "PhaseEncodingDirection": "j",
  "PhaseEncodingSteps": 104,
  "PhaseResolution": 1,
  "PixelBandwidth": 2290,
  "ProcedureStepDescription": "Investigators^Winawer",
  "ProtocolName": "cmrr_mbepi_s6_2mm_66sl_PA_task-wedgering3",
  "PulseSequenceDetails": "%CustomerSeq%\\cmrr_mbep2d_bold",
  "ReceiveCoilActiveElements": "HC1-7",
  "ReceiveCoilName": "HeadNeck_64",
  "ReconMatrixPE": 104,
  "RepetitionTime": 1,
  "SAR": 0.0745475,
  "ScanOptions": "FS",
  "ScanningSequence": "EP",
  "SequenceName": "epfid2d1_104",
  "SequenceVariant": "SK\\SS",
  "SeriesDescription": "cmrr_mbepi_s6_2mm_66sl_PA_task-wedgering3",
  "SeriesNumber": 18,
  "ShimSetting": [283, -12639, -8484, 280, -31, -62, -36, 86],
  "SliceThickness": 2,
  "SliceTiming": [0, 0.535, 0.09, 0.6225, 0.1775, 0.7125, 0.2675, 0.8025, 0.355, 0.89, 0.445, 0, 0.535, 0.09, 0.6225, 0.1775, 0.7125, 0.2675, 0.8025, 0.355, 0.89, 0.445, 0, 0.535, 0.09, 0.6225, 0.1775, 0.7125, 0.2675, 0.8025, 0.355, 0.89, 0.445, 0, 0.535, 0.09, 0.6225, 0.1775, 0.7125, 0.2675, 0.8025, 0.355, 0.89, 0.445, 0, 0.535, 0.09, 0.6225, 0.1775, 0.7125, 0.2675, 0.8025, 0.355, 0.89, 0.445, 0, 0.535, 0.09, 0.6225, 0.1775, 0.7125, 0.2675, 0.8025, 0.355, 0.89, 0.445],
  "SoftwareVersions": "syngo MR E11",
  "SpacingBetweenSlices": 2,
  "StationName": "AWP166018",
  "TaskName": "wedgering3",
  "TotalReadoutTime": 0.060771,
  "TxRefAmp": 208.96,
  "VendorReportedEchoSpacing": 0.00059,
  "WipMemBlock": "44786c13-dc12-4003-84db-8e2361ab7ad7||Sequence: R016 ve11c/master r/8780670; Nov 27 2017 15:05:12 by eja",
  "dcmmeta_affine": [
    [-1.9979593753814697, 0.08897966146469116, 0.015526468865573406, 106.88592529296875],
    [0.08783107995986938, 1.994110107421875, -0.12574076652526855, -86.77977752685547],
    [0.0210749302059412, 0.12493062019348145, 1.9959830045700073, -46.41769790649414],
    [0.0, 0.0, 0.0, 1.0]
],
  "dcmmeta_reorient_transform": [
    [0.0, -1.0, 0.0, 103.0],
    [1.0, 0.0, 0.0, 0.0],
    [0.0, 0.0, 1.0, 0.0],
    [0.0, 0.0, 0.0, 1.0]
],
  "dcmmeta_shape": [104, 104, 66, 300],
  "dcmmeta_slice_dim": 2,
  "dcmmeta_version": 0.6,
  "global": {
    "const": {
      "AccessionNumber": "Litbm0vs",
      "AcquisitionMatrix": [104, 0, 0, 104],
      "AngioFlag": "N",
      "BitsAllocated": 16,
      "BitsStored": 16,
      "BodyPartExamined": "BRAIN",
      "Columns": 936,
      "EchoNumbers": 1,
      "EchoTime": 37.6,
      "EchoTrainLength": 104,
      "FlipAngle": 68.0,
      "HighBit": 15,
      "ImageOrientationPatient": [0.99897967303393, -0.0439155404765, 0.01053746505056, 0.04448983088785, 0.99705503351853, -0.062465311037],
      "ImagePositionPatient": [-984.21745921845, -911.62561459015, 9.654123572279],
      "ImageType": [
        "ORIGINAL",
        "PRIMARY",
        "M",
        "MB",
        "ND",
        "MOSAIC"
],
      "ImagedNucleus": "1H",
      "ImagingFrequency": 123.196797,
      "InPlanePhaseEncodingDirection": "COL",
      "MRAcquisitionType": "2D",
      "MagneticFieldStrength": 3.0,
      "Manufacturer": "SIEMENS",
      "ManufacturerModelName": "Prisma",
      "Modality": "MR",
      "NumberOfAverages": 1.0,
      "NumberOfPhaseEncodingSteps": 104,
      "PercentPhaseFieldOfView": 100.0,
      "PercentSampling": 100.0,
      "PerformedProcedureStepStartTime": "113000.110000",
      "PhotometricInterpretation": "MONOCHROME2",
      "PixelBandwidth": 2290.0,
      "PixelRepresentation": 0,
      "PixelSpacing": [2.0, 2.0],
      "ProtocolName": "cmrr_mbepi_s6_2mm_66sl_PA_task-wedgering3",
      "RepetitionTime": 1000.0,
      "Rows": 936,
      "SAR": 0.07454751776401,
      "SamplesPerPixel": 1,
      "ScanOptions": "FS",
      "ScanningSequence": "EP",
      "SequenceName": "epfid2d1_104",
      "SequenceVariant": [
        "SK",
        "SS"
],
      "SeriesDescription": "cmrr_mbepi_s6_2mm_66sl_PA_task-wedgering3",
      "SeriesNumber": 18,
      "SeriesTime": "121425.226000",
      "SliceLocation": -40.038809875023,
      "SliceThickness": 2.0,
      "SmallestImagePixelValue": 0,
      "SoftwareVersions": "syngo MR E11",
      "SpacingBetweenSlices": 1.9999999349825,
      "SpecificCharacterSet": "ISO_IR 100",
      "StudyID": "1",
      "StudyTime": "112959.991000",
      "TransmitCoilName": "Body",
      "VariableFlipAngleFlag": "N",
      "WindowCenterWidthExplanation": "Algo1",
      "dBdt": 0.0},
    "slices": {}
  },
  "time": {
    "samples": {
      "AcquisitionNumber": [1, 2, 3, 4, 5, 6, 7, 8, 9, 10, 11, 12, 13, 14, 15, 16, 17, 18, 19, 20, 21, 22, 23, 24, 25, 26, 27, 28, 29, 30, 31, 32, 33, 34, 35, 36, 37, 38, 39, 40, 41, 42, 43, 44, 45, 46, 47, 48, 49, 50, 51, 52, 53, 54, 55, 56, 57, 58, 59, 60, 61, 62, 63, 64, 65, 66, 67, 68, 69, 70, 71, 72, 73, 74, 75, 76, 77, 78, 79, 80, 81, 82, 83, 84, 85, 86, 87, 88, 89, 90, 91, 92, 93, 94, 95, 96, 97, 98, 99, 100, 101, 102, 103, 104, 105, 106, 107, 108, 109, 110, 111, 112, 113, 114, 115, 116, 117, 118, 119, 120, 121, 122, 123, 124, 125, 126, 127, 128, 129, 130, 131, 132, 133, 134, 135, 136, 137, 138, 139, 140, 141, 142, 143, 144, 145, 146, 147, 148, 149, 150, 151, 152, 153, 154, 155, 156, 157, 158, 159, 160, 161, 162, 163, 164, 165, 166, 167, 168, 169, 170, 171, 172, 173, 174, 175, 176, 177, 178, 179, 180, 181, 182, 183, 184, 185, 186, 187, 188, 189, 190, 191, 192, 193, 194, 195, 196, 197, 198, 199, 200, 201, 202, 203, 204, 205, 206, 207, 208, 209, 210, 211, 212, 213, 214, 215, 216, 217, 218, 219, 220, 221, 222, 223, 224, 225, 226, 227, 228, 229, 230, 231, 232, 233, 234, 235, 236, 237, 238, 239, 240, 241, 242, 243, 244, 245, 246, 247, 248, 249, 250, 251, 252, 253, 254, 255, 256, 257, 258, 259, 260, 261, 262, 263, 264, 265, 266, 267, 268, 269, 270, 271, 272, 273, 274, 275, 276, 277, 278, 279, 280, 281, 282, 283, 284, 285, 286, 287, 288, 289, 290, 291, 292, 293, 294, 295, 296, 297, 298, 299, 300],
      "AcquisitionTime": ["121301.422500", "121302.422500", "121303.422500", "121304.422500", "121305.422500", "121306.422500", "121307.422500", "121308.422500", "121309.422500", "121310.422500", "121311.422500", "121312.422500", "121313.422500", "121314.422500", "121315.422500", "121316.422500", "121317.422500", "121318.422500", "121319.422500", "121320.422500", "121321.422500", "121322.422500", "121323.422500", "121324.422500", "121325.422500", "121326.422500", "121327.422500", "121328.422500", "121329.422500", "121330.422500", "121331.422500", "121332.422500", "121333.422500", "121334.422500", "121335.422500", "121336.422500", "121337.422500", "121338.422500", "121339.422500", "121340.422500", "121341.422500", "121342.422500", "121343.422500", "121344.422500", "121345.422500", "121346.422500", "121347.422500", "121348.422500", "121349.422500", "121350.422500", "121351.422500", "121352.422500", "121353.422500", "121354.422500", "121355.422500", "121356.422500", "121357.422500", "121358.422500", "121359.422500", "121400.422500", "121401.422500", "121402.422500", "121403.422500", "121404.422500", "121405.422500", "121406.422500", "121407.422500", "121408.422500", "121409.422500", "121410.422500", "121411.422500", "121412.422500", "121413.422500", "121414.422500", "121415.422500", "121416.422500", "121417.422500", "121418.422500", "121419.422500", "121420.422500", "121421.422500", "121422.422500", "121423.422500", "121424.422500", "121425.422500", "121426.422500", "121427.422500", "121428.422500", "121429.422500", "121430.422500", "121431.422500", "121432.422500", "121433.422500", "121434.422500", "121435.422500", "121436.422500", "121437.422500", "121438.422500", "121439.422500", "121440.422500", "121441.422500", "121442.422500", "121443.422500", "121444.422500", "121445.422500", "121446.422500", "121447.422500", "121448.422500", "121449.422500", "121450.422500", "121451.422500", "121452.422500", "121453.422500", "121454.422500", "121455.422500", "121456.422500", "121457.422500", "121458.422500", "121459.422500", "121500.422500", "121501.422500", "121502.422500", "121503.422500", "121504.422500", "121505.422500", "121506.422500", "121507.422500", "121508.422500", "121509.422500", "121510.422500", "121511.422500", "121512.422500", "121513.422500", "121514.422500", "121515.422500", "121516.422500", "121517.422500", "121518.422500", "121519.422500", "121520.422500", "121521.422500", "121522.422500", "121523.422500", "121524.422500", "121525.422500", "121526.422500", "121527.422500", "121528.422500", "121529.422500", "121530.422500", "121531.422500", "121532.422500", "121533.422500", "121534.422500", "121535.422500", "121536.422500", "121537.422500", "121538.422500", "121539.422500", "121540.422500", "121541.422500", "121542.422500", "121543.422500", "121544.422500", "121545.422500", "121546.422500", "121547.422500", "121548.422500", "121549.422500", "121550.422500", "121551.422500", "121552.422500", "121553.422500", "121554.422500", "121555.422500", "121556.422500", "121557.422500", "121558.422500", "121559.422500", "121600.422500", "121601.422500", "121602.422500", "121603.422500", "121604.422500", "121605.422500", "121606.422500", "121607.422500", "121608.422500", "121609.422500", "121610.422500", "121611.422500", "121612.422500", "121613.422500", "121614.422500", "121615.422500", "121616.422500", "121617.422500", "121618.422500", "121619.422500", "121620.422500", "121621.422500", "121622.422500", "121623.422500", "121624.422500", "121625.422500", "121626.422500", "121627.422500", "121628.422500", "121629.422500", "121630.422500", "121631.422500", "121632.422500", "121633.422500", "121634.422500", "121635.422500", "121636.422500", "121637.422500", "121638.422500", "121639.422500", "121640.422500", "121641.422500", "121642.422500", "121643.422500", "121644.422500", "121645.422500", "121646.422500", "121647.422500", "121648.422500", "121649.422500", "121650.422500", "121651.422500", "121652.422500", "121653.422500", "121654.422500", "121655.422500", "121656.422500", "121657.422500", "121658.422500", "121659.422500", "121700.422500", "121701.422500", "121702.422500", "121703.422500", "121704.422500", "121705.422500", "121706.422500", "121707.422500", "121708.422500", "121709.422500", "121710.422500", "121711.422500", "121712.422500", "121713.422500", "121714.422500", "121715.422500", "121716.422500", "121717.422500", "121718.422500", "121719.422500", "121720.422500", "121721.422500", "121722.422500", "121723.422500", "121724.422500", "121725.422500", "121726.422500", "121727.422500", "121728.422500", "121729.422500", "121730.422500", "121731.422500", "121732.422500", "121733.422500", "121734.422500", "121735.422500", "121736.422500", "121737.422500", "121738.422500", "121739.422500", "121740.422500", "121741.422500", "121742.422500", "121743.422500", "121744.422500", "121745.422500", "121746.422500", "121747.422500", "121748.422500", "121749.422500", "121750.422500", "121751.422500", "121752.422500", "121753.422500", "121754.422500", "121755.422500", "121756.422500", "121757.422500", "121758.422500", "121759.422500", "121800.422500"],
      "ContentTime": ["121425.229000", "121425.233000", "121425.236000", "121425.239000", "121425.242000", "121425.245000", "121425.248000", "121425.251000", "121425.254000", "121425.258000", "121425.261000", "121425.264000", "121425.267000", "121425.270000", "121425.273000", "121425.276000", "121425.279000", "121425.286000", "121425.290000", "121425.293000", "121425.296000", "121425.299000", "121425.302000", "121425.305000", "121425.308000", "121425.311000", "121425.316000", "121425.319000", "121425.323000", "121425.327000", "121425.330000", "121425.333000", "121425.336000", "121425.339000", "121425.342000", "121425.346000", "121425.349000", "121425.352000", "121425.355000", "121425.358000", "121445.190000", "121445.195000", "121445.198000", "121445.201000", "121445.204000", "121445.207000", "121445.210000", "121445.214000", "121445.235000", "121445.238000", "121445.241000", "121445.244000", "121445.247000", "121445.250000", "121445.253000", "121445.256000", "121445.260000", "121445.263000", "121445.266000", "121445.269000", "121445.272000", "121445.275000", "121445.278000", "121445.281000", "121445.284000", "121445.287000", "121445.291000", "121445.294000", "121505.189000", "121505.192000", "121505.195000", "121505.199000", "121505.202000", "121505.205000", "121505.208000", "121505.211000", "121505.214000", "121505.224000", "121505.227000", "121505.230000", "121505.233000", "121505.236000", "121505.240000", "121505.243000", "121505.246000", "121505.249000", "121505.252000", "121505.255000", "121505.258000", "121505.261000", "121505.264000", "121505.267000", "121505.270000", "121505.273000", "121505.276000", "121505.280000", "121505.283000", "121525.190000", "121525.193000", "121525.197000", "121525.200000", "121525.203000", "121525.206000", "121525.210000", "121525.213000", "121525.216000", "121525.219000", "121525.222000", "121525.236000", "121525.240000", "121525.246000", "121525.249000", "121525.252000", "121525.255000", "121525.259000", "121525.262000", "121525.265000", "121525.268000", "121525.271000", "121525.274000", "121525.277000", "121525.280000", "121525.283000", "121525.286000", "121525.289000", "121545.190000", "121545.193000", "121545.197000", "121545.200000", "121545.210000", "121545.213000", "121545.216000", "121545.219000", "121545.222000", "121545.226000", "121545.229000", "121545.232000", "121545.235000", "121545.238000", "121545.241000", "121545.244000", "121545.247000", "121545.250000", "121545.253000", "121545.256000", "121545.259000", "121545.263000", "121545.266000", "121545.269000", "121545.272000", "121545.275000", "121545.278000", "121545.281000", "121605.190000", "121605.193000", "121605.196000", "121605.200000", "121605.203000", "121605.206000", "121605.209000", "121605.212000", "121605.215000", "121605.218000", "121605.221000", "121605.224000", "121605.227000", "121605.231000", "121605.234000", "121605.237000", "121605.240000", "121605.243000", "121605.246000", "121605.249000", "121605.252000", "121605.256000", "121605.259000", "121605.262000", "121605.265000", "121605.268000", "121605.271000", "121605.274000", "121625.190000", "121625.205000", "121625.208000", "121625.211000", "121625.214000", "121625.217000", "121625.221000", "121625.224000", "121625.227000", "121625.230000", "121625.233000", "121625.236000", "121625.239000", "121625.243000", "121625.246000", "121625.249000", "121625.252000", "121625.255000", "121625.258000", "121625.261000", "121625.264000", "121625.267000", "121645.190000", "121645.193000", "121645.196000", "121645.200000", "121645.203000", "121645.206000", "121645.209000", "121645.212000", "121645.215000", "121645.227000", "121645.230000", "121645.233000", "121645.236000", "121645.239000", "121645.242000", "121645.245000", "121645.248000", "121645.251000", "121645.254000", "121645.258000", "121705.189000", "121705.228000", "121705.232000", "121705.235000", "121705.238000", "121705.241000", "121705.244000", "121705.247000", "121705.250000", "121705.253000", "121705.256000", "121705.259000", "121705.262000", "121705.265000", "121705.269000", "121705.272000", "121705.275000", "121705.278000", "121705.281000", "121705.284000", "121725.189000", "121725.192000", "121725.196000", "121725.199000", "121725.202000", "121725.205000", "121725.208000", "121725.211000", "121725.214000", "121725.217000", "121725.220000", "121725.224000", "121725.227000", "121725.230000", "121725.233000", "121725.236000", "121725.239000", "121725.242000", "121725.245000", "121725.248000", "121745.190000", "121745.234000", "121745.237000", "121745.240000", "121745.243000", "121745.246000", "121745.249000", "121745.252000", "121745.255000", "121745.258000", "121745.261000", "121745.265000", "121745.268000", "121745.271000", "121745.274000", "121745.287000", "121745.290000", "121745.293000", "121745.296000", "121745.302000", "121801.604000", "121801.608000", "121801.611000", "121801.614000", "121801.617000", "121801.621000", "121801.624000", "121801.627000", "121801.630000", "121801.633000", "121801.636000", "121801.639000", "121801.642000", "121801.645000", "121801.648000", "121801.651000", "121801.654000"],
      "InstanceCreationTime": ["121425.229000", "121425.233000", "121425.236000", "121425.239000", "121425.242000", "121425.245000", "121425.248000", "121425.251000", "121425.254000", "121425.258000", "121425.261000", "121425.264000", "121425.267000", "121425.270000", "121425.273000", "121425.276000", "121425.279000", "121425.286000", "121425.290000", "121425.293000", "121425.296000", "121425.299000", "121425.302000", "121425.305000", "121425.308000", "121425.311000", "121425.316000", "121425.319000", "121425.323000", "121425.327000", "121425.330000", "121425.333000", "121425.336000", "121425.339000", "121425.342000", "121425.346000", "121425.349000", "121425.352000", "121425.355000", "121425.358000", "121445.190000", "121445.195000", "121445.198000", "121445.201000", "121445.204000", "121445.207000", "121445.210000", "121445.214000", "121445.235000", "121445.238000", "121445.241000", "121445.244000", "121445.247000", "121445.250000", "121445.253000", "121445.256000", "121445.260000", "121445.263000", "121445.266000", "121445.269000", "121445.272000", "121445.275000", "121445.278000", "121445.281000", "121445.284000", "121445.287000", "121445.291000", "121445.294000", "121505.189000", "121505.192000", "121505.195000", "121505.199000", "121505.202000", "121505.205000", "121505.208000", "121505.211000", "121505.214000", "121505.224000", "121505.227000", "121505.230000", "121505.233000", "121505.236000", "121505.240000", "121505.243000", "121505.246000", "121505.249000", "121505.252000", "121505.255000", "121505.258000", "121505.261000", "121505.264000", "121505.267000", "121505.270000", "121505.273000", "121505.276000", "121505.280000", "121505.283000", "121525.190000", "121525.193000", "121525.197000", "121525.200000", "121525.203000", "121525.206000", "121525.210000", "121525.213000", "121525.216000", "121525.219000", "121525.222000", "121525.236000", "121525.240000", "121525.246000", "121525.249000", "121525.252000", "121525.255000", "121525.259000", "121525.262000", "121525.265000", "121525.268000", "121525.271000", "121525.274000", "121525.277000", "121525.280000", "121525.283000", "121525.286000", "121525.289000", "121545.190000", "121545.193000", "121545.197000", "121545.200000", "121545.210000", "121545.213000", "121545.216000", "121545.219000", "121545.222000", "121545.226000", "121545.229000", "121545.232000", "121545.235000", "121545.238000", "121545.241000", "121545.244000", "121545.247000", "121545.250000", "121545.253000", "121545.256000", "121545.259000", "121545.263000", "121545.266000", "121545.269000", "121545.272000", "121545.275000", "121545.278000", "121545.281000", "121605.190000", "121605.193000", "121605.196000", "121605.200000", "121605.203000", "121605.206000", "121605.209000", "121605.212000", "121605.215000", "121605.218000", "121605.221000", "121605.224000", "121605.227000", "121605.231000", "121605.234000", "121605.237000", "121605.240000", "121605.243000", "121605.246000", "121605.249000", "121605.252000", "121605.256000", "121605.259000", "121605.262000", "121605.265000", "121605.268000", "121605.271000", "121605.274000", "121625.190000", "121625.205000", "121625.208000", "121625.211000", "121625.214000", "121625.217000", "121625.221000", "121625.224000", "121625.227000", "121625.230000", "121625.233000", "121625.236000", "121625.239000", "121625.243000", "121625.246000", "121625.249000", "121625.252000", "121625.255000", "121625.258000", "121625.261000", "121625.264000", "121625.267000", "121645.190000", "121645.193000", "121645.196000", "121645.200000", "121645.203000", "121645.206000", "121645.209000", "121645.212000", "121645.215000", "121645.227000", "121645.230000", "121645.233000", "121645.236000", "121645.239000", "121645.242000", "121645.245000", "121645.248000", "121645.251000", "121645.254000", "121645.258000", "121705.189000", "121705.228000", "121705.232000", "121705.235000", "121705.238000", "121705.241000", "121705.244000", "121705.247000", "121705.250000", "121705.253000", "121705.256000", "121705.259000", "121705.262000", "121705.265000", "121705.269000", "121705.272000", "121705.275000", "121705.278000", "121705.281000", "121705.284000", "121725.189000", "121725.192000", "121725.196000", "121725.199000", "121725.202000", "121725.205000", "121725.208000", "121725.211000", "121725.214000", "121725.217000", "121725.220000", "121725.224000", "121725.227000", "121725.230000", "121725.233000", "121725.236000", "121725.239000", "121725.242000", "121725.245000", "121725.248000", "121745.190000", "121745.234000", "121745.237000", "121745.240000", "121745.243000", "121745.246000", "121745.249000", "121745.252000", "121745.255000", "121745.258000", "121745.261000", "121745.265000", "121745.268000", "121745.271000", "121745.274000", "121745.287000", "121745.290000", "121745.293000", "121745.296000", "121745.302000", "121801.604000", "121801.608000", "121801.611000", "121801.614000", "121801.617000", "121801.621000", "121801.624000", "121801.627000", "121801.630000", "121801.633000", "121801.636000", "121801.639000", "121801.642000", "121801.645000", "121801.648000", "121801.651000", "121801.654000"],
      "InstanceNumber": [1, 2, 3, 4, 5, 6, 7, 8, 9, 10, 11, 12, 13, 14, 15, 16, 17, 18, 19, 20, 21, 22, 23, 24, 25, 26, 27, 28, 29, 30, 31, 32, 33, 34, 35, 36, 37, 38, 39, 40, 41, 42, 43, 44, 45, 46, 47, 48, 49, 50, 51, 52, 53, 54, 55, 56, 57, 58, 59, 60, 61, 62, 63, 64, 65, 66, 67, 68, 69, 70, 71, 72, 73, 74, 75, 76, 77, 78, 79, 80, 81, 82, 83, 84, 85, 86, 87, 88, 89, 90, 91, 92, 93, 94, 95, 96, 97, 98, 99, 100, 101, 102, 103, 104, 105, 106, 107, 108, 109, 110, 111, 112, 113, 114, 115, 116, 117, 118, 119, 120, 121, 122, 123, 124, 125, 126, 127, 128, 129, 130, 131, 132, 133, 134, 135, 136, 137, 138, 139, 140, 141, 142, 143, 144, 145, 146, 147, 148, 149, 150, 151, 152, 153, 154, 155, 156, 157, 158, 159, 160, 161, 162, 163, 164, 165, 166, 167, 168, 169, 170, 171, 172, 173, 174, 175, 176, 177, 178, 179, 180, 181, 182, 183, 184, 185, 186, 187, 188, 189, 190, 191, 192, 193, 194, 195, 196, 197, 198, 199, 200, 201, 202, 203, 204, 205, 206, 207, 208, 209, 210, 211, 212, 213, 214, 215, 216, 217, 218, 219, 220, 221, 222, 223, 224, 225, 226, 227, 228, 229, 230, 231, 232, 233, 234, 235, 236, 237, 238, 239, 240, 241, 242, 243, 244, 245, 246, 247, 248, 249, 250, 251, 252, 253, 254, 255, 256, 257, 258, 259, 260, 261, 262, 263, 264, 265, 266, 267, 268, 269, 270, 271, 272, 273, 274, 275, 276, 277, 278, 279, 280, 281, 282, 283, 284, 285, 286, 287, 288, 289, 290, 291, 292, 293, 294, 295, 296, 297, 298, 299, 300],
      "LargestImagePixelValue": [42979, 41196, 41138, 40847, 40338, 39912, 40105, 39895, 40115, 39849, 39983, 39929, 39745, 40078, 40170, 40032, 40154, 39892, 39770, 39994, 39974, 39822, 40414, 40226, 39740, 39908, 39181, 39735, 39704, 39734, 39792, 40146, 39817, 40121, 40265, 39726, 40310, 40006, 39165, 39040, 39810, 39104, 39802, 40234, 39170, 39664, 38668, 38974, 39538, 39681, 40032, 40467, 40116, 40153, 40033, 39090, 39578, 39968, 39514, 39608, 40308, 40327, 41066, 40696, 40438, 41763, 41376, 41467, 41747, 40922, 41212, 41100, 41341, 41420, 41167, 40799, 41100, 41128, 40696, 41197, 41327, 40971, 41323, 41593, 41369, 41349, 41154, 41600, 41827, 41331, 41325, 41375, 41744, 41693, 41842, 41900, 41947, 41615, 41498, 41829, 41659, 41658, 42072, 41932, 41848, 41704, 41909, 41955, 42162, 42156, 41403, 42009, 42087, 42362, 41870, 41210, 41623, 41788, 41243, 41393, 41756, 41381, 41197, 41502, 41374, 41567, 41672, 41278, 41444, 41903, 41998, 41895, 41909, 41561, 41101, 41770, 41333, 41706, 41939, 41352, 41425, 41513, 41542, 41704, 41600, 41630, 41312, 41638, 41665, 41905, 42250, 41947, 41738, 41929, 41977, 41616, 41357, 38962, 38509, 38641, 38811, 38914, 39126, 39242, 39160, 39204, 39496, 39522, 38536, 39312, 38682, 39274, 38984, 39195, 40024, 39712, 39365, 39197, 38871, 39147, 39984, 40223, 39133, 39361, 39299, 39402, 39862, 39906, 39804, 39367, 39321, 39931, 40355, 39979, 39732, 39761, 39485, 39749, 39738, 39732, 39646, 39627, 39990, 40070, 39835, 40124, 39168, 39822, 40368, 40388, 40114, 39862, 40158, 39693, 40156, 39980, 40045, 39782, 39701, 39926, 39550, 39836, 39953, 39762, 39566, 39927, 39652, 39855, 39529, 39465, 39856, 40008, 39628, 39646, 39160, 39268, 39164, 39193, 39333, 38772, 38662, 39042, 39212, 39129, 39506, 38773, 38908, 39147, 39034, 38955, 38825, 38825, 38644, 38545, 38779, 38665, 38660, 38416, 39273, 38415, 38545, 38609, 38721, 39407, 39226, 38758, 38600, 38524, 38400, 38562, 38725, 38203, 38467, 38458, 38765, 39423, 39534, 38770, 38464, 38043, 38489, 40088, 39583, 38538, 38631, 38386, 38499, 39759, 38725, 38728, 38707, 38502, 38702, 39887, 39679, 39143, 39475, 39543, 39068, 39898],
      "WindowCenter": [10354.0, 10301.0, 10286.0, 10276.0, 10258.0, 10245.0, 10260.0, 10243.0, 10249.0, 10249.0, 10251.0, 10257.0, 10243.0, 10242.0, 10246.0, 10232.0, 10231.0, 10232.0, 10233.0, 10238.0, 10241.0, 10234.0, 10245.0, 10245.0, 10241.0, 10255.0, 10239.0, 10243.0, 10241.0, 10240.0, 10240.0, 10241.0, 10239.0, 10242.0, 10251.0, 10243.0, 10252.0, 10242.0, 10229.0, 10222.0, 10231.0, 10226.0, 10236.0, 10249.0, 10233.0, 10246.0, 10229.0, 10227.0, 10235.0, 10234.0, 10232.0, 10231.0, 10218.0, 10210.0, 10210.0, 10195.0, 10206.0, 10212.0, 10206.0, 10205.0, 10216.0, 10217.0, 10225.0, 10238.0, 10243.0, 10280.0, 10270.0, 10260.0, 10252.0, 10244.0, 10237.0, 10239.0, 10233.0, 10231.0, 10246.0, 10252.0, 10266.0, 10274.0, 10263.0, 10259.0, 10249.0, 10245.0, 10236.0, 10270.0, 10245.0, 10236.0, 10239.0, 10231.0, 10242.0, 10241.0, 10254.0, 10262.0, 10263.0, 10262.0, 10251.0, 10236.0, 10225.0, 10215.0, 10214.0, 10228.0, 10223.0, 10223.0, 10234.0, 10235.0, 10243.0, 10247.0, 10247.0, 10244.0, 10248.0, 10248.0, 10238.0, 10243.0, 10247.0, 10241.0, 10249.0, 10244.0, 10249.0, 10250.0, 10232.0, 10230.0, 10230.0, 10229.0, 10223.0, 10230.0, 10231.0, 10234.0, 10235.0, 10229.0, 10235.0, 10244.0, 10243.0, 10241.0, 10240.0, 10232.0, 10221.0, 10237.0, 10228.0, 10227.0, 10231.0, 10214.0, 10207.0, 10206.0, 10206.0, 10203.0, 10215.0, 10219.0, 10219.0, 10219.0, 10220.0, 10229.0, 10232.0, 10238.0, 10235.0, 10238.0, 10237.0, 10239.0, 10234.0, 10229.0, 10204.0, 10201.0, 10206.0, 10203.0, 10204.0, 10210.0, 10212.0, 10217.0, 10217.0, 10216.0, 10218.0, 10242.0, 10216.0, 10221.0, 10211.0, 10198.0, 10197.0, 10190.0, 10197.0, 10201.0, 10195.0, 10191.0, 10195.0, 10192.0, 10174.0, 10175.0, 10170.0, 10169.0, 10179.0, 10170.0, 10170.0, 10159.0, 10164.0, 10181.0, 10182.0, 10179.0, 10183.0, 10177.0, 10168.0, 10168.0, 10166.0, 10165.0, 10174.0, 10182.0, 10188.0, 10195.0, 10188.0, 10188.0, 10189.0, 10208.0, 10201.0, 10186.0, 10179.0, 10185.0, 10204.0, 10199.0, 10197.0, 10203.0, 10195.0, 10197.0, 10206.0, 10211.0, 10207.0, 10208.0, 10206.0, 10205.0, 10205.0, 10208.0, 10198.0, 10195.0, 10195.0, 10197.0, 10205.0, 10192.0, 10184.0, 10179.0, 10168.0, 10176.0, 10169.0, 10161.0, 10160.0, 10147.0, 10151.0, 10159.0, 10164.0, 10167.0, 10167.0, 10155.0, 10151.0, 10144.0, 10137.0, 10142.0, 10145.0, 10143.0, 10147.0, 10151.0, 10163.0, 10159.0, 10166.0, 10161.0, 10169.0, 10167.0, 10153.0, 10156.0, 10164.0, 10171.0, 10171.0, 10160.0, 10139.0, 10130.0, 10129.0, 10140.0, 10139.0, 10136.0, 10136.0, 10143.0, 10157.0, 10165.0, 10169.0, 10157.0, 10139.0, 10134.0, 10139.0, 10151.0, 10157.0, 10137.0, 10134.0, 10127.0, 10129.0, 10145.0, 10134.0, 10140.0, 10135.0, 10139.0, 10144.0, 10172.0, 10163.0, 10157.0, 10151.0, 10158.0, 10160.0, 10177.0],
