{
  "AcquisitionMatrixPE": 104,
  "AcquisitionNumber": 1,
  "AcquisitionTime": "15:46:29.520000",
  "BandwidthPerPixelPhaseEncode": 16.297,
  "BaseResolution": 104,
  "BodyPartExamined": "BRAIN",
  "ConsistencyInfo": "N4_VE11C_LATEST_20160120",
  "ConversionSoftware": "dcm2niix",
  "ConversionSoftwareVersion": "v1.0.20190902",
  "DerivedVendorReportedEchoSpacing": 0.000590009,
  "DeviceSerialNumber": "166018",
  "DwellTime": 2.1e-06,
  "EchoTime": 0.0376,
  "EchoTrainLength": 104,
  "EffectiveEchoSpacing": 0.000590009,
  "FlipAngle": 68,
  "ImageComments": "Unaliased_MB6_PE3_LB",
  "ImageOrientationPatientDICOM": [0.999364, 0.0195196, -0.0298285, -0.0266929, 0.964362, -0.263236],
  "ImageType": [
    "ORIGINAL",
    "PRIMARY",
    "M",
    "MB",
    "ND",
    "MOSAIC"
],
  "ImagingFrequency": 123.19,
  "InPlanePhaseEncodingDirectionDICOM": "COL",
  "InstitutionAddress": "Washington_Place_6_NYC_NYC_US_10003",
  "InstitutionName": "NYU_-_CBI",
  "InstitutionalDepartmentName": "Department",
  "MRAcquisitionType": "2D",
  "MagneticFieldStrength": 3,
  "Manufacturer": "Siemens",
  "ManufacturersModelName": "Prisma",
  "Modality": "MR",
  "MultibandAccelerationFactor": 6,
  "PartialFourier": 1,
  "PatientPosition": "HFS",
  "PercentPhaseFOV": 100,
  "PhaseEncodingDirection": "j",
  "PhaseEncodingSteps": 104,
  "PhaseResolution": 1,
  "PixelBandwidth": 2290,
  "ProcedureStepDescription": "Investigators_Winawer",
  "ProtocolName": "cmrr_mbepi_s6_2mm_66sl_PA_task-prf",
  "PulseSequenceDetails": "%CustomerSeq%_cmrr_mbep2d_bold",
  "ReceiveCoilActiveElements": "HC1-7",
  "ReceiveCoilName": "HeadNeck_64",
  "ReconMatrixPE": 104,
  "RepetitionTime": 1,
  "SAR": 0.103125,
  "ScanOptions": "FS",
  "ScanningSequence": "EP",
  "SequenceName": "epfid2d1_104",
  "SequenceVariant": "SK_SS",
  "SeriesDescription": "cmrr_mbepi_s6_2mm_66sl_PA_task-prf",
  "SeriesNumber": 22,
  "ShimSetting": [261, -12567, -8417, 346, -10, -153, 7, 46],
  "SliceThickness": 2,
  "SliceTiming": [0, 0.535, 0.09, 0.625, 0.1775, 0.7125, 0.2675, 0.8025, 0.3575, 0.8925, 0.445, 0, 0.535, 0.09, 0.625, 0.1775, 0.7125, 0.2675, 0.8025, 0.3575, 0.8925, 0.445, 0, 0.535, 0.09, 0.625, 0.1775, 0.7125, 0.2675, 0.8025, 0.3575, 0.8925, 0.445, 0, 0.535, 0.09, 0.625, 0.1775, 0.7125, 0.2675, 0.8025, 0.3575, 0.8925, 0.445, 0, 0.535, 0.09, 0.625, 0.1775, 0.7125, 0.2675, 0.8025, 0.3575, 0.8925, 0.445, 0, 0.535, 0.09, 0.625, 0.1775, 0.7125, 0.2675, 0.8025, 0.3575, 0.8925, 0.445],
  "SoftwareVersions": "syngo_MR_E11",
  "SpacingBetweenSlices": 2,
  "StationName": "AWP166018",
  "TaskName": "prf",
  "TotalReadoutTime": 0.060771,
  "TxRefAmp": 272.672,
  "VendorReportedEchoSpacing": 0.00059,
  "WipMemBlock": "46738304-01e2-47db-9d14-50999ba621ed||Sequence: R016 ve11c/master r/8780670; Nov 27 2017 15:05:12 by eja",
  "dcmmeta_affine": [
    [-1.99872887134552, -0.05338578298687935, -0.04725443571805954, 111.35699462890625],
    [-0.03903922811150551, 1.9287240505218506, -0.5277306437492371, -57.51155471801758],
    [-0.05965704098343849, 0.5264728665351868, 1.9285402297973633, -48.909095764160156],
    [0.0, 0.0, 0.0, 1.0]
],
  "dcmmeta_reorient_transform": [
    [0.0, -1.0, 0.0, 103.0],
    [1.0, 0.0, 0.0, 0.0],
    [0.0, 0.0, 1.0, 0.0],
    [0.0, 0.0, 0.0, 1.0]
],
  "dcmmeta_shape": [104, 104, 66, 192],
  "dcmmeta_slice_dim": 2,
  "dcmmeta_version": 0.6,
  "global": {
    "const": {
      "AccessionNumber": "ksf5mzgs",
      "AcquisitionMatrix": [104, 0, 0, 104],
      "AngioFlag": "N",
      "BitsAllocated": 16,
      "BitsStored": 16,
      "BodyPartExamined": "BRAIN",
      "Columns": 936,
      "EchoNumbers": 1,
      "EchoTime": 37.6,
      "EchoTrainLength": 104,
      "FlipAngle": 68.0,
      "HighBit": 15,
      "ImageOrientationPatient": [0.99936442005868, 0.01951961372999, -0.0298285199199, -0.0266928923926, 0.96436200171428, -0.2632364320252],
      "ImagePositionPatient": [-915.12096979821, -959.73652198137, 249.14764885667],
      "ImageType": [
        "ORIGINAL",
        "PRIMARY",
        "M",
        "MB",
        "ND",
        "MOSAIC"
],
      "ImagedNucleus": "1H",
      "ImagingFrequency": 123.190316,
      "InPlanePhaseEncodingDirection": "COL",
      "MRAcquisitionType": "2D",
      "MagneticFieldStrength": 3.0,
      "Manufacturer": "SIEMENS",
      "ManufacturerModelName": "Prisma",
      "Modality": "MR",
      "NumberOfAverages": 1.0,
      "NumberOfPhaseEncodingSteps": 104,
      "PercentPhaseFieldOfView": 100.0,
      "PercentSampling": 100.0,
      "PerformedProcedureStepStartTime": "150214.754000",
      "PhotometricInterpretation": "MONOCHROME2",
      "PixelBandwidth": 2290.0,
      "PixelRepresentation": 0,
      "PixelSpacing": [2.0, 2.0],
      "ProtocolName": "cmrr_mbepi_s6_2mm_66sl_PA_task-prf",
      "RepetitionTime": 1000.0,
      "Rows": 936,
      "SAR": 0.10312499430339,
      "SamplesPerPixel": 1,
      "ScanOptions": "FS",
      "ScanningSequence": "EP",
      "SequenceName": "epfid2d1_104",
      "SequenceVariant": [
        "SK",
        "SS"
],
      "SeriesDescription": "cmrr_mbepi_s6_2mm_66sl_PA_task-prf",
      "SeriesNumber": 22,
      "SeriesTime": "154725.124000",
      "SliceLocation": -34.617329867355,
      "SliceThickness": 2.0,
      "SmallestImagePixelValue": 0,
      "SoftwareVersions": "syngo MR E11",
      "SpacingBetweenSlices": 2.0000000209897,
      "SpecificCharacterSet": "ISO_IR 100",
      "StudyID": "1",
      "StudyTime": "150214.687000",
      "TransmitCoilName": "Body",
      "VariableFlipAngleFlag": "N",
      "WindowCenterWidthExplanation": "Algo1",
      "dBdt": 0.0},
    "slices": {}
  },
  "time": {
    "samples": {
      "AcquisitionNumber": [1, 2, 3, 4, 5, 6, 7, 8, 9, 10, 11, 12, 13, 14, 15, 16, 17, 18, 19, 20, 21, 22, 23, 24, 25, 26, 27, 28, 29, 30, 31, 32, 33, 34, 35, 36, 37, 38, 39, 40, 41, 42, 43, 44, 45, 46, 47, 48, 49, 50, 51, 52, 53, 54, 55, 56, 57, 58, 59, 60, 61, 62, 63, 64, 65, 66, 67, 68, 69, 70, 71, 72, 73, 74, 75, 76, 77, 78, 79, 80, 81, 82, 83, 84, 85, 86, 87, 88, 89, 90, 91, 92, 93, 94, 95, 96, 97, 98, 99, 100, 101, 102, 103, 104, 105, 106, 107, 108, 109, 110, 111, 112, 113, 114, 115, 116, 117, 118, 119, 120, 121, 122, 123, 124, 125, 126, 127, 128, 129, 130, 131, 132, 133, 134, 135, 136, 137, 138, 139, 140, 141, 142, 143, 144, 145, 146, 147, 148, 149, 150, 151, 152, 153, 154, 155, 156, 157, 158, 159, 160, 161, 162, 163, 164, 165, 166, 167, 168, 169, 170, 171, 172, 173, 174, 175, 176, 177, 178, 179, 180, 181, 182, 183, 184, 185, 186, 187, 188, 189, 190, 191, 192],
      "AcquisitionTime": ["154629.520000", "154630.520000", "154631.520000", "154632.520000", "154633.520000", "154634.520000", "154635.520000", "154636.520000", "154637.520000", "154638.520000", "154639.520000", "154640.520000", "154641.520000", "154642.520000", "154643.520000", "154644.520000", "154645.520000", "154646.520000", "154647.520000", "154648.520000", "154649.520000", "154650.520000", "154651.520000", "154652.520000", "154653.520000", "154654.520000", "154655.520000", "154656.520000", "154657.520000", "154658.520000", "154659.520000", "154700.520000", "154701.520000", "154702.520000", "154703.520000", "154704.520000", "154705.520000", "154706.520000", "154707.520000", "154708.520000", "154709.520000", "154710.520000", "154711.520000", "154712.520000", "154713.520000", "154714.520000", "154715.520000", "154716.520000", "154717.520000", "154718.520000", "154719.520000", "154720.520000", "154721.520000", "154722.520000", "154723.520000", "154724.520000", "154725.520000", "154726.520000", "154727.520000", "154728.520000", "154729.520000", "154730.520000", "154731.520000", "154732.520000", "154733.520000", "154734.520000", "154735.520000", "154736.520000", "154737.520000", "154738.520000", "154739.520000", "154740.520000", "154741.520000", "154742.520000", "154743.520000", "154744.520000", "154745.520000", "154746.520000", "154747.520000", "154748.520000", "154749.520000", "154750.520000", "154751.520000", "154752.520000", "154753.520000", "154754.520000", "154755.520000", "154756.520000", "154757.520000", "154758.520000", "154759.520000", "154800.520000", "154801.520000", "154802.520000", "154803.520000", "154804.520000", "154805.520000", "154806.520000", "154807.520000", "154808.520000", "154809.520000", "154810.520000", "154811.520000", "154812.520000", "154813.520000", "154814.520000", "154815.520000", "154816.520000", "154817.520000", "154818.520000", "154819.520000", "154820.520000", "154821.520000", "154822.520000", "154823.520000", "154824.520000", "154825.520000", "154826.520000", "154827.520000", "154828.520000", "154829.520000", "154830.520000", "154831.520000", "154832.520000", "154833.520000", "154834.520000", "154835.520000", "154836.520000", "154837.520000", "154838.520000", "154839.520000", "154840.520000", "154841.520000", "154842.520000", "154843.520000", "154844.520000", "154845.520000", "154846.520000", "154847.520000", "154848.520000", "154849.520000", "154850.520000", "154851.520000", "154852.520000", "154853.520000", "154854.520000", "154855.520000", "154856.520000", "154857.520000", "154858.520000", "154859.520000", "154900.520000", "154901.520000", "154902.520000", "154903.520000", "154904.520000", "154905.520000", "154906.520000", "154907.520000", "154908.520000", "154909.520000", "154910.520000", "154911.520000", "154912.520000", "154913.520000", "154914.520000", "154915.520000", "154916.520000", "154917.520000", "154918.520000", "154919.520000", "154920.520000", "154921.520000", "154922.520000", "154923.520000", "154924.520000", "154925.520000", "154926.520000", "154927.520000", "154928.520000", "154929.520000", "154930.520000", "154931.520000", "154932.520000", "154933.520000", "154934.520000", "154935.520000", "154936.520000", "154937.520000", "154938.520000", "154939.520000", "154940.520000"],
      "ContentTime": ["154725.127000", "154725.130000", "154725.133000", "154725.136000", "154725.151000", "154725.154000", "154725.157000", "154730.124000", "154730.127000", "154730.130000", "154730.133000", "154730.137000", "154730.140000", "154730.143000", "154730.146000", "154735.124000", "154735.127000", "154735.131000", "154735.134000", "154735.137000", "154735.140000", "154735.144000", "154740.125000", "154740.128000", "154740.131000", "154740.134000", "154740.138000", "154740.141000", "154740.144000", "154745.125000", "154745.128000", "154745.131000", "154745.141000", "154745.144000", "154745.147000", "154745.150000", "154750.124000", "154750.127000", "154750.130000", "154750.133000", "154750.138000", "154750.141000", "154750.144000", "154755.124000", "154755.127000", "154755.130000", "154755.134000", "154755.144000", "154755.147000", "154755.150000", "154800.125000", "154800.128000", "154800.131000", "154800.134000", "154800.138000", "154800.141000", "154800.144000", "154805.124000", "154805.127000", "154805.130000", "154805.152000", "154805.155000", "154805.158000", "154805.162000", "154810.124000", "154810.127000", "154810.130000", "154810.133000", "154810.136000", "154810.140000", "154810.143000", "154815.125000", "154815.128000", "154815.131000", "154815.134000", "154815.137000", "154815.141000", "154815.144000", "154815.147000", "154820.125000", "154820.134000", "154820.137000", "154820.140000", "154820.143000", "154820.146000", "154820.149000", "154825.124000", "154825.127000", "154825.130000", "154825.133000", "154825.137000", "154825.140000", "154825.143000", "154830.124000", "154830.127000", "154830.130000", "154830.133000", "154830.136000", "154830.140000", "154830.143000", "154835.125000", "154835.128000", "154835.131000", "154835.134000", "154835.138000", "154835.141000", "154835.144000", "154840.124000", "154840.127000", "154840.131000", "154840.134000", "154840.137000", "154840.140000", "154840.146000", "154845.124000", "154845.127000", "154845.130000", "154845.134000", "154845.137000", "154845.140000", "154845.143000", "154850.125000", "154850.128000", "154850.131000", "154850.134000", "154850.138000", "154850.141000", "154850.144000", "154855.125000", "154855.128000", "154855.131000", "154855.134000", "154855.137000", "154855.141000", "154855.144000", "154900.124000", "154900.127000", "154900.130000", "154900.133000", "154900.136000", "154900.139000", "154900.142000", "154900.145000", "154905.124000", "154905.127000", "154905.130000", "154905.133000", "154905.136000", "154905.140000", "154905.143000", "154910.125000", "154910.128000", "154910.131000", "154910.134000", "154910.137000", "154910.141000", "154910.144000", "154915.124000", "154915.127000", "154915.130000", "154915.133000", "154915.136000", "154915.140000", "154915.143000", "154920.124000", "154920.127000", "154920.130000", "154920.133000", "154920.136000", "154925.125000", "154925.128000", "154925.131000", "154925.135000", "154925.138000", "154930.125000", "154930.128000", "154930.131000", "154930.134000", "154930.137000", "154935.124000", "154935.127000", "154935.130000", "154935.133000", "154935.136000", "154940.124000", "154940.127000", "154940.130000", "154940.134000", "154940.137000", "154942.491000", "154942.496000", "154942.502000"],
      "InstanceCreationTime": ["154725.127000", "154725.130000", "154725.133000", "154725.136000", "154725.151000", "154725.154000", "154725.157000", "154730.124000", "154730.127000", "154730.130000", "154730.133000", "154730.137000", "154730.140000", "154730.143000", "154730.146000", "154735.124000", "154735.127000", "154735.131000", "154735.134000", "154735.137000", "154735.140000", "154735.144000", "154740.125000", "154740.128000", "154740.131000", "154740.134000", "154740.138000", "154740.141000", "154740.144000", "154745.125000", "154745.128000", "154745.131000", "154745.141000", "154745.144000", "154745.147000", "154745.150000", "154750.124000", "154750.127000", "154750.130000", "154750.133000", "154750.138000", "154750.141000", "154750.144000", "154755.124000", "154755.127000", "154755.130000", "154755.134000", "154755.144000", "154755.147000", "154755.150000", "154800.125000", "154800.128000", "154800.131000", "154800.134000", "154800.138000", "154800.141000", "154800.144000", "154805.124000", "154805.127000", "154805.130000", "154805.152000", "154805.155000", "154805.158000", "154805.162000", "154810.124000", "154810.127000", "154810.130000", "154810.133000", "154810.136000", "154810.140000", "154810.143000", "154815.125000", "154815.128000", "154815.131000", "154815.134000", "154815.137000", "154815.141000", "154815.144000", "154815.147000", "154820.125000", "154820.134000", "154820.137000", "154820.140000", "154820.143000", "154820.146000", "154820.149000", "154825.124000", "154825.127000", "154825.130000", "154825.133000", "154825.137000", "154825.140000", "154825.143000", "154830.124000", "154830.127000", "154830.130000", "154830.133000", "154830.136000", "154830.140000", "154830.143000", "154835.125000", "154835.128000", "154835.131000", "154835.134000", "154835.138000", "154835.141000", "154835.144000", "154840.124000", "154840.127000", "154840.131000", "154840.134000", "154840.137000", "154840.140000", "154840.146000", "154845.124000", "154845.127000", "154845.130000", "154845.134000", "154845.137000", "154845.140000", "154845.143000", "154850.125000", "154850.128000", "154850.131000", "154850.134000", "154850.138000", "154850.141000", "154850.144000", "154855.125000", "154855.128000", "154855.131000", "154855.134000", "154855.137000", "154855.141000", "154855.144000", "154900.124000", "154900.127000", "154900.130000", "154900.133000", "154900.136000", "154900.139000", "154900.142000", "154900.145000", "154905.124000", "154905.127000", "154905.130000", "154905.133000", "154905.136000", "154905.140000", "154905.143000", "154910.125000", "154910.128000", "154910.131000", "154910.134000", "154910.137000", "154910.141000", "154910.144000", "154915.124000", "154915.127000", "154915.130000", "154915.133000", "154915.136000", "154915.140000", "154915.143000", "154920.124000", "154920.127000", "154920.130000", "154920.133000", "154920.136000", "154925.125000", "154925.128000", "154925.131000", "154925.135000", "154925.138000", "154930.125000", "154930.128000", "154930.131000", "154930.134000", "154930.137000", "154935.124000", "154935.127000", "154935.130000", "154935.133000", "154935.136000", "154940.124000", "154940.127000", "154940.130000", "154940.134000", "154940.137000", "154942.491000", "154942.496000", "154942.502000"],
      "InstanceNumber": [1, 2, 3, 4, 5, 6, 7, 8, 9, 10, 11, 12, 13, 14, 15, 16, 17, 18, 19, 20, 21, 22, 23, 24, 25, 26, 27, 28, 29, 30, 31, 32, 33, 34, 35, 36, 37, 38, 39, 40, 41, 42, 43, 44, 45, 46, 47, 48, 49, 50, 51, 52, 53, 54, 55, 56, 57, 58, 59, 60, 61, 62, 63, 64, 65, 66, 67, 68, 69, 70, 71, 72, 73, 74, 75, 76, 77, 78, 79, 80, 81, 82, 83, 84, 85, 86, 87, 88, 89, 90, 91, 92, 93, 94, 95, 96, 97, 98, 99, 100, 101, 102, 103, 104, 105, 106, 107, 108, 109, 110, 111, 112, 113, 114, 115, 116, 117, 118, 119, 120, 121, 122, 123, 124, 125, 126, 127, 128, 129, 130, 131, 132, 133, 134, 135, 136, 137, 138, 139, 140, 141, 142, 143, 144, 145, 146, 147, 148, 149, 150, 151, 152, 153, 154, 155, 156, 157, 158, 159, 160, 161, 162, 163, 164, 165, 166, 167, 168, 169, 170, 171, 172, 173, 174, 175, 176, 177, 178, 179, 180, 181, 182, 183, 184, 185, 186, 187, 188, 189, 190, 191, 192],
      "LargestImagePixelValue": [63544, 61954, 60996, 60292, 59994, 59109, 58934, 58756, 59000, 58951, 58633, 58756, 58332, 58714, 57905, 58062, 58307, 57482, 57895, 57754, 57722, 58139, 57727, 58202, 57560, 57233, 57748, 57388, 57771, 58890, 58507, 59382, 59497, 59550, 59169, 58929, 58242, 58647, 57990, 58754, 57660, 58132, 57917, 57196, 57073, 56839, 56152, 55306, 55640, 55900, 55918, 56204, 56855, 56019, 56206, 55368, 56082, 56139, 55630, 55790, 56048, 55835, 56424, 56127, 56464, 56830, 56272, 55452, 55920, 55747, 55475, 55035, 55070, 55156, 56473, 55681, 55421, 54676, 55077, 54298, 55061, 54340, 54240, 54546, 54188, 54403, 54871, 55021, 54943, 54931, 54937, 54804, 55595, 55687, 55273, 56162, 55524, 55620, 55270, 54690, 54466, 54898, 55023, 55593, 55425, 55762, 56359, 55867, 56299, 56367, 56094, 55900, 56328, 56155, 56029, 55799, 56002, 55955, 56071, 55964, 56119, 55890, 55597, 55176, 55742, 55753, 56585, 57172, 56308, 57853, 56116, 55803, 55708, 57558, 56380, 55858, 57313, 57453, 57566, 57254, 57476, 57819, 58152, 59097, 58573, 56736, 56015, 56175, 56391, 55603, 57125, 56385, 55793, 55711, 56255, 55054, 55541, 55273, 55568, 55199, 55326, 55851, 55442, 55527, 56558, 55701, 55229, 55655, 55775, 55360, 56301, 56265, 55678, 56059, 56635, 56320, 55549, 55911, 55317, 55738, 55087, 55788, 55711, 56668, 55339, 54850, 55221, 55494, 56073, 55436, 55883, 54850],
      "WindowCenter": [11288.0, 11236.0, 11209.0, 11196.0, 11190.0, 11171.0, 11168.0, 11162.0, 11162.0, 11158.0, 11156.0, 11155.0, 11152.0, 11147.0, 11155.0, 11163.0, 11178.0, 11178.0, 11172.0, 11171.0, 11172.0, 11166.0, 11152.0, 11153.0, 11153.0, 11149.0, 11140.0, 11131.0, 11122.0, 11120.0, 11110.0, 11110.0, 11109.0, 11113.0, 11121.0, 11121.0, 11123.0, 11130.0, 11133.0, 11133.0, 11125.0, 11130.0, 11126.0, 11137.0, 11148.0, 11159.0, 11156.0, 11146.0, 11138.0, 11135.0, 11135.0, 11132.0, 11134.0, 11129.0, 11125.0, 11116.0, 11123.0, 11126.0, 11111.0, 11105.0, 11109.0, 11104.0, 11104.0, 11107.0, 11111.0, 11124.0, 11141.0, 11133.0, 11147.0, 11150.0, 11150.0, 11148.0, 11133.0, 11131.0, 11131.0, 11135.0, 11138.0, 11141.0, 11150.0, 11152.0, 11165.0, 11174.0, 11168.0, 11166.0, 11151.0, 11147.0, 11134.0, 11125.0, 11123.0, 11112.0, 11104.0, 11103.0, 11108.0, 11107.0, 11108.0, 11125.0, 11137.0, 11146.0, 11141.0, 11137.0, 11131.0, 11128.0, 11115.0, 11121.0, 11111.0, 11113.0, 11117.0, 11125.0, 11138.0, 11152.0, 11159.0, 11156.0, 11151.0, 11151.0, 11142.0, 11138.0, 11137.0, 11137.0, 11142.0, 11143.0, 11144.0, 11152.0, 11162.0, 11162.0, 11161.0, 11152.0, 11152.0, 11152.0, 11141.0, 11167.0, 11156.0, 11150.0, 11137.0, 11134.0, 11116.0, 11108.0, 11117.0, 11126.0, 11123.0, 11130.0, 11138.0, 11144.0, 11154.0, 11167.0, 11171.0, 11156.0, 11147.0, 11152.0, 11146.0, 11133.0, 11130.0, 11112.0, 11117.0, 11111.0, 11125.0, 11116.0, 11127.0, 11127.0, 11127.0, 11126.0, 11122.0, 11120.0, 11121.0, 11123.0, 11137.0, 11137.0, 11128.0, 11121.0, 11125.0, 11113.0, 11113.0, 11109.0, 11108.0, 11109.0, 11122.0, 11143.0, 11132.0, 11132.0, 11130.0, 11132.0, 11122.0, 11127.0, 11117.0, 11114.0, 11107.0, 11102.0, 11118.0, 11122.0, 11117.0, 11109.0, 11118.0, 11109.0],
      "WindowWidth": [24579.0, 24412.0, 24326.0, 24279.0, 24257.0, 24208.0, 24196.0, 24179.0, 24179.0, 24172.0, 24166.0, 24162.0, 24160.0, 24145.0, 24165.0, 24187.0, 24225.0, 24223.0, 24212.0, 24210.0, 24209.0, 24199.0, 24167.0, 24167.0, 24163.0, 24160.0, 24135.0, 24108.0, 24082.0, 24074.0, 24049.0, 24047.0, 24046.0, 24054.0, 24078.0, 24082.0, 24085.0, 24103.0, 24112.0, 24109.0, 24092.0, 24103.0, 24096.0, 24123.0, 24151.0, 24182.0, 24180.0, 24154.0, 24134.0, 24126.0, 24123.0, 24112.0, 24120.0, 24109.0, 24101.0, 24084.0, 24095.0, 24102.0, 24068.0, 24051.0, 24059.0, 24045.0, 24041.0, 24050.0, 24060.0, 24091.0, 24134.0, 24115.0, 24147.0, 24155.0, 24158.0, 24158.0, 24118.0, 24116.0, 24113.0, 24122.0, 24132.0, 24142.0, 24165.0, 24171.0, 24202.0, 24224.0, 24211.0, 24206.0, 24166.0, 24153.0, 24120.0, 24096.0, 24093.0, 24068.0, 24050.0, 24046.0, 24059.0, 24056.0, 24061.0, 24100.0, 24134.0, 24152.0, 24143.0, 24132.0, 24113.0, 24108.0, 24080.0, 24086.0, 24066.0, 24070.0, 24076.0, 24100.0, 24131.0, 24161.0, 24181.0, 24171.0, 24157.0, 24156.0, 24136.0, 24124.0, 24122.0, 24123.0, 24135.0, 24138.0, 24144.0, 24161.0, 24184.0, 24190.0, 24183.0, 24157.0, 24156.0, 24158.0, 24141.0, 24196.0, 24174.0, 24151.0, 24115.0, 24100.0, 24058.0, 24040.0, 24059.0, 24078.0, 24073.0, 24091.0, 24107.0, 24120.0, 24146.0, 24182.0, 24189.0, 24156.0, 24140.0, 24151.0, 24135.0, 24107.0, 24093.0, 24051.0, 24064.0, 24053.0, 24084.0, 24065.0, 24091.0, 24089.0, 24087.0, 24090.0, 24081.0, 24076.0, 24076.0, 24081.0, 24110.0, 24113.0, 24090.0, 24074.0, 24078.0, 24053.0, 24050.0, 24038.0, 24037.0, 24038.0, 24068.0, 24119.0, 24101.0, 24100.0, 24098.0, 24102.0, 24077.0, 24088.0, 24069.0, 24059.0, 24045.0, 24035.0, 24074.0, 24085.0, 24068.0, 24052.0, 24070.0, 24054.0]
    },
    "slices": {}
  },
  "NumberOfVolumes": 192
}