{
  "AcquisitionMatrixPE": 104,
  "AcquisitionNumber": 1,
  "AcquisitionTime": "15:58:22.580000",
  "BandwidthPerPixelPhaseEncode": 16.297,
  "BaseResolution": 104,
  "BodyPartExamined": "BRAIN",
  "ConsistencyInfo": "N4_VE11C_LATEST_20160120",
  "ConversionSoftware": "dcm2niix",
  "ConversionSoftwareVersion": "v1.0.20190902",
  "DerivedVendorReportedEchoSpacing": 0.000590009,
  "DeviceSerialNumber": "166018",
  "DwellTime": 2.1e-06,
  "EchoTime": 0.0376,
  "EchoTrainLength": 104,
  "EffectiveEchoSpacing": 0.000590009,
  "FlipAngle": 68,
  "ImageComments": "Unaliased_MB6_PE3_LB",
  "ImageOrientationPatientDICOM": [0.999364, 0.0195196, -0.0298285, -0.0266929, 0.964362, -0.263236],
  "ImageType": [
    "ORIGINAL",
    "PRIMARY",
    "M",
    "MB",
    "ND",
    "MOSAIC"
],
  "ImagingFrequency": 123.19,
  "InPlanePhaseEncodingDirectionDICOM": "COL",
  "InstitutionAddress": "Washington_Place_6_NYC_NYC_US_10003",
  "InstitutionName": "NYU_-_CBI",
  "InstitutionalDepartmentName": "Department",
  "MRAcquisitionType": "2D",
  "MagneticFieldStrength": 3,
  "Manufacturer": "Siemens",
  "ManufacturersModelName": "Prisma",
  "Modality": "MR",
  "MultibandAccelerationFactor": 6,
  "PartialFourier": 1,
  "PatientPosition": "HFS",
  "PercentPhaseFOV": 100,
  "PhaseEncodingDirection": "j",
  "PhaseEncodingSteps": 104,
  "PhaseResolution": 1,
  "PixelBandwidth": 2290,
  "ProcedureStepDescription": "Investigators_Winawer",
  "ProtocolName": "cmrr_mbepi_s6_2mm_66sl_PA_task-prf",
  "PulseSequenceDetails": "%CustomerSeq%_cmrr_mbep2d_bold",
  "ReceiveCoilActiveElements": "HC1-7",
  "ReceiveCoilName": "HeadNeck_64",
  "ReconMatrixPE": 104,
  "RepetitionTime": 1,
  "SAR": 0.103125,
  "ScanOptions": "FS",
  "ScanningSequence": "EP",
  "SequenceName": "epfid2d1_104",
  "SequenceVariant": "SK_SS",
  "SeriesDescription": "cmrr_mbepi_s6_2mm_66sl_PA_task-prf",
  "SeriesNumber": 28,
  "ShimSetting": [261, -12567, -8417, 346, -10, -153, 7, 46],
  "SliceThickness": 2,
  "SliceTiming": [0, 0.5325, 0.0875, 0.6225, 0.1775, 0.7125, 0.2675, 0.8, 0.355, 0.89, 0.445, 0, 0.5325, 0.0875, 0.6225, 0.1775, 0.7125, 0.2675, 0.8, 0.355, 0.89, 0.445, 0, 0.5325, 0.0875, 0.6225, 0.1775, 0.7125, 0.2675, 0.8, 0.355, 0.89, 0.445, 0, 0.5325, 0.0875, 0.6225, 0.1775, 0.7125, 0.2675, 0.8, 0.355, 0.89, 0.445, 0, 0.5325, 0.0875, 0.6225, 0.1775, 0.7125, 0.2675, 0.8, 0.355, 0.89, 0.445, 0, 0.5325, 0.0875, 0.6225, 0.1775, 0.7125, 0.2675, 0.8, 0.355, 0.89, 0.445],
  "SoftwareVersions": "syngo_MR_E11",
  "SpacingBetweenSlices": 2,
  "StationName": "AWP166018",
  "TaskName": "prf",
  "TotalReadoutTime": 0.060771,
  "TxRefAmp": 272.672,
  "VendorReportedEchoSpacing": 0.00059,
  "WipMemBlock": "46738304-01e2-47db-9d14-50999ba621ed||Sequence: R016 ve11c/master r/8780670; Nov 27 2017 15:05:12 by eja",
  "dcmmeta_affine": [
    [-1.99872887134552, -0.05338578298687935, -0.04725443571805954, 111.35699462890625],
    [-0.03903922811150551, 1.9287240505218506, -0.5277306437492371, -57.51155471801758],
    [-0.05965704098343849, 0.5264728665351868, 1.9285402297973633, -48.909095764160156],
    [0.0, 0.0, 0.0, 1.0]
],
  "dcmmeta_reorient_transform": [
    [0.0, -1.0, 0.0, 103.0],
    [1.0, 0.0, 0.0, 0.0],
    [0.0, 0.0, 1.0, 0.0],
    [0.0, 0.0, 0.0, 1.0]
],
  "dcmmeta_shape": [104, 104, 66, 192],
  "dcmmeta_slice_dim": 2,
  "dcmmeta_version": 0.6,
  "global": {
    "const": {
      "AccessionNumber": "ksf5mzgs",
      "AcquisitionMatrix": [104, 0, 0, 104],
      "AngioFlag": "N",
      "BitsAllocated": 16,
      "BitsStored": 16,
      "BodyPartExamined": "BRAIN",
      "Columns": 936,
      "EchoNumbers": 1,
      "EchoTime": 37.6,
      "EchoTrainLength": 104,
      "FlipAngle": 68.0,
      "HighBit": 15,
      "ImageOrientationPatient": [0.99936442005868, 0.01951961372999, -0.0298285199199, -0.0266928923926, 0.96436200171428, -0.2632364320252],
      "ImagePositionPatient": [-915.12096979821, -959.73652198137, 249.14764885667],
      "ImageType": [
        "ORIGINAL",
        "PRIMARY",
        "M",
        "MB",
        "ND",
        "MOSAIC"
],
      "ImagedNucleus": "1H",
      "ImagingFrequency": 123.190316,
      "InPlanePhaseEncodingDirection": "COL",
      "MRAcquisitionType": "2D",
      "MagneticFieldStrength": 3.0,
      "Manufacturer": "SIEMENS",
      "ManufacturerModelName": "Prisma",
      "Modality": "MR",
      "NumberOfAverages": 1.0,
      "NumberOfPhaseEncodingSteps": 104,
      "PercentPhaseFieldOfView": 100.0,
      "PercentSampling": 100.0,
      "PerformedProcedureStepStartTime": "150214.754000",
      "PhotometricInterpretation": "MONOCHROME2",
      "PixelBandwidth": 2290.0,
      "PixelRepresentation": 0,
      "PixelSpacing": [2.0, 2.0],
      "ProtocolName": "cmrr_mbepi_s6_2mm_66sl_PA_task-prf",
      "RepetitionTime": 1000.0,
      "Rows": 936,
      "SAR": 0.10312499430339,
      "SamplesPerPixel": 1,
      "ScanOptions": "FS",
      "ScanningSequence": "EP",
      "SequenceName": "epfid2d1_104",
      "SequenceVariant": [
        "SK",
        "SS"
],
      "SeriesDescription": "cmrr_mbepi_s6_2mm_66sl_PA_task-prf",
      "SeriesNumber": 28,
      "SeriesTime": "155917.566000",
      "SliceLocation": -34.617329867355,
      "SliceThickness": 2.0,
      "SmallestImagePixelValue": 0,
      "SoftwareVersions": "syngo MR E11",
      "SpacingBetweenSlices": 2.0000000209897,
      "SpecificCharacterSet": "ISO_IR 100",
      "StudyID": "1",
      "StudyTime": "150214.687000",
      "TransmitCoilName": "Body",
      "VariableFlipAngleFlag": "N",
      "WindowCenterWidthExplanation": "Algo1",
      "dBdt": 0.0},
    "slices": {}
  },
  "time": {
    "samples": {
      "AcquisitionNumber": [1, 2, 3, 4, 5, 6, 7, 8, 9, 10, 11, 12, 13, 14, 15, 16, 17, 18, 19, 20, 21, 22, 23, 24, 25, 26, 27, 28, 29, 30, 31, 32, 33, 34, 35, 36, 37, 38, 39, 40, 41, 42, 43, 44, 45, 46, 47, 48, 49, 50, 51, 52, 53, 54, 55, 56, 57, 58, 59, 60, 61, 62, 63, 64, 65, 66, 67, 68, 69, 70, 71, 72, 73, 74, 75, 76, 77, 78, 79, 80, 81, 82, 83, 84, 85, 86, 87, 88, 89, 90, 91, 92, 93, 94, 95, 96, 97, 98, 99, 100, 101, 102, 103, 104, 105, 106, 107, 108, 109, 110, 111, 112, 113, 114, 115, 116, 117, 118, 119, 120, 121, 122, 123, 124, 125, 126, 127, 128, 129, 130, 131, 132, 133, 134, 135, 136, 137, 138, 139, 140, 141, 142, 143, 144, 145, 146, 147, 148, 149, 150, 151, 152, 153, 154, 155, 156, 157, 158, 159, 160, 161, 162, 163, 164, 165, 166, 167, 168, 169, 170, 171, 172, 173, 174, 175, 176, 177, 178, 179, 180, 181, 182, 183, 184, 185, 186, 187, 188, 189, 190, 191, 192],
      "AcquisitionTime": ["155822.580000", "155823.580000", "155824.580000", "155825.580000", "155826.580000", "155827.580000", "155828.580000", "155829.580000", "155830.580000", "155831.580000", "155832.580000", "155833.580000", "155834.580000", "155835.580000", "155836.580000", "155837.580000", "155838.580000", "155839.580000", "155840.580000", "155841.580000", "155842.580000", "155843.580000", "155844.580000", "155845.580000", "155846.580000", "155847.580000", "155848.580000", "155849.580000", "155850.580000", "155851.580000", "155852.580000", "155853.580000", "155854.580000", "155855.580000", "155856.580000", "155857.580000", "155858.580000", "155859.580000", "155900.580000", "155901.580000", "155902.580000", "155903.580000", "155904.580000", "155905.580000", "155906.580000", "155907.580000", "155908.580000", "155909.580000", "155910.580000", "155911.580000", "155912.580000", "155913.580000", "155914.580000", "155915.580000", "155916.580000", "155917.580000", "155918.580000", "155919.580000", "155920.580000", "155921.580000", "155922.580000", "155923.580000", "155924.580000", "155925.580000", "155926.580000", "155927.580000", "155928.580000", "155929.580000", "155930.580000", "155931.580000", "155932.580000", "155933.580000", "155934.580000", "155935.580000", "155936.580000", "155937.580000", "155938.580000", "155939.580000", "155940.580000", "155941.580000", "155942.580000", "155943.580000", "155944.580000", "155945.580000", "155946.580000", "155947.580000", "155948.580000", "155949.580000", "155950.580000", "155951.580000", "155952.580000", "155953.580000", "155954.580000", "155955.580000", "155956.580000", "155957.580000", "155958.580000", "155959.580000", "160000.580000", "160001.580000", "160002.580000", "160003.580000", "160004.580000", "160005.580000", "160006.580000", "160007.580000", "160008.580000", "160009.580000", "160010.580000", "160011.580000", "160012.580000", "160013.580000", "160014.580000", "160015.580000", "160016.580000", "160017.580000", "160018.580000", "160019.580000", "160020.580000", "160021.580000", "160022.580000", "160023.580000", "160024.580000", "160025.580000", "160026.580000", "160027.580000", "160028.580000", "160029.580000", "160030.580000", "160031.580000", "160032.580000", "160033.580000", "160034.580000", "160035.580000", "160036.580000", "160037.580000", "160038.580000", "160039.580000", "160040.580000", "160041.580000", "160042.580000", "160043.580000", "160044.580000", "160045.580000", "160046.580000", "160047.580000", "160048.580000", "160049.580000", "160050.580000", "160051.580000", "160052.580000", "160053.580000", "160054.580000", "160055.580000", "160056.580000", "160057.580000", "160058.580000", "160059.580000", "160100.580000", "160101.580000", "160102.580000", "160103.580000", "160104.580000", "160105.580000", "160106.580000", "160107.580000", "160108.580000", "160109.580000", "160110.580000", "160111.580000", "160112.580000", "160113.580000", "160114.580000", "160115.580000", "160116.580000", "160117.580000", "160118.580000", "160119.580000", "160120.580000", "160121.580000", "160122.580000", "160123.580000", "160124.580000", "160125.580000", "160126.580000", "160127.580000", "160128.580000", "160129.580000", "160130.580000", "160131.580000", "160132.580000", "160133.580000"],
      "ContentTime": ["155917.569000", "155917.572000", "155917.575000", "155917.578000", "155917.581000", "155917.584000", "155917.587000", "155922.567000", "155922.570000", "155922.573000", "155922.576000", "155922.579000", "155922.592000", "155922.595000", "155927.567000", "155927.570000", "155927.577000", "155927.580000", "155927.583000", "155927.587000", "155927.590000", "155932.567000", "155932.570000", "155932.573000", "155932.576000", "155932.579000", "155932.583000", "155932.586000", "155937.568000", "155937.571000", "155937.574000", "155937.577000", "155937.580000", "155937.583000", "155937.587000", "155942.567000", "155942.570000", "155942.573000", "155942.576000", "155942.580000", "155942.583000", "155942.586000", "155947.567000", "155947.570000", "155947.573000", "155947.576000", "155947.579000", "155947.582000", "155947.599000", "155952.567000", "155952.570000", "155952.573000", "155952.576000", "155952.579000", "155952.583000", "155952.586000", "155957.567000", "155957.570000", "155957.573000", "155957.576000", "155957.579000", "155957.582000", "155957.586000", "160002.567000", "160002.570000", "160002.573000", "160002.576000", "160002.579000", "160002.582000", "160002.585000", "160007.567000", "160007.570000", "160007.573000", "160007.576000", "160007.579000", "160007.583000", "160007.586000", "160007.589000", "160012.568000", "160012.571000", "160012.574000", "160012.577000", "160012.580000", "160012.584000", "160012.587000", "160017.567000", "160017.570000", "160017.573000", "160017.577000", "160017.580000", "160017.583000", "160017.586000", "160022.567000", "160022.570000", "160022.573000", "160022.576000", "160022.579000", "160022.583000", "160022.586000", "160027.567000", "160027.570000", "160027.573000", "160027.576000", "160027.579000", "160027.583000", "160027.587000", "160032.567000", "160032.581000", "160032.585000", "160032.588000", "160032.591000", "160032.594000", "160032.597000", "160037.567000", "160037.570000", "160037.573000", "160037.576000", "160037.586000", "160037.596000", "160037.599000", "160042.567000", "160042.570000", "160042.573000", "160042.577000", "160042.580000", "160042.583000", "160042.586000", "160047.568000", "160047.571000", "160047.574000", "160047.577000", "160047.580000", "160047.583000", "160047.587000", "160052.567000", "160052.570000", "160052.573000", "160052.576000", "160052.580000", "160052.583000", "160052.586000", "160057.567000", "160057.570000", "160057.573000", "160057.576000", "160057.579000", "160057.582000", "160057.586000", "160057.589000", "160102.567000", "160102.573000", "160102.576000", "160102.579000", "160102.582000", "160102.585000", "160107.567000", "160107.570000", "160107.573000", "160107.576000", "160107.579000", "160107.583000", "160107.586000", "160107.589000", "160112.567000", "160112.570000", "160112.574000", "160112.577000", "160112.580000", "160112.583000", "160117.567000", "160117.570000", "160117.573000", "160117.576000", "160117.579000", "160122.568000", "160122.571000", "160122.574000", "160122.577000", "160122.580000", "160127.567000", "160127.570000", "160127.573000", "160127.576000", "160127.579000", "160132.567000", "160132.570000", "160132.573000", "160132.577000", "160132.580000", "160134.948000", "160134.952000", "160134.955000"],
      "InstanceCreationTime": ["155917.569000", "155917.572000", "155917.575000", "155917.578000", "155917.581000", "155917.584000", "155917.587000", "155922.567000", "155922.570000", "155922.573000", "155922.576000", "155922.579000", "155922.592000", "155922.595000", "155927.567000", "155927.570000", "155927.577000", "155927.580000", "155927.583000", "155927.587000", "155927.590000", "155932.567000", "155932.570000", "155932.573000", "155932.576000", "155932.579000", "155932.583000", "155932.586000", "155937.568000", "155937.571000", "155937.574000", "155937.577000", "155937.580000", "155937.583000", "155937.587000", "155942.567000", "155942.570000", "155942.573000", "155942.576000", "155942.580000", "155942.583000", "155942.586000", "155947.567000", "155947.570000", "155947.573000", "155947.576000", "155947.579000", "155947.582000", "155947.599000", "155952.567000", "155952.570000", "155952.573000", "155952.576000", "155952.579000", "155952.583000", "155952.586000", "155957.567000", "155957.570000", "155957.573000", "155957.576000", "155957.579000", "155957.582000", "155957.586000", "160002.567000", "160002.570000", "160002.573000", "160002.576000", "160002.579000", "160002.582000", "160002.585000", "160007.567000", "160007.570000", "160007.573000", "160007.576000", "160007.579000", "160007.583000", "160007.586000", "160007.589000", "160012.568000", "160012.571000", "160012.574000", "160012.577000", "160012.580000", "160012.584000", "160012.587000", "160017.567000", "160017.570000", "160017.573000", "160017.577000", "160017.580000", "160017.583000", "160017.586000", "160022.567000", "160022.570000", "160022.573000", "160022.576000", "160022.579000", "160022.583000", "160022.586000", "160027.567000", "160027.570000", "160027.573000", "160027.576000", "160027.579000", "160027.583000", "160027.587000", "160032.567000", "160032.581000", "160032.585000", "160032.588000", "160032.591000", "160032.594000", "160032.597000", "160037.567000", "160037.570000", "160037.573000", "160037.576000", "160037.586000", "160037.596000", "160037.599000", "160042.567000", "160042.570000", "160042.573000", "160042.577000", "160042.580000", "160042.583000", "160042.586000", "160047.568000", "160047.571000", "160047.574000", "160047.577000", "160047.580000", "160047.583000", "160047.587000", "160052.567000", "160052.570000", "160052.573000", "160052.576000", "160052.580000", "160052.583000", "160052.586000", "160057.567000", "160057.570000", "160057.573000", "160057.576000", "160057.579000", "160057.582000", "160057.586000", "160057.589000", "160102.567000", "160102.573000", "160102.576000", "160102.579000", "160102.582000", "160102.585000", "160107.567000", "160107.570000", "160107.573000", "160107.576000", "160107.579000", "160107.583000", "160107.586000", "160107.589000", "160112.567000", "160112.570000", "160112.574000", "160112.577000", "160112.580000", "160112.583000", "160117.567000", "160117.570000", "160117.573000", "160117.576000", "160117.579000", "160122.568000", "160122.571000", "160122.574000", "160122.577000", "160122.580000", "160127.567000", "160127.570000", "160127.573000", "160127.576000", "160127.579000", "160132.567000", "160132.570000", "160132.573000", "160132.577000", "160132.580000", "160134.948000", "160134.952000", "160134.955000"],
      "InstanceNumber": [1, 2, 3, 4, 5, 6, 7, 8, 9, 10, 11, 12, 13, 14, 15, 16, 17, 18, 19, 20, 21, 22, 23, 24, 25, 26, 27, 28, 29, 30, 31, 32, 33, 34, 35, 36, 37, 38, 39, 40, 41, 42, 43, 44, 45, 46, 47, 48, 49, 50, 51, 52, 53, 54, 55, 56, 57, 58, 59, 60, 61, 62, 63, 64, 65, 66, 67, 68, 69, 70, 71, 72, 73, 74, 75, 76, 77, 78, 79, 80, 81, 82, 83, 84, 85, 86, 87, 88, 89, 90, 91, 92, 93, 94, 95, 96, 97, 98, 99, 100, 101, 102, 103, 104, 105, 106, 107, 108, 109, 110, 111, 112, 113, 114, 115, 116, 117, 118, 119, 120, 121, 122, 123, 124, 125, 126, 127, 128, 129, 130, 131, 132, 133, 134, 135, 136, 137, 138, 139, 140, 141, 142, 143, 144, 145, 146, 147, 148, 149, 150, 151, 152, 153, 154, 155, 156, 157, 158, 159, 160, 161, 162, 163, 164, 165, 166, 167, 168, 169, 170, 171, 172, 173, 174, 175, 176, 177, 178, 179, 180, 181, 182, 183, 184, 185, 186, 187, 188, 189, 190, 191, 192],
      "LargestImagePixelValue": [62930, 60252, 59691, 59042, 58160, 55554, 55236, 54537, 54851, 54237, 54849, 54906, 54190, 54944, 53974, 54462, 55469, 55269, 54949, 54978, 55719, 56914, 56306, 55176, 57021, 56235, 55341, 54993, 55619, 55805, 55559, 55832, 56250, 55497, 55921, 55443, 55474, 54881, 55977, 55707, 55647, 55236, 54708, 54753, 54421, 54576, 54739, 54763, 54986, 55366, 55384, 55196, 55169, 54956, 55149, 54717, 54465, 54833, 54526, 54402, 54944, 54553, 53881, 53337, 53281, 53868, 54050, 54029, 53844, 53780, 53044, 52885, 53082, 53425, 53647, 53757, 53476, 53593, 53887, 54111, 54680, 54986, 54770, 54412, 54954, 55255, 55758, 55108, 55425, 55415, 55270, 55102, 55468, 55989, 56034, 54834, 55155, 54852, 54421, 54635, 55113, 54882, 54901, 54989, 54652, 54036, 54002, 54411, 54036, 54425, 54393, 55369, 54494, 54744, 54349, 54225, 53835, 53521, 54287, 54488, 54657, 54494, 54377, 53659, 53934, 54832, 54942, 55223, 55481, 55897, 55485, 55456, 55264, 55623, 55218, 54854, 54876, 54874, 54729, 55189, 55494, 54751, 54650, 55379, 55413, 55762, 55543, 54503, 55166, 54546, 53843, 54084, 54853, 53567, 54748, 55102, 54403, 55479, 54924, 55026, 55415, 56294, 55476, 55343, 55896, 56121, 55454, 55828, 56002, 55383, 55080, 54639, 54009, 54291, 54108, 54575, 55114, 55000, 54588, 54647, 54637, 54048, 54556, 54467, 54536, 54412, 54472, 54665, 54751, 54772, 54505, 54231],
      "WindowCenter": [11229.0, 11174.0, 11156.0, 11147.0, 11146.0, 11118.0, 11102.0, 11093.0, 11090.0, 11076.0, 11071.0, 11075.0, 11085.0, 11105.0, 11100.0, 11109.0, 11103.0, 11092.0, 11075.0, 11058.0, 11047.0, 11053.0, 11047.0, 11031.0, 11047.0, 11050.0, 11053.0, 11057.0, 11063.0, 11066.0, 11065.0, 11056.0, 11058.0, 11055.0, 11059.0, 11065.0, 11078.0, 11073.0, 11085.0, 11075.0, 11101.0, 11119.0, 11104.0, 11104.0, 11085.0, 11069.0, 11063.0, 11051.0, 11056.0, 11062.0, 11067.0, 11069.0, 11061.0, 11062.0, 11054.0, 11049.0, 11057.0, 11064.0, 11066.0, 11062.0, 11078.0, 11074.0, 11085.0, 11087.0, 11082.0, 11084.0, 11091.0, 11081.0, 11073.0, 11071.0, 11066.0, 11062.0, 11061.0, 11063.0, 11060.0, 11061.0, 11046.0, 11045.0, 11043.0, 11046.0, 11050.0, 11054.0, 11061.0, 11053.0, 11057.0, 11063.0, 11072.0, 11077.0, 11067.0, 11060.0, 11052.0, 11046.0, 11058.0, 11058.0, 11065.0, 11065.0, 11070.0, 11076.0, 11083.0, 11078.0, 11085.0, 11089.0, 11086.0, 11083.0, 11081.0, 11082.0, 11067.0, 11071.0, 11069.0, 11070.0, 11066.0, 11068.0, 11065.0, 11072.0, 11090.0, 11096.0, 11090.0, 11090.0, 11097.0, 11090.0, 11086.0, 11075.0, 11068.0, 11056.0, 11052.0, 11058.0, 11056.0, 11052.0, 11053.0, 11056.0, 11054.0, 11062.0, 11075.0, 11082.0, 11087.0, 11096.0, 11089.0, 11090.0, 11083.0, 11072.0, 11073.0, 11055.0, 11055.0, 11059.0, 11050.0, 11055.0, 11066.0, 11057.0, 11079.0, 11079.0, 11069.0, 11068.0, 11079.0, 11064.0, 11073.0, 11076.0, 11061.0, 11068.0, 11052.0, 11050.0, 11056.0, 11058.0, 11047.0, 11042.0, 11054.0, 11051.0, 11048.0, 11051.0, 11058.0, 11058.0, 11053.0, 11053.0, 11057.0, 11055.0, 11047.0, 11048.0, 11059.0, 11068.0, 11069.0, 11077.0, 11072.0, 11058.0, 11062.0, 11056.0, 11046.0, 11051.0, 11051.0, 11044.0, 11050.0, 11060.0, 11062.0, 11062.0],
      "WindowWidth": [24403.0, 24232.0, 24162.0, 24128.0, 24118.0, 24047.0, 24007.0, 23984.0, 23976.0, 23943.0, 23933.0, 23943.0, 23963.0, 24008.0, 23998.0, 24020.0, 23999.0, 23976.0, 23937.0, 23897.0, 23868.0, 23880.0, 23868.0, 23834.0, 23870.0, 23879.0, 23891.0, 23899.0, 23916.0, 23924.0, 23918.0, 23895.0, 23901.0, 23895.0, 23905.0, 23923.0, 23953.0, 23942.0, 23970.0, 23946.0, 24009.0, 24054.0, 24017.0, 24019.0, 23974.0, 23933.0, 23921.0, 23892.0, 23903.0, 23916.0, 23927.0, 23933.0, 23911.0, 23910.0, 23892.0, 23883.0, 23902.0, 23921.0, 23925.0, 23917.0, 23954.0, 23947.0, 23980.0, 23984.0, 23973.0, 23974.0, 23990.0, 23964.0, 23946.0, 23944.0, 23935.0, 23924.0, 23922.0, 23926.0, 23917.0, 23916.0, 23880.0, 23874.0, 23864.0, 23871.0, 23877.0, 23886.0, 23907.0, 23891.0, 23894.0, 23906.0, 23926.0, 23935.0, 23912.0, 23892.0, 23871.0, 23855.0, 23884.0, 23888.0, 23905.0, 23909.0, 23922.0, 23935.0, 23950.0, 23939.0, 23958.0, 23968.0, 23963.0, 23956.0, 23951.0, 23957.0, 23926.0, 23934.0, 23924.0, 23930.0, 23920.0, 23925.0, 23916.0, 23936.0, 23979.0, 23992.0, 23980.0, 23976.0, 23988.0, 23972.0, 23964.0, 23941.0, 23926.0, 23896.0, 23889.0, 23902.0, 23897.0, 23885.0, 23891.0, 23896.0, 23894.0, 23916.0, 23946.0, 23962.0, 23976.0, 23997.0, 23978.0, 23979.0, 23962.0, 23932.0, 23936.0, 23896.0, 23893.0, 23904.0, 23882.0, 23892.0, 23923.0, 23906.0, 23956.0, 23959.0, 23937.0, 23937.0, 23963.0, 23929.0, 23946.0, 23950.0, 23914.0, 23930.0, 23888.0, 23879.0, 23895.0, 23900.0, 23875.0, 23862.0, 23893.0, 23882.0, 23879.0, 23886.0, 23903.0, 23907.0, 23899.0, 23894.0, 23905.0, 23904.0, 23880.0, 23881.0, 23911.0, 23931.0, 23933.0, 23954.0, 23943.0, 23911.0, 23921.0, 23903.0, 23878.0, 23888.0, 23890.0, 23872.0, 23886.0, 23913.0, 23915.0, 23913.0]
    },
    "slices": {}
  },
  "NumberOfVolumes": 192
}