{
  "AcquisitionMatrixPE": 104,
  "AcquisitionNumber": 1,
  "AcquisitionTime": "15:54:28.545000",
  "BandwidthPerPixelPhaseEncode": 16.297,
  "BaseResolution": 104,
  "BodyPartExamined": "BRAIN",
  "ConsistencyInfo": "N4_VE11C_LATEST_20160120",
  "ConversionSoftware": "dcm2niix",
  "ConversionSoftwareVersion": "v1.0.20190902",
  "DerivedVendorReportedEchoSpacing": 0.000590009,
  "DeviceSerialNumber": "166018",
  "DwellTime": 2.1e-06,
  "EchoTime": 0.0376,
  "EchoTrainLength": 104,
  "EffectiveEchoSpacing": 0.000590009,
  "FlipAngle": 68,
  "ImageComments": "Unaliased_MB6_PE3_LB",
  "ImageOrientationPatientDICOM": [0.999364, 0.0195196, -0.0298285, -0.0266929, 0.964362, -0.263236],
  "ImageType": [
    "ORIGINAL",
    "PRIMARY",
    "M",
    "MB",
    "ND",
    "MOSAIC"
],
  "ImagingFrequency": 123.19,
  "InPlanePhaseEncodingDirectionDICOM": "COL",
  "InstitutionAddress": "Washington_Place_6_NYC_NYC_US_10003",
  "InstitutionName": "NYU_-_CBI",
  "InstitutionalDepartmentName": "Department",
  "MRAcquisitionType": "2D",
  "MagneticFieldStrength": 3,
  "Manufacturer": "Siemens",
  "ManufacturersModelName": "Prisma",
  "Modality": "MR",
  "MultibandAccelerationFactor": 6,
  "PartialFourier": 1,
  "PatientPosition": "HFS",
  "PercentPhaseFOV": 100,
  "PhaseEncodingDirection": "j",
  "PhaseEncodingSteps": 104,
  "PhaseResolution": 1,
  "PixelBandwidth": 2290,
  "ProcedureStepDescription": "Investigators_Winawer",
  "ProtocolName": "cmrr_mbepi_s6_2mm_66sl_PA_task-prf",
  "PulseSequenceDetails": "%CustomerSeq%_cmrr_mbep2d_bold",
  "ReceiveCoilActiveElements": "HC1-7",
  "ReceiveCoilName": "HeadNeck_64",
  "ReconMatrixPE": 104,
  "RepetitionTime": 1,
  "SAR": 0.103125,
  "ScanOptions": "FS",
  "ScanningSequence": "EP",
  "SequenceName": "epfid2d1_104",
  "SequenceVariant": "SK_SS",
  "SeriesDescription": "cmrr_mbepi_s6_2mm_66sl_PA_task-prf",
  "SeriesNumber": 26,
  "ShimSetting": [261, -12567, -8417, 346, -10, -153, 7, 46],
  "SliceThickness": 2,
  "SliceTiming": [0, 0.535, 0.09, 0.625, 0.18, 0.7125, 0.2675, 0.8025, 0.3575, 0.8925, 0.4475, 0, 0.535, 0.09, 0.625, 0.18, 0.7125, 0.2675, 0.8025, 0.3575, 0.8925, 0.4475, 0, 0.535, 0.09, 0.625, 0.18, 0.7125, 0.2675, 0.8025, 0.3575, 0.8925, 0.4475, 0, 0.535, 0.09, 0.625, 0.18, 0.7125, 0.2675, 0.8025, 0.3575, 0.8925, 0.4475, 0, 0.535, 0.09, 0.625, 0.18, 0.7125, 0.2675, 0.8025, 0.3575, 0.8925, 0.4475, 0, 0.535, 0.09, 0.625, 0.18, 0.7125, 0.2675, 0.8025, 0.3575, 0.8925, 0.4475],
  "SoftwareVersions": "syngo_MR_E11",
  "SpacingBetweenSlices": 2,
  "StationName": "AWP166018",
  "TaskName": "prf",
  "TotalReadoutTime": 0.060771,
  "TxRefAmp": 272.672,
  "VendorReportedEchoSpacing": 0.00059,
  "WipMemBlock": "46738304-01e2-47db-9d14-50999ba621ed||Sequence: R016 ve11c/master r/8780670; Nov 27 2017 15:05:12 by eja",
  "dcmmeta_affine": [
    [-1.99872887134552, -0.05338578298687935, -0.04725443571805954, 111.35699462890625],
    [-0.03903922811150551, 1.9287240505218506, -0.5277306437492371, -57.51155471801758],
    [-0.05965704098343849, 0.5264728665351868, 1.9285402297973633, -48.909095764160156],
    [0.0, 0.0, 0.0, 1.0]
],
  "dcmmeta_reorient_transform": [
    [0.0, -1.0, 0.0, 103.0],
    [1.0, 0.0, 0.0, 0.0],
    [0.0, 0.0, 1.0, 0.0],
    [0.0, 0.0, 0.0, 1.0]
],
  "dcmmeta_shape": [104, 104, 66, 192],
  "dcmmeta_slice_dim": 2,
  "dcmmeta_version": 0.6,
  "global": {
    "const": {
      "AccessionNumber": "ksf5mzgs",
      "AcquisitionMatrix": [104, 0, 0, 104],
      "AngioFlag": "N",
      "BitsAllocated": 16,
      "BitsStored": 16,
      "BodyPartExamined": "BRAIN",
      "Columns": 936,
      "EchoNumbers": 1,
      "EchoTime": 37.6,
      "EchoTrainLength": 104,
      "FlipAngle": 68.0,
      "HighBit": 15,
      "ImageOrientationPatient": [0.99936442005868, 0.01951961372999, -0.0298285199199, -0.0266928923926, 0.96436200171428, -0.2632364320252],
      "ImagePositionPatient": [-915.12096979821, -959.73652198137, 249.14764885667],
      "ImageType": [
        "ORIGINAL",
        "PRIMARY",
        "M",
        "MB",
        "ND",
        "MOSAIC"
],
      "ImagedNucleus": "1H",
      "ImagingFrequency": 123.190316,
      "InPlanePhaseEncodingDirection": "COL",
      "MRAcquisitionType": "2D",
      "MagneticFieldStrength": 3.0,
      "Manufacturer": "SIEMENS",
      "ManufacturerModelName": "Prisma",
      "Modality": "MR",
      "NumberOfAverages": 1.0,
      "NumberOfPhaseEncodingSteps": 104,
      "PercentPhaseFieldOfView": 100.0,
      "PercentSampling": 100.0,
      "PerformedProcedureStepStartTime": "150214.754000",
      "PhotometricInterpretation": "MONOCHROME2",
      "PixelBandwidth": 2290.0,
      "PixelRepresentation": 0,
      "PixelSpacing": [2.0, 2.0],
      "ProtocolName": "cmrr_mbepi_s6_2mm_66sl_PA_task-prf",
      "RepetitionTime": 1000.0,
      "Rows": 936,
      "SAR": 0.10312499430339,
      "SamplesPerPixel": 1,
      "ScanOptions": "FS",
      "ScanningSequence": "EP",
      "SequenceName": "epfid2d1_104",
      "SequenceVariant": [
        "SK",
        "SS"
],
      "SeriesDescription": "cmrr_mbepi_s6_2mm_66sl_PA_task-prf",
      "SeriesNumber": 26,
      "SeriesTime": "155523.864000",
      "SliceLocation": -34.617329867355,
      "SliceThickness": 2.0,
      "SmallestImagePixelValue": 0,
      "SoftwareVersions": "syngo MR E11",
      "SpacingBetweenSlices": 2.0000000209897,
      "SpecificCharacterSet": "ISO_IR 100",
      "StudyID": "1",
      "StudyTime": "150214.687000",
      "TransmitCoilName": "Body",
      "VariableFlipAngleFlag": "N",
      "WindowCenterWidthExplanation": "Algo1",
      "dBdt": 0.0},
    "slices": {}
  },
  "time": {
    "samples": {
      "AcquisitionNumber": [1, 2, 3, 4, 5, 6, 7, 8, 9, 10, 11, 12, 13, 14, 15, 16, 17, 18, 19, 20, 21, 22, 23, 24, 25, 26, 27, 28, 29, 30, 31, 32, 33, 34, 35, 36, 37, 38, 39, 40, 41, 42, 43, 44, 45, 46, 47, 48, 49, 50, 51, 52, 53, 54, 55, 56, 57, 58, 59, 60, 61, 62, 63, 64, 65, 66, 67, 68, 69, 70, 71, 72, 73, 74, 75, 76, 77, 78, 79, 80, 81, 82, 83, 84, 85, 86, 87, 88, 89, 90, 91, 92, 93, 94, 95, 96, 97, 98, 99, 100, 101, 102, 103, 104, 105, 106, 107, 108, 109, 110, 111, 112, 113, 114, 115, 116, 117, 118, 119, 120, 121, 122, 123, 124, 125, 126, 127, 128, 129, 130, 131, 132, 133, 134, 135, 136, 137, 138, 139, 140, 141, 142, 143, 144, 145, 146, 147, 148, 149, 150, 151, 152, 153, 154, 155, 156, 157, 158, 159, 160, 161, 162, 163, 164, 165, 166, 167, 168, 169, 170, 171, 172, 173, 174, 175, 176, 177, 178, 179, 180, 181, 182, 183, 184, 185, 186, 187, 188, 189, 190, 191, 192],
      "AcquisitionTime": ["155428.545000", "155429.545000", "155430.545000", "155431.545000", "155432.545000", "155433.545000", "155434.545000", "155435.545000", "155436.545000", "155437.545000", "155438.545000", "155439.545000", "155440.545000", "155441.545000", "155442.545000", "155443.545000", "155444.545000", "155445.545000", "155446.545000", "155447.545000", "155448.545000", "155449.545000", "155450.545000", "155451.545000", "155452.545000", "155453.545000", "155454.545000", "155455.545000", "155456.545000", "155457.545000", "155458.545000", "155459.545000", "155500.545000", "155501.545000", "155502.545000", "155503.545000", "155504.545000", "155505.545000", "155506.545000", "155507.545000", "155508.545000", "155509.545000", "155510.545000", "155511.545000", "155512.545000", "155513.545000", "155514.545000", "155515.545000", "155516.545000", "155517.545000", "155518.545000", "155519.545000", "155520.545000", "155521.545000", "155522.545000", "155523.545000", "155524.545000", "155525.545000", "155526.545000", "155527.545000", "155528.545000", "155529.545000", "155530.545000", "155531.545000", "155532.545000", "155533.545000", "155534.545000", "155535.545000", "155536.545000", "155537.545000", "155538.545000", "155539.545000", "155540.545000", "155541.545000", "155542.545000", "155543.545000", "155544.545000", "155545.545000", "155546.545000", "155547.545000", "155548.545000", "155549.545000", "155550.545000", "155551.545000", "155552.545000", "155553.545000", "155554.545000", "155555.545000", "155556.545000", "155557.545000", "155558.545000", "155559.545000", "155600.545000", "155601.545000", "155602.545000", "155603.545000", "155604.545000", "155605.545000", "155606.545000", "155607.545000", "155608.545000", "155609.545000", "155610.545000", "155611.545000", "155612.545000", "155613.545000", "155614.545000", "155615.545000", "155616.545000", "155617.545000", "155618.545000", "155619.545000", "155620.545000", "155621.545000", "155622.545000", "155623.545000", "155624.545000", "155625.545000", "155626.545000", "155627.545000", "155628.545000", "155629.545000", "155630.545000", "155631.545000", "155632.545000", "155633.545000", "155634.545000", "155635.545000", "155636.545000", "155637.545000", "155638.545000", "155639.545000", "155640.545000", "155641.545000", "155642.545000", "155643.545000", "155644.545000", "155645.545000", "155646.545000", "155647.545000", "155648.545000", "155649.545000", "155650.545000", "155651.545000", "155652.545000", "155653.545000", "155654.545000", "155655.545000", "155656.545000", "155657.545000", "155658.545000", "155659.545000", "155700.545000", "155701.545000", "155702.545000", "155703.545000", "155704.545000", "155705.545000", "155706.545000", "155707.545000", "155708.545000", "155709.545000", "155710.545000", "155711.545000", "155712.545000", "155713.545000", "155714.545000", "155715.545000", "155716.545000", "155717.545000", "155718.545000", "155719.545000", "155720.545000", "155721.545000", "155722.545000", "155723.545000", "155724.545000", "155725.545000", "155726.545000", "155727.545000", "155728.545000", "155729.545000", "155730.545000", "155731.545000", "155732.545000", "155733.545000", "155734.545000", "155735.545000", "155736.545000", "155737.545000", "155738.545000", "155739.545000"],
      "ContentTime": ["155523.867000", "155523.870000", "155523.873000", "155523.876000", "155523.886000", "155523.893000", "155523.896000", "155528.864000", "155528.875000", "155528.878000", "155528.887000", "155528.890000", "155528.893000", "155528.896000", "155533.865000", "155533.868000", "155533.871000", "155533.874000", "155533.878000", "155533.881000", "155533.884000", "155538.865000", "155538.868000", "155538.871000", "155538.875000", "155538.878000", "155538.881000", "155538.884000", "155543.865000", "155543.868000", "155543.871000", "155543.874000", "155543.877000", "155543.880000", "155543.884000", "155548.865000", "155548.884000", "155548.892000", "155548.895000", "155548.898000", "155548.901000", "155548.922000", "155553.865000", "155553.868000", "155553.871000", "155553.874000", "155553.877000", "155553.880000", "155553.898000", "155553.901000", "155558.865000", "155558.868000", "155558.871000", "155558.874000", "155558.877000", "155558.880000", "155558.883000", "155603.864000", "155603.867000", "155603.870000", "155603.873000", "155603.876000", "155603.879000", "155603.890000", "155608.865000", "155608.868000", "155608.871000", "155608.875000", "155608.878000", "155608.881000", "155608.884000", "155613.865000", "155613.868000", "155613.871000", "155613.874000", "155613.877000", "155613.880000", "155613.884000", "155618.865000", "155618.868000", "155618.871000", "155618.874000", "155618.877000", "155618.880000", "155618.883000", "155623.865000", "155623.868000", "155623.871000", "155623.874000", "155623.877000", "155623.880000", "155623.883000", "155628.865000", "155628.868000", "155628.871000", "155628.874000", "155628.877000", "155628.880000", "155628.884000", "155633.865000", "155633.868000", "155633.871000", "155633.874000", "155633.877000", "155633.880000", "155633.883000", "155638.864000", "155638.867000", "155638.870000", "155638.873000", "155638.877000", "155638.880000", "155638.883000", "155643.865000", "155643.868000", "155643.871000", "155643.874000", "155643.877000", "155643.880000", "155643.884000", "155648.865000", "155648.868000", "155648.871000", "155648.874000", "155648.877000", "155648.881000", "155648.884000", "155653.865000", "155653.868000", "155653.871000", "155653.874000", "155653.877000", "155653.880000", "155653.884000", "155658.865000", "155658.868000", "155658.871000", "155658.874000", "155658.877000", "155658.880000", "155658.883000", "155658.886000", "155703.865000", "155703.868000", "155703.871000", "155703.874000", "155703.877000", "155703.880000", "155703.884000", "155708.865000", "155708.868000", "155708.871000", "155708.874000", "155708.877000", "155708.881000", "155708.884000", "155713.864000", "155713.867000", "155713.870000", "155713.873000", "155713.876000", "155713.879000", "155713.883000", "155718.865000", "155718.868000", "155718.871000", "155718.874000", "155718.877000", "155718.880000", "155723.865000", "155723.868000", "155723.871000", "155723.874000", "155723.877000", "155728.865000", "155728.868000", "155728.871000", "155728.874000", "155728.878000", "155733.865000", "155733.868000", "155733.871000", "155733.874000", "155733.877000", "155738.865000", "155738.868000", "155738.871000", "155738.881000", "155738.884000", "155741.230000", "155741.235000", "155741.238000"],
      "InstanceCreationTime": ["155523.867000", "155523.870000", "155523.873000", "155523.876000", "155523.886000", "155523.893000", "155523.896000", "155528.864000", "155528.875000", "155528.878000", "155528.887000", "155528.890000", "155528.893000", "155528.896000", "155533.865000", "155533.868000", "155533.871000", "155533.874000", "155533.878000", "155533.881000", "155533.884000", "155538.865000", "155538.868000", "155538.871000", "155538.875000", "155538.878000", "155538.881000", "155538.884000", "155543.865000", "155543.868000", "155543.871000", "155543.874000", "155543.877000", "155543.880000", "155543.884000", "155548.865000", "155548.884000", "155548.892000", "155548.895000", "155548.898000", "155548.901000", "155548.922000", "155553.865000", "155553.868000", "155553.871000", "155553.874000", "155553.877000", "155553.880000", "155553.898000", "155553.901000", "155558.865000", "155558.868000", "155558.871000", "155558.874000", "155558.877000", "155558.880000", "155558.883000", "155603.864000", "155603.867000", "155603.870000", "155603.873000", "155603.876000", "155603.879000", "155603.890000", "155608.865000", "155608.868000", "155608.871000", "155608.875000", "155608.878000", "155608.881000", "155608.884000", "155613.865000", "155613.868000", "155613.871000", "155613.874000", "155613.877000", "155613.880000", "155613.884000", "155618.865000", "155618.868000", "155618.871000", "155618.874000", "155618.877000", "155618.880000", "155618.883000", "155623.865000", "155623.868000", "155623.871000", "155623.874000", "155623.877000", "155623.880000", "155623.883000", "155628.865000", "155628.868000", "155628.871000", "155628.874000", "155628.877000", "155628.880000", "155628.884000", "155633.865000", "155633.868000", "155633.871000", "155633.874000", "155633.877000", "155633.880000", "155633.883000", "155638.864000", "155638.867000", "155638.870000", "155638.873000", "155638.877000", "155638.880000", "155638.883000", "155643.865000", "155643.868000", "155643.871000", "155643.874000", "155643.877000", "155643.880000", "155643.884000", "155648.865000", "155648.868000", "155648.871000", "155648.874000", "155648.877000", "155648.881000", "155648.884000", "155653.865000", "155653.868000", "155653.871000", "155653.874000", "155653.877000", "155653.880000", "155653.884000", "155658.865000", "155658.868000", "155658.871000", "155658.874000", "155658.877000", "155658.880000", "155658.883000", "155658.886000", "155703.865000", "155703.868000", "155703.871000", "155703.874000", "155703.877000", "155703.880000", "155703.884000", "155708.865000", "155708.868000", "155708.871000", "155708.874000", "155708.877000", "155708.881000", "155708.884000", "155713.864000", "155713.867000", "155713.870000", "155713.873000", "155713.876000", "155713.879000", "155713.883000", "155718.865000", "155718.868000", "155718.871000", "155718.874000", "155718.877000", "155718.880000", "155723.865000", "155723.868000", "155723.871000", "155723.874000", "155723.877000", "155728.865000", "155728.868000", "155728.871000", "155728.874000", "155728.878000", "155733.865000", "155733.868000", "155733.871000", "155733.874000", "155733.877000", "155738.865000", "155738.868000", "155738.871000", "155738.881000", "155738.884000", "155741.230000", "155741.235000", "155741.238000"],
      "InstanceNumber": [1, 2, 3, 4, 5, 6, 7, 8, 9, 10, 11, 12, 13, 14, 15, 16, 17, 18, 19, 20, 21, 22, 23, 24, 25, 26, 27, 28, 29, 30, 31, 32, 33, 34, 35, 36, 37, 38, 39, 40, 41, 42, 43, 44, 45, 46, 47, 48, 49, 50, 51, 52, 53, 54, 55, 56, 57, 58, 59, 60, 61, 62, 63, 64, 65, 66, 67, 68, 69, 70, 71, 72, 73, 74, 75, 76, 77, 78, 79, 80, 81, 82, 83, 84, 85, 86, 87, 88, 89, 90, 91, 92, 93, 94, 95, 96, 97, 98, 99, 100, 101, 102, 103, 104, 105, 106, 107, 108, 109, 110, 111, 112, 113, 114, 115, 116, 117, 118, 119, 120, 121, 122, 123, 124, 125, 126, 127, 128, 129, 130, 131, 132, 133, 134, 135, 136, 137, 138, 139, 140, 141, 142, 143, 144, 145, 146, 147, 148, 149, 150, 151, 152, 153, 154, 155, 156, 157, 158, 159, 160, 161, 162, 163, 164, 165, 166, 167, 168, 169, 170, 171, 172, 173, 174, 175, 176, 177, 178, 179, 180, 181, 182, 183, 184, 185, 186, 187, 188, 189, 190, 191, 192],
      "LargestImagePixelValue": [61977, 60521, 58964, 58384, 57581, 56240, 55722, 55368, 54170, 54639, 54867, 54536, 54202, 53596, 54067, 53949, 55341, 54502, 55507, 53769, 53427, 53024, 53019, 53274, 54132, 54474, 54719, 54298, 53682, 53864, 54669, 54649, 55344, 54983, 54334, 54245, 54221, 54806, 53991, 53913, 53916, 54091, 54138, 54763, 55231, 54633, 54975, 55240, 55203, 53749, 53275, 54116, 53913, 54477, 54073, 54556, 55224, 54361, 54822, 54382, 54785, 54178, 54808, 56168, 55581, 55395, 54857, 55457, 56058, 55768, 55063, 55332, 55106, 54784, 54880, 54899, 55475, 55455, 54561, 55112, 54564, 55274, 54887, 55129, 55079, 54945, 54777, 54939, 53953, 54222, 54203, 54417, 54287, 53690, 53078, 53149, 53428, 53730, 53970, 54993, 55329, 54923, 54792, 54708, 55609, 55453, 55169, 55113, 55217, 55309, 54849, 55414, 56000, 54766, 54716, 54554, 54885, 54894, 55008, 55692, 55848, 55861, 55586, 55806, 54779, 55041, 55358, 55891, 56233, 56159, 56114, 56274, 55920, 56895, 55644, 55763, 55974, 56185, 56054, 55900, 56978, 56417, 56874, 57222, 57084, 56762, 57431, 56678, 55759, 55960, 56227, 56219, 56196, 56128, 56087, 55778, 56266, 55384, 55258, 56376, 55482, 55090, 55830, 55935, 55477, 56057, 55526, 55083, 55787, 55285, 55630, 55380, 55402, 56091, 55885, 55594, 55269, 55722, 56087, 55934, 55268, 54999, 54832, 54779, 54862, 55157, 54665, 55605, 55294, 55368, 55063, 55736],
      "WindowCenter": [11194.0, 11154.0, 11128.0, 11117.0, 11102.0, 11093.0, 11087.0, 11100.0, 11093.0, 11097.0, 11098.0, 11083.0, 11087.0, 11079.0, 11090.0, 11090.0, 11108.0, 11109.0, 11117.0, 11119.0, 11119.0, 11119.0, 11109.0, 11107.0, 11110.0, 11102.0, 11105.0, 11085.0, 11079.0, 11075.0, 11085.0, 11092.0, 11102.0, 11095.0, 11090.0, 11097.0, 11091.0, 11104.0, 11100.0, 11089.0, 11088.0, 11079.0, 11074.0, 11078.0, 11072.0, 11062.0, 11067.0, 11088.0, 11112.0, 11100.0, 11080.0, 11082.0, 11074.0, 11066.0, 11058.0, 11053.0, 11053.0, 11036.0, 11032.0, 11032.0, 11038.0, 11035.0, 11044.0, 11061.0, 11056.0, 11043.0, 11044.0, 11049.0, 11063.0, 11076.0, 11075.0, 11088.0, 11083.0, 11078.0, 11077.0, 11073.0, 11074.0, 11066.0, 11069.0, 11074.0, 11069.0, 11081.0, 11088.0, 11094.0, 11094.0, 11092.0, 11098.0, 11096.0, 11086.0, 11084.0, 11088.0, 11102.0, 11099.0, 11107.0, 11100.0, 11094.0, 11089.0, 11089.0, 11075.0, 11069.0, 11063.0, 11058.0, 11061.0, 11067.0, 11086.0, 11089.0, 11086.0, 11070.0, 11067.0, 11058.0, 11053.0, 11080.0, 11104.0, 11096.0, 11091.0, 11084.0, 11084.0, 11074.0, 11074.0, 11086.0, 11104.0, 11117.0, 11124.0, 11126.0, 11115.0, 11114.0, 11104.0, 11094.0, 11093.0, 11088.0, 11076.0, 11080.0, 11081.0, 11104.0, 11098.0, 11110.0, 11118.0, 11118.0, 11109.0, 11092.0, 11086.0, 11074.0, 11071.0, 11074.0, 11068.0, 11070.0, 11074.0, 11072.0, 11068.0, 11073.0, 11070.0, 11064.0, 11070.0, 11071.0, 11073.0, 11080.0, 11085.0, 11078.0, 11071.0, 11082.0, 11074.0, 11066.0, 11064.0, 11063.0, 11062.0, 11079.0, 11074.0, 11071.0, 11085.0, 11086.0, 11085.0, 11079.0, 11078.0, 11083.0, 11080.0, 11076.0, 11067.0, 11070.0, 11090.0, 11099.0, 11115.0, 11107.0, 11105.0, 11104.0, 11097.0, 11094.0, 11088.0, 11083.0, 11067.0, 11075.0, 11069.0, 11069.0],
      "WindowWidth": [24329.0, 24194.0, 24110.0, 24072.0, 24025.0, 24003.0, 23987.0, 24018.0, 24002.0, 24009.0, 24011.0, 23974.0, 23986.0, 23969.0, 23991.0, 23991.0, 24032.0, 24037.0, 24056.0, 24065.0, 24069.0, 24069.0, 24043.0, 24040.0, 24043.0, 24021.0, 24029.0, 23982.0, 23965.0, 23956.0, 23976.0, 23993.0, 24018.0, 24002.0, 23991.0, 24010.0, 23996.0, 24022.0, 24008.0, 23982.0, 23979.0, 23959.0, 23949.0, 23957.0, 23941.0, 23918.0, 23930.0, 23980.0, 24037.0, 24010.0, 23964.0, 23964.0, 23945.0, 23926.0, 23911.0, 23901.0, 23895.0, 23856.0, 23843.0, 23842.0, 23854.0, 23847.0, 23866.0, 23903.0, 23892.0, 23862.0, 23865.0, 23876.0, 23912.0, 23944.0, 23948.0, 23983.0, 23972.0, 23961.0, 23959.0, 23949.0, 23948.0, 23934.0, 23941.0, 23951.0, 23943.0, 23968.0, 23986.0, 24001.0, 24003.0, 23997.0, 24014.0, 24008.0, 23986.0, 23980.0, 23989.0, 24022.0, 24020.0, 24039.0, 24022.0, 24004.0, 23991.0, 23988.0, 23949.0, 23932.0, 23915.0, 23901.0, 23910.0, 23927.0, 23972.0, 23983.0, 23981.0, 23939.0, 23931.0, 23912.0, 23899.0, 23968.0, 24020.0, 24003.0, 23992.0, 23975.0, 23972.0, 23948.0, 23947.0, 23971.0, 24010.0, 24044.0, 24059.0, 24058.0, 24037.0, 24033.0, 24007.0, 23985.0, 23985.0, 23970.0, 23941.0, 23951.0, 23954.0, 24004.0, 23989.0, 24019.0, 24036.0, 24034.0, 24016.0, 23977.0, 23962.0, 23935.0, 23930.0, 23934.0, 23918.0, 23925.0, 23933.0, 23927.0, 23922.0, 23936.0, 23927.0, 23915.0, 23928.0, 23929.0, 23934.0, 23954.0, 23965.0, 23951.0, 23940.0, 23961.0, 23946.0, 23927.0, 23920.0, 23914.0, 23918.0, 23959.0, 23944.0, 23941.0, 23973.0, 23975.0, 23974.0, 23961.0, 23956.0, 23966.0, 23962.0, 23953.0, 23928.0, 23939.0, 23984.0, 24006.0, 24050.0, 24032.0, 24026.0, 24023.0, 24009.0, 23998.0, 23990.0, 23977.0, 23934.0, 23953.0, 23940.0, 23936.0]
    },
    "slices": {}
  },
  "NumberOfVolumes": 192
}