{
  "AcquisitionMatrixPE": 104,
  "AcquisitionNumber": 1,
  "AcquisitionTime": "10:20:36.827500",
  "BandwidthPerPixelPhaseEncode": 16.297,
  "BaseResolution": 104,
  "BodyPartExamined": "BRAIN",
  "ConsistencyInfo": "N4_VE11C_LATEST_20160120",
  "ConversionSoftware": "dcm2niix",
  "ConversionSoftwareVersion": "v1.0.20210317",
  "DerivedVendorReportedEchoSpacing": 0.000590009,
  "DeviceSerialNumber": "166018",
  "DwellTime": 2.1e-06,
  "EchoTime": 0.0376,
  "EchoTrainLength": 104,
  "EffectiveEchoSpacing": 0.000590009,
  "FlipAngle": 68,
  "ImageComments": "Unaliased MB6/PE3/LB",
  "ImageOrientationPatientDICOM": [0.999704, 0.00605034, 0.0235438, -0.0045365, 0.997951, -0.063829],
  "ImageType": [
    "ORIGINAL",
    "PRIMARY",
    "M",
    "MB",
    "ND",
    "MOSAIC"
],
  "ImagingFrequency": 123.197,
  "InPlanePhaseEncodingDirectionDICOM": "COL",
  "InstitutionAddress": "Washington Place 6,NYC,NYC,US,10003",
  "InstitutionName": "NYU - CBI",
  "InstitutionalDepartmentName": "Department",
  "MRAcquisitionType": "2D",
  "MagneticFieldStrength": 3,
  "Manufacturer": "Siemens",
  "ManufacturersModelName": "Prisma",
  "Modality": "MR",
  "MultibandAccelerationFactor": 6,
  "PartialFourier": 1,
  "PatientPosition": "HFS",
  "PercentPhaseFOV": 100,
  "PercentSampling": 100,
  "PhaseEncodingDirection": "j",
  "PhaseEncodingSteps": 104,
  "PhaseResolution": 1,
  "PixelBandwidth": 2290,
  "ProcedureStepDescription": "Investigators^Winawer",
  "ProtocolName": "cmrr_mbepi_s6_2mm_66sl_PA_task-wedgering1",
  "PulseSequenceDetails": "%CustomerSeq%\\cmrr_mbep2d_bold",
  "ReceiveCoilActiveElements": "HC1-7",
  "ReceiveCoilName": "HeadNeck_64",
  "ReconMatrixPE": 104,
  "RepetitionTime": 1,
  "SAR": 0.0728578,
  "ScanOptions": "FS",
  "ScanningSequence": "EP",
  "SequenceName": "epfid2d1_104",
  "SequenceVariant": "SK\\SS",
  "SeriesDescription": "cmrr_mbepi_s6_2mm_66sl_PA_task-wedgering1",
  "SeriesNumber": 25,
  "ShimSetting": [313, -12753, -8644, 90, 80, -401, 14, 54],
  "SliceThickness": 2,
  "SliceTiming": [0, 0.535, 0.09, 0.625, 0.1775, 0.7125, 0.2675, 0.8025, 0.3575, 0.89, 0.445, 0, 0.535, 0.09, 0.625, 0.1775, 0.7125, 0.2675, 0.8025, 0.3575, 0.89, 0.445, 0, 0.535, 0.09, 0.625, 0.1775, 0.7125, 0.2675, 0.8025, 0.3575, 0.89, 0.445, 0, 0.535, 0.09, 0.625, 0.1775, 0.7125, 0.2675, 0.8025, 0.3575, 0.89, 0.445, 0, 0.535, 0.09, 0.625, 0.1775, 0.7125, 0.2675, 0.8025, 0.3575, 0.89, 0.445, 0, 0.535, 0.09, 0.625, 0.1775, 0.7125, 0.2675, 0.8025, 0.3575, 0.89, 0.445],
  "SoftwareVersions": "syngo MR E11",
  "SpacingBetweenSlices": 2,
  "StationName": "AWP166018",
  "TaskName": "wedgering1",
  "TotalReadoutTime": 0.060771,
  "TxRefAmp": 213.637,
  "VendorReportedEchoSpacing": 0.00059,
  "WipMemBlock": "76376b19-cfc2-42a7-bf04-793a8521f4f0||Sequence: R016 ve11c/master r/8780670; Nov 27 2017 15:05:12 by eja",
  "dcmmeta_affine": [
    [-1.9994089603424072, -0.009073009714484215, 0.04776341840624809, 106.22615814208984],
    [-0.01210068166255951, 1.995901107788086, -0.1274067610502243, -83.50416564941406],
    [0.04708755016326904, 0.12765808403491974, 1.9953662157058716, -42.88472366333008],
    [0.0, 0.0, 0.0, 1.0]
],
  "dcmmeta_reorient_transform": [
    [0.0, -1.0, 0.0, 103.0],
    [1.0, 0.0, 0.0, 0.0],
    [0.0, 0.0, 1.0, 0.0],
    [0.0, 0.0, 0.0, 1.0]
],
  "dcmmeta_shape": [104, 104, 66, 300],
  "dcmmeta_slice_dim": 2,
  "dcmmeta_version": 0.6,
  "global": {
    "const": {
      "AccessionNumber": "Liat8bkt",
      "AcquisitionMatrix": [104, 0, 0, 104],
      "AngioFlag": "N",
      "BitsAllocated": 16,
      "BitsStored": 16,
      "BodyPartExamined": "BRAIN",
      "Columns": 936,
      "EchoNumbers": 1,
      "EchoTime": 37.6,
      "EchoTrainLength": 104,
      "FlipAngle": 68.0,
      "HighBit": 15,
      "ImageOrientationPatient": [0.99970449837098, 0.00605034083913, 0.0235437743906, -0.004536504795, 0.99795053641773, -0.0638290450173],
      "ImagePositionPatient": [-933.27140533339, -957.40237383153, 3.7814037179307],
      "ImageType": [
        "ORIGINAL",
        "PRIMARY",
        "M",
        "MB",
        "ND",
        "MOSAIC"
],
      "ImagedNucleus": "1H",
      "ImagingFrequency": 123.196964,
      "InPlanePhaseEncodingDirection": "COL",
      "MRAcquisitionType": "2D",
      "MagneticFieldStrength": 3.0,
      "Manufacturer": "SIEMENS",
      "ManufacturerModelName": "Prisma",
      "Modality": "MR",
      "NumberOfAverages": 1.0,
      "NumberOfPhaseEncodingSteps": 104,
      "PercentPhaseFieldOfView": 100.0,
      "PercentSampling": 100.0,
      "PerformedProcedureStepStartTime": "090455.502000",
      "PhotometricInterpretation": "MONOCHROME2",
      "PixelBandwidth": 2290.0,
      "PixelRepresentation": 0,
      "PixelSpacing": [2.0, 2.0],
      "ProtocolName": "cmrr_mbepi_s6_2mm_66sl_PA_task-wedgering1",
      "RepetitionTime": 1000.0,
      "Rows": 936,
      "SAR": 0.07285779634946,
      "SamplesPerPixel": 1,
      "ScanOptions": "FS",
      "ScanningSequence": "EP",
      "SequenceName": "epfid2d1_104",
      "SequenceVariant": [
        "SK",
        "SS"
],
      "SeriesDescription": "cmrr_mbepi_s6_2mm_66sl_PA_task-wedgering1",
      "SeriesNumber": 25,
      "SeriesTime": "102146.288000",
      "SliceLocation": -34.929004979373,
      "SliceThickness": 2.0,
      "SmallestImagePixelValue": 0,
      "SoftwareVersions": "syngo MR E11",
      "SpacingBetweenSlices": 2.0000000225826,
      "SpecificCharacterSet": "ISO_IR 100",
      "StudyID": "1",
      "StudyTime": "090455.287000",
      "TransmitCoilName": "Body",
      "VariableFlipAngleFlag": "N",
      "WindowCenterWidthExplanation": "Algo1",
      "dBdt": 0.0},
    "slices": {}
  },
  "time": {
    "samples": {
      "AcquisitionNumber": [1, 2, 3, 4, 5, 6, 7, 8, 9, 10, 11, 12, 13, 14, 15, 16, 17, 18, 19, 20, 21, 22, 23, 24, 25, 26, 27, 28, 29, 30, 31, 32, 33, 34, 35, 36, 37, 38, 39, 40, 41, 42, 43, 44, 45, 46, 47, 48, 49, 50, 51, 52, 53, 54, 55, 56, 57, 58, 59, 60, 61, 62, 63, 64, 65, 66, 67, 68, 69, 70, 71, 72, 73, 74, 75, 76, 77, 78, 79, 80, 81, 82, 83, 84, 85, 86, 87, 88, 89, 90, 91, 92, 93, 94, 95, 96, 97, 98, 99, 100, 101, 102, 103, 104, 105, 106, 107, 108, 109, 110, 111, 112, 113, 114, 115, 116, 117, 118, 119, 120, 121, 122, 123, 124, 125, 126, 127, 128, 129, 130, 131, 132, 133, 134, 135, 136, 137, 138, 139, 140, 141, 142, 143, 144, 145, 146, 147, 148, 149, 150, 151, 152, 153, 154, 155, 156, 157, 158, 159, 160, 161, 162, 163, 164, 165, 166, 167, 168, 169, 170, 171, 172, 173, 174, 175, 176, 177, 178, 179, 180, 181, 182, 183, 184, 185, 186, 187, 188, 189, 190, 191, 192, 193, 194, 195, 196, 197, 198, 199, 200, 201, 202, 203, 204, 205, 206, 207, 208, 209, 210, 211, 212, 213, 214, 215, 216, 217, 218, 219, 220, 221, 222, 223, 224, 225, 226, 227, 228, 229, 230, 231, 232, 233, 234, 235, 236, 237, 238, 239, 240, 241, 242, 243, 244, 245, 246, 247, 248, 249, 250, 251, 252, 253, 254, 255, 256, 257, 258, 259, 260, 261, 262, 263, 264, 265, 266, 267, 268, 269, 270, 271, 272, 273, 274, 275, 276, 277, 278, 279, 280, 281, 282, 283, 284, 285, 286, 287, 288, 289, 290, 291, 292, 293, 294, 295, 296, 297, 298, 299, 300],
      "AcquisitionTime": ["102036.827500", "102037.827500", "102038.827500", "102039.827500", "102040.827500", "102041.827500", "102042.827500", "102043.827500", "102044.827500", "102045.827500", "102046.827500", "102047.827500", "102048.827500", "102049.827500", "102050.827500", "102051.827500", "102052.827500", "102053.827500", "102054.827500", "102055.827500", "102056.827500", "102057.827500", "102058.827500", "102059.827500", "102100.827500", "102101.827500", "102102.827500", "102103.827500", "102104.827500", "102105.827500", "102106.827500", "102107.827500", "102108.827500", "102109.827500", "102110.827500", "102111.827500", "102112.827500", "102113.827500", "102114.827500", "102115.827500", "102116.827500", "102117.827500", "102118.827500", "102119.827500", "102120.827500", "102121.827500", "102122.827500", "102123.827500", "102124.827500", "102125.827500", "102126.827500", "102127.827500", "102128.827500", "102129.827500", "102130.827500", "102131.827500", "102132.827500", "102133.827500", "102134.827500", "102135.827500", "102136.827500", "102137.827500", "102138.827500", "102139.827500", "102140.827500", "102141.827500", "102142.827500", "102143.827500", "102144.827500", "102145.827500", "102146.827500", "102147.827500", "102148.827500", "102149.827500", "102150.827500", "102151.827500", "102152.827500", "102153.827500", "102154.827500", "102155.827500", "102156.827500", "102157.827500", "102158.827500", "102159.827500", "102200.827500", "102201.827500", "102202.827500", "102203.827500", "102204.827500", "102205.827500", "102206.827500", "102207.827500", "102208.827500", "102209.827500", "102210.827500", "102211.827500", "102212.827500", "102213.827500", "102214.827500", "102215.827500", "102216.827500", "102217.827500", "102218.827500", "102219.827500", "102220.827500", "102221.827500", "102222.827500", "102223.827500", "102224.827500", "102225.827500", "102226.827500", "102227.827500", "102228.827500", "102229.827500", "102230.827500", "102231.827500", "102232.827500", "102233.827500", "102234.827500", "102235.827500", "102236.827500", "102237.827500", "102238.827500", "102239.827500", "102240.827500", "102241.827500", "102242.827500", "102243.827500", "102244.827500", "102245.827500", "102246.827500", "102247.827500", "102248.827500", "102249.827500", "102250.827500", "102251.827500", "102252.827500", "102253.827500", "102254.827500", "102255.827500", "102256.827500", "102257.827500", "102258.827500", "102259.827500", "102300.827500", "102301.827500", "102302.827500", "102303.827500", "102304.827500", "102305.827500", "102306.827500", "102307.827500", "102308.827500", "102309.827500", "102310.827500", "102311.827500", "102312.827500", "102313.827500", "102314.827500", "102315.827500", "102316.827500", "102317.827500", "102318.827500", "102319.827500", "102320.827500", "102321.827500", "102322.827500", "102323.827500", "102324.827500", "102325.827500", "102326.827500", "102327.827500", "102328.827500", "102329.827500", "102330.827500", "102331.827500", "102332.827500", "102333.827500", "102334.827500", "102335.827500", "102336.827500", "102337.827500", "102338.827500", "102339.827500", "102340.827500", "102341.827500", "102342.827500", "102343.827500", "102344.827500", "102345.827500", "102346.827500", "102347.827500", "102348.827500", "102349.827500", "102350.827500", "102351.827500", "102352.827500", "102353.827500", "102354.827500", "102355.827500", "102356.827500", "102357.827500", "102358.827500", "102359.827500", "102400.827500", "102401.827500", "102402.827500", "102403.827500", "102404.827500", "102405.827500", "102406.827500", "102407.827500", "102408.827500", "102409.827500", "102410.827500", "102411.827500", "102412.827500", "102413.827500", "102414.827500", "102415.827500", "102416.827500", "102417.827500", "102418.827500", "102419.827500", "102420.827500", "102421.827500", "102422.827500", "102423.827500", "102424.827500", "102425.827500", "102426.827500", "102427.827500", "102428.827500", "102429.827500", "102430.827500", "102431.827500", "102432.827500", "102433.827500", "102434.827500", "102435.827500", "102436.827500", "102437.827500", "102438.827500", "102439.827500", "102440.827500", "102441.827500", "102442.827500", "102443.827500", "102444.827500", "102445.827500", "102446.827500", "102447.827500", "102448.827500", "102449.827500", "102450.827500", "102451.827500", "102452.827500", "102453.827500", "102454.827500", "102455.827500", "102456.827500", "102457.827500", "102458.827500", "102459.827500", "102500.827500", "102501.827500", "102502.827500", "102503.827500", "102504.827500", "102505.827500", "102506.827500", "102507.827500", "102508.827500", "102509.827500", "102510.827500", "102511.827500", "102512.827500", "102513.827500", "102514.827500", "102515.827500", "102516.827500", "102517.827500", "102518.827500", "102519.827500", "102520.827500", "102521.827500", "102522.827500", "102523.827500", "102524.827500", "102525.827500", "102526.827500", "102527.827500", "102528.827500", "102529.827500", "102530.827500", "102531.827500", "102532.827500", "102533.827500", "102534.827500", "102535.827500"],
      "ContentTime": ["102146.291000", "102146.304000", "102146.312000", "102146.315000", "102146.318000", "102146.321000", "102146.324000", "102146.327000", "102146.330000", "102146.336000", "102146.339000", "102146.355000", "102146.369000", "102146.372000", "102146.375000", "102146.378000", "102146.381000", "102146.384000", "102146.387000", "102146.390000", "102146.393000", "102206.254000", "102206.257000", "102206.260000", "102206.263000", "102206.266000", "102206.270000", "102206.273000", "102206.278000", "102206.281000", "102206.284000", "102206.287000", "102206.290000", "102206.293000", "102206.296000", "102206.299000", "102206.302000", "102206.305000", "102206.316000", "102206.319000", "102206.322000", "102206.325000", "102206.328000", "102206.331000", "102206.334000", "102206.337000", "102206.340000", "102206.343000", "102206.346000", "102226.254000", "102226.257000", "102226.260000", "102226.263000", "102226.266000", "102226.269000", "102226.272000", "102226.275000", "102226.278000", "102226.281000", "102226.284000", "102226.287000", "102226.290000", "102226.293000", "102226.296000", "102226.299000", "102226.302000", "102226.306000", "102226.309000", "102226.312000", "102226.315000", "102226.318000", "102226.321000", "102226.324000", "102226.326000", "102226.330000", "102226.333000", "102226.335000", "102246.254000", "102246.257000", "102246.260000", "102246.263000", "102246.266000", "102246.269000", "102246.272000", "102246.275000", "102246.278000", "102246.281000", "102246.284000", "102246.288000", "102246.291000", "102246.294000", "102246.296000", "102246.300000", "102246.303000", "102246.306000", "102246.309000", "102246.312000", "102246.315000", "102246.318000", "102246.321000", "102246.324000", "102246.327000", "102246.330000", "102246.333000", "102246.336000", "102246.339000", "102306.254000", "102306.257000", "102306.260000", "102306.263000", "102306.266000", "102306.269000", "102306.276000", "102306.279000", "102306.282000", "102306.285000", "102306.289000", "102306.292000", "102306.295000", "102306.297000", "102306.301000", "102306.304000", "102306.307000", "102306.310000", "102306.313000", "102306.316000", "102306.319000", "102306.322000", "102306.325000", "102306.328000", "102306.338000", "102306.341000", "102306.351000", "102306.354000", "102326.254000", "102326.257000", "102326.260000", "102326.263000", "102326.266000", "102326.269000", "102326.272000", "102326.275000", "102326.278000", "102326.281000", "102326.284000", "102326.288000", "102326.291000", "102326.294000", "102326.296000", "102326.300000", "102326.303000", "102326.306000", "102326.309000", "102326.312000", "102326.315000", "102326.318000", "102326.321000", "102326.324000", "102326.327000", "102326.330000", "102326.333000", "102326.336000", "102346.254000", "102346.257000", "102346.260000", "102346.263000", "102346.266000", "102346.269000", "102346.272000", "102346.275000", "102346.278000", "102346.282000", "102346.285000", "102346.288000", "102346.291000", "102346.294000", "102346.297000", "102346.300000", "102346.303000", "102346.306000", "102346.309000", "102346.312000", "102346.315000", "102346.318000", "102346.321000", "102346.324000", "102346.327000", "102346.330000", "102346.333000", "102406.254000", "102406.257000", "102406.260000", "102406.263000", "102406.279000", "102406.282000", "102406.285000", "102406.288000", "102406.291000", "102406.294000", "102406.305000", "102406.308000", "102406.311000", "102406.314000", "102406.317000", "102406.320000", "102406.323000", "102406.326000", "102406.329000", "102406.332000", "102426.254000", "102426.257000", "102426.260000", "102426.263000", "102426.266000", "102426.269000", "102426.272000", "102426.275000", "102426.278000", "102426.281000", "102426.284000", "102426.287000", "102426.290000", "102426.293000", "102426.297000", "102426.300000", "102426.303000", "102426.306000", "102426.309000", "102426.312000", "102446.254000", "102446.257000", "102446.260000", "102446.263000", "102446.266000", "102446.269000", "102446.272000", "102446.275000", "102446.278000", "102446.281000", "102446.285000", "102446.288000", "102446.291000", "102446.294000", "102446.297000", "102446.300000", "102446.303000", "102446.306000", "102446.309000", "102446.312000", "102506.254000", "102506.257000", "102506.269000", "102506.272000", "102506.275000", "102506.278000", "102506.287000", "102506.290000", "102506.293000", "102506.296000", "102506.299000", "102506.302000", "102506.305000", "102506.308000", "102506.311000", "102506.314000", "102506.327000", "102506.330000", "102506.333000", "102506.336000", "102526.254000", "102526.257000", "102526.260000", "102526.263000", "102526.266000", "102526.269000", "102526.272000", "102526.275000", "102526.278000", "102526.281000", "102526.285000", "102526.288000", "102526.291000", "102526.294000", "102526.297000", "102526.300000", "102526.303000", "102526.306000", "102526.309000", "102526.312000", "102537.245000", "102537.249000", "102537.252000", "102537.255000", "102537.258000", "102537.261000", "102537.264000", "102537.267000", "102537.270000", "102537.273000", "102537.276000"],
      "InstanceCreationTime": ["102146.291000", "102146.304000", "102146.312000", "102146.315000", "102146.318000", "102146.321000", "102146.324000", "102146.327000", "102146.330000", "102146.336000", "102146.339000", "102146.355000", "102146.369000", "102146.372000", "102146.375000", "102146.378000", "102146.381000", "102146.384000", "102146.387000", "102146.390000", "102146.393000", "102206.254000", "102206.257000", "102206.260000", "102206.263000", "102206.266000", "102206.270000", "102206.273000", "102206.278000", "102206.281000", "102206.284000", "102206.287000", "102206.290000", "102206.293000", "102206.296000", "102206.299000", "102206.302000", "102206.305000", "102206.316000", "102206.319000", "102206.322000", "102206.325000", "102206.328000", "102206.331000", "102206.334000", "102206.337000", "102206.340000", "102206.343000", "102206.346000", "102226.254000", "102226.257000", "102226.260000", "102226.263000", "102226.266000", "102226.269000", "102226.272000", "102226.275000", "102226.278000", "102226.281000", "102226.284000", "102226.287000", "102226.290000", "102226.293000", "102226.296000", "102226.299000", "102226.302000", "102226.306000", "102226.309000", "102226.312000", "102226.315000", "102226.318000", "102226.321000", "102226.324000", "102226.326000", "102226.330000", "102226.333000", "102226.335000", "102246.254000", "102246.257000", "102246.260000", "102246.263000", "102246.266000", "102246.269000", "102246.272000", "102246.275000", "102246.278000", "102246.281000", "102246.284000", "102246.288000", "102246.291000", "102246.294000", "102246.296000", "102246.300000", "102246.303000", "102246.306000", "102246.309000", "102246.312000", "102246.315000", "102246.318000", "102246.321000", "102246.324000", "102246.327000", "102246.330000", "102246.333000", "102246.336000", "102246.339000", "102306.254000", "102306.257000", "102306.260000", "102306.263000", "102306.266000", "102306.269000", "102306.276000", "102306.279000", "102306.282000", "102306.285000", "102306.289000", "102306.292000", "102306.295000", "102306.297000", "102306.301000", "102306.304000", "102306.307000", "102306.310000", "102306.313000", "102306.316000", "102306.319000", "102306.322000", "102306.325000", "102306.328000", "102306.338000", "102306.341000", "102306.351000", "102306.354000", "102326.254000", "102326.257000", "102326.260000", "102326.263000", "102326.266000", "102326.269000", "102326.272000", "102326.275000", "102326.278000", "102326.281000", "102326.284000", "102326.288000", "102326.291000", "102326.294000", "102326.296000", "102326.300000", "102326.303000", "102326.306000", "102326.309000", "102326.312000", "102326.315000", "102326.318000", "102326.321000", "102326.324000", "102326.327000", "102326.330000", "102326.333000", "102326.336000", "102346.254000", "102346.257000", "102346.260000", "102346.263000", "102346.266000", "102346.269000", "102346.272000", "102346.275000", "102346.278000", "102346.282000", "102346.285000", "102346.288000", "102346.291000", "102346.294000", "102346.297000", "102346.300000", "102346.303000", "102346.306000", "102346.309000", "102346.312000", "102346.315000", "102346.318000", "102346.321000", "102346.324000", "102346.327000", "102346.330000", "102346.333000", "102406.254000", "102406.257000", "102406.260000", "102406.263000", "102406.279000", "102406.282000", "102406.285000", "102406.288000", "102406.291000", "102406.294000", "102406.305000", "102406.308000", "102406.311000", "102406.314000", "102406.317000", "102406.320000", "102406.323000", "102406.326000", "102406.329000", "102406.332000", "102426.254000", "102426.257000", "102426.260000", "102426.263000", "102426.266000", "102426.269000", "102426.272000", "102426.275000", "102426.278000", "102426.281000", "102426.284000", "102426.287000", "102426.290000", "102426.293000", "102426.297000", "102426.300000", "102426.303000", "102426.306000", "102426.309000", "102426.312000", "102446.254000", "102446.257000", "102446.260000", "102446.263000", "102446.266000", "102446.269000", "102446.272000", "102446.275000", "102446.278000", "102446.281000", "102446.285000", "102446.288000", "102446.291000", "102446.294000", "102446.297000", "102446.300000", "102446.303000", "102446.306000", "102446.309000", "102446.312000", "102506.254000", "102506.257000", "102506.269000", "102506.272000", "102506.275000", "102506.278000", "102506.287000", "102506.290000", "102506.293000", "102506.296000", "102506.299000", "102506.302000", "102506.305000", "102506.308000", "102506.311000", "102506.314000", "102506.327000", "102506.330000", "102506.333000", "102506.336000", "102526.254000", "102526.257000", "102526.260000", "102526.263000", "102526.266000", "102526.269000", "102526.272000", "102526.275000", "102526.278000", "102526.281000", "102526.285000", "102526.288000", "102526.291000", "102526.294000", "102526.297000", "102526.300000", "102526.303000", "102526.306000", "102526.309000", "102526.312000", "102537.245000", "102537.249000", "102537.252000", "102537.255000", "102537.258000", "102537.261000", "102537.264000", "102537.267000", "102537.270000", "102537.273000", "102537.276000"],
      "InstanceNumber": [1, 2, 3, 4, 5, 6, 7, 8, 9, 10, 11, 12, 13, 14, 15, 16, 17, 18, 19, 20, 21, 22, 23, 24, 25, 26, 27, 28, 29, 30, 31, 32, 33, 34, 35, 36, 37, 38, 39, 40, 41, 42, 43, 44, 45, 46, 47, 48, 49, 50, 51, 52, 53, 54, 55, 56, 57, 58, 59, 60, 61, 62, 63, 64, 65, 66, 67, 68, 69, 70, 71, 72, 73, 74, 75, 76, 77, 78, 79, 80, 81, 82, 83, 84, 85, 86, 87, 88, 89, 90, 91, 92, 93, 94, 95, 96, 97, 98, 99, 100, 101, 102, 103, 104, 105, 106, 107, 108, 109, 110, 111, 112, 113, 114, 115, 116, 117, 118, 119, 120, 121, 122, 123, 124, 125, 126, 127, 128, 129, 130, 131, 132, 133, 134, 135, 136, 137, 138, 139, 140, 141, 142, 143, 144, 145, 146, 147, 148, 149, 150, 151, 152, 153, 154, 155, 156, 157, 158, 159, 160, 161, 162, 163, 164, 165, 166, 167, 168, 169, 170, 171, 172, 173, 174, 175, 176, 177, 178, 179, 180, 181, 182, 183, 184, 185, 186, 187, 188, 189, 190, 191, 192, 193, 194, 195, 196, 197, 198, 199, 200, 201, 202, 203, 204, 205, 206, 207, 208, 209, 210, 211, 212, 213, 214, 215, 216, 217, 218, 219, 220, 221, 222, 223, 224, 225, 226, 227, 228, 229, 230, 231, 232, 233, 234, 235, 236, 237, 238, 239, 240, 241, 242, 243, 244, 245, 246, 247, 248, 249, 250, 251, 252, 253, 254, 255, 256, 257, 258, 259, 260, 261, 262, 263, 264, 265, 266, 267, 268, 269, 270, 271, 272, 273, 274, 275, 276, 277, 278, 279, 280, 281, 282, 283, 284, 285, 286, 287, 288, 289, 290, 291, 292, 293, 294, 295, 296, 297, 298, 299, 300],
      "LargestImagePixelValue": [48114, 47322, 46273, 46056, 46032, 46073, 45783, 45613, 45294, 45841, 46069, 45414, 45251, 45799, 45411, 45766, 45300, 45476, 45385, 45847, 45671, 45651, 45881, 45605, 45417, 45504, 45804, 45744, 45506, 45015, 45482, 45796, 45534, 45588, 45929, 45617, 45622, 46161, 46385, 45376, 45418, 45973, 46036, 45272, 45597, 46267, 45707, 45500, 45321, 45694, 45562, 45419, 45900, 45190, 45308, 46552, 46083, 45652, 45504, 46128, 45537, 45782, 45816, 45995, 45162, 46319, 45327, 45111, 45793, 45368, 45269, 45724, 46030, 46246, 46217, 45487, 45520, 46201, 45776, 45609, 45495, 46306, 46542, 45638, 46308, 46420, 46818, 45555, 45382, 46280, 46189, 45504, 45224, 45660, 46366, 45681, 45833, 45880, 46278, 45394, 44889, 45781, 46383, 45854, 45846, 45259, 45519, 45012, 44945, 45283, 45854, 45650, 46139, 45717, 45643, 45620, 45551, 45423, 46025, 46022, 45694, 45278, 45228, 46140, 46096, 45784, 45980, 46180, 45673, 45779, 45513, 46480, 45624, 45643, 45774, 46122, 46290, 45196, 45504, 46517, 46324, 46478, 46836, 47094, 46571, 46260, 46338, 46824, 46432, 46104, 46232, 46514, 46552, 46244, 46243, 46599, 46859, 46017, 46757, 46639, 46780, 46136, 46758, 46506, 46780, 46185, 46217, 46757, 46430, 46565, 46820, 46359, 46775, 46717, 46614, 46705, 46801, 46517, 46523, 46667, 46250, 46740, 46671, 46711, 47010, 46801, 46633, 46687, 47465, 47058, 47161, 46981, 47304, 46631, 46808, 46753, 46415, 46788, 46928, 47123, 47093, 46873, 46914, 47194, 46742, 46748, 46959, 47322, 46673, 46326, 46327, 46624, 46479, 46619, 46582, 46886, 46101, 46276, 46505, 46513, 46217, 46671, 46281, 46688, 46599, 46590, 46364, 46651, 46632, 46341, 46205, 46495, 46430, 46387, 46594, 47164, 46888, 46659, 46391, 46554, 46767, 46606, 47067, 46443, 46521, 46728, 46704, 46635, 46891, 46867, 46810, 46758, 46656, 47218, 46683, 46260, 46676, 46601, 47010, 47015, 46966, 46736, 46786, 47035, 46437, 46413, 46755, 46981, 46997, 46788, 46859, 46792, 46798, 46625, 46538, 46527, 46564, 46806, 46704, 46914, 46709, 46861, 46794, 46579, 46744, 46884, 46832, 46939, 46558, 47202, 46956, 46869, 46417, 46498, 46726, 46805, 46737, 46638, 46591, 46669],
      "WindowCenter": [10622.0, 10559.0, 10527.0, 10519.0, 10506.0, 10498.0, 10497.0, 10500.0, 10494.0, 10496.0, 10498.0, 10503.0, 10496.0, 10500.0, 10497.0, 10512.0, 10509.0, 10517.0, 10512.0, 10512.0, 10516.0, 10526.0, 10522.0, 10519.0, 10518.0, 10531.0, 10530.0, 10532.0, 10539.0, 10536.0, 10546.0, 10547.0, 10550.0, 10552.0, 10554.0, 10541.0, 10544.0, 10528.0, 10535.0, 10527.0, 10530.0, 10538.0, 10543.0, 10539.0, 10538.0, 10543.0, 10533.0, 10531.0, 10527.0, 10522.0, 10520.0, 10521.0, 10524.0, 10515.0, 10522.0, 10523.0, 10516.0, 10524.0, 10512.0, 10513.0, 10509.0, 10512.0, 10508.0, 10505.0, 10517.0, 10562.0, 10509.0, 10496.0, 10508.0, 10503.0, 10502.0, 10509.0, 10508.0, 10509.0, 10500.0, 10489.0, 10489.0, 10495.0, 10487.0, 10486.0, 10482.0, 10498.0, 10492.0, 10485.0, 10498.0, 10505.0, 10511.0, 10496.0, 10502.0, 10519.0, 10524.0, 10510.0, 10501.0, 10518.0, 10521.0, 10509.0, 10502.0, 10513.0, 10514.0, 10498.0, 10485.0, 10497.0, 10504.0, 10491.0, 10492.0, 10488.0, 10496.0, 10490.0, 10496.0, 10507.0, 10509.0, 10514.0, 10516.0, 10503.0, 10489.0, 10489.0, 10486.0, 10479.0, 10479.0, 10478.0, 10462.0, 10458.0, 10466.0, 10485.0, 10483.0, 10484.0, 10490.0, 10500.0, 10489.0, 10486.0, 10482.0, 10484.0, 10472.0, 10471.0, 10482.0, 10497.0, 10502.0, 10496.0, 10505.0, 10519.0, 10521.0, 10522.0, 10518.0, 10519.0, 10515.0, 10501.0, 10508.0, 10520.0, 10521.0, 10521.0, 10530.0, 10546.0, 10540.0, 10538.0, 10544.0, 10551.0, 10549.0, 10531.0, 10531.0, 10529.0, 10525.0, 10511.0, 10520.0, 10521.0, 10518.0, 10511.0, 10516.0, 10534.0, 10523.0, 10515.0, 10520.0, 10520.0, 10521.0, 10514.0, 10513.0, 10514.0, 10516.0, 10514.0, 10516.0, 10527.0, 10525.0, 10523.0, 10521.0, 10521.0, 10528.0, 10517.0, 10519.0, 10519.0, 10531.0, 10525.0, 10525.0, 10526.0, 10539.0, 10521.0, 10521.0, 10528.0, 10524.0, 10521.0, 10525.0, 10521.0, 10513.0, 10511.0, 10516.0, 10519.0, 10518.0, 10510.0, 10516.0, 10524.0, 10518.0, 10511.0, 10513.0, 10519.0, 10512.0, 10516.0, 10514.0, 10516.0, 10495.0, 10500.0, 10499.0, 10499.0, 10495.0, 10499.0, 10499.0, 10509.0, 10519.0, 10518.0, 10519.0, 10525.0, 10534.0, 10528.0, 10523.0, 10535.0, 10535.0, 10530.0, 10537.0, 10540.0, 10533.0, 10532.0, 10525.0, 10529.0, 10528.0, 10529.0, 10535.0, 10521.0, 10526.0, 10532.0, 10521.0, 10514.0, 10512.0, 10512.0, 10506.0, 10502.0, 10495.0, 10506.0, 10500.0, 10498.0, 10498.0, 10503.0, 10505.0, 10502.0, 10495.0, 10498.0, 10503.0, 10507.0, 10497.0, 10499.0, 10505.0, 10501.0, 10500.0, 10497.0, 10498.0, 10502.0, 10504.0, 10507.0, 10500.0, 10505.0, 10508.0, 10507.0, 10506.0, 10512.0, 10514.0, 10512.0, 10510.0, 10509.0, 10508.0, 10512.0, 10512.0, 10520.0, 10514.0, 10520.0, 10528.0, 10515.0, 10507.0, 10508.0, 10520.0, 10521.0, 10514.0, 10520.0, 10522.0, 10516.0],
