{
  "AcquisitionMatrixPE": 104,
  "AcquisitionNumber": 1,
  "AcquisitionTime": "10:45:3.367500",
  "BandwidthPerPixelPhaseEncode": 16.297,
  "BaseResolution": 104,
  "BodyPartExamined": "BRAIN",
  "ConsistencyInfo": "N4_VE11C_LATEST_20160120",
  "ConversionSoftware": "dcm2niix",
  "ConversionSoftwareVersion": "v1.0.20210317",
  "DerivedVendorReportedEchoSpacing": 0.000590009,
  "DeviceSerialNumber": "166018",
  "DwellTime": 2.1e-06,
  "EchoTime": 0.0376,
  "EchoTrainLength": 104,
  "EffectiveEchoSpacing": 0.000590009,
  "FlipAngle": 68,
  "ImageComments": "Unaliased MB6/PE3/LB",
  "ImageOrientationPatientDICOM": [0.999704, 0.00605034, 0.0235438, -0.0045365, 0.997951, -0.063829],
  "ImageType": [
    "ORIGINAL",
    "PRIMARY",
    "M",
    "MB",
    "ND",
    "MOSAIC"
],
  "ImagingFrequency": 123.197,
  "InPlanePhaseEncodingDirectionDICOM": "COL",
  "InstitutionAddress": "Washington Place 6,NYC,NYC,US,10003",
  "InstitutionName": "NYU - CBI",
  "InstitutionalDepartmentName": "Department",
  "MRAcquisitionType": "2D",
  "MagneticFieldStrength": 3,
  "Manufacturer": "Siemens",
  "ManufacturersModelName": "Prisma",
  "Modality": "MR",
  "MultibandAccelerationFactor": 6,
  "PartialFourier": 1,
  "PatientPosition": "HFS",
  "PercentPhaseFOV": 100,
  "PercentSampling": 100,
  "PhaseEncodingDirection": "j",
  "PhaseEncodingSteps": 104,
  "PhaseResolution": 1,
  "PixelBandwidth": 2290,
  "ProcedureStepDescription": "Investigators^Winawer",
  "ProtocolName": "cmrr_mbepi_s6_2mm_66sl_PA_task-wedgering3",
  "PulseSequenceDetails": "%CustomerSeq%\\cmrr_mbep2d_bold",
  "ReceiveCoilActiveElements": "HC1-7",
  "ReceiveCoilName": "HeadNeck_64",
  "ReconMatrixPE": 104,
  "RepetitionTime": 1,
  "SAR": 0.0728578,
  "ScanOptions": "FS",
  "ScanningSequence": "EP",
  "SequenceName": "epfid2d1_104",
  "SequenceVariant": "SK\\SS",
  "SeriesDescription": "cmrr_mbepi_s6_2mm_66sl_PA_task-wedgering3",
  "SeriesNumber": 33,
  "ShimSetting": [313, -12753, -8644, 90, 80, -401, 14, 54],
  "SliceThickness": 2,
  "SliceTiming": [0, 0.535, 0.09, 0.625, 0.18, 0.7125, 0.2675, 0.8025, 0.3575, 0.8925, 0.445, 0, 0.535, 0.09, 0.625, 0.18, 0.7125, 0.2675, 0.8025, 0.3575, 0.8925, 0.445, 0, 0.535, 0.09, 0.625, 0.18, 0.7125, 0.2675, 0.8025, 0.3575, 0.8925, 0.445, 0, 0.535, 0.09, 0.625, 0.18, 0.7125, 0.2675, 0.8025, 0.3575, 0.8925, 0.445, 0, 0.535, 0.09, 0.625, 0.18, 0.7125, 0.2675, 0.8025, 0.3575, 0.8925, 0.445, 0, 0.535, 0.09, 0.625, 0.18, 0.7125, 0.2675, 0.8025, 0.3575, 0.8925, 0.445],
  "SoftwareVersions": "syngo MR E11",
  "SpacingBetweenSlices": 2,
  "StationName": "AWP166018",
  "TaskName": "wedgering3",
  "TotalReadoutTime": 0.060771,
  "TxRefAmp": 213.637,
  "VendorReportedEchoSpacing": 0.00059,
  "WipMemBlock": "3b40888f-a1b2-4c7b-9345-6a50b7384f01||Sequence: R016 ve11c/master r/8780670; Nov 27 2017 15:05:12 by eja",
  "dcmmeta_affine": [
    [-1.9994089603424072, -0.009073009714484215, 0.04776341840624809, 106.22615814208984],
    [-0.01210068166255951, 1.995901107788086, -0.1274067610502243, -83.50416564941406],
    [0.04708755016326904, 0.12765808403491974, 1.9953662157058716, -42.88472366333008],
    [0.0, 0.0, 0.0, 1.0]
],
  "dcmmeta_reorient_transform": [
    [0.0, -1.0, 0.0, 103.0],
    [1.0, 0.0, 0.0, 0.0],
    [0.0, 0.0, 1.0, 0.0],
    [0.0, 0.0, 0.0, 1.0]
],
  "dcmmeta_shape": [104, 104, 66, 300],
  "dcmmeta_slice_dim": 2,
  "dcmmeta_version": 0.6,
  "global": {
    "const": {
      "AccessionNumber": "Liat8bkt",
      "AcquisitionMatrix": [104, 0, 0, 104],
      "AngioFlag": "N",
      "BitsAllocated": 16,
      "BitsStored": 16,
      "BodyPartExamined": "BRAIN",
      "Columns": 936,
      "EchoNumbers": 1,
      "EchoTime": 37.6,
      "EchoTrainLength": 104,
      "FlipAngle": 68.0,
      "HighBit": 15,
      "ImageOrientationPatient": [0.99970449837098, 0.00605034083913, 0.0235437743906, -0.004536504795, 0.99795053641773, -0.0638290450173],
      "ImagePositionPatient": [-933.27140533339, -957.40237383153, 3.7814037179307],
      "ImageType": [
        "ORIGINAL",
        "PRIMARY",
        "M",
        "MB",
        "ND",
        "MOSAIC"
],
      "ImagedNucleus": "1H",
      "ImagingFrequency": 123.196971,
      "InPlanePhaseEncodingDirection": "COL",
      "MRAcquisitionType": "2D",
      "MagneticFieldStrength": 3.0,
      "Manufacturer": "SIEMENS",
      "ManufacturerModelName": "Prisma",
      "Modality": "MR",
      "NumberOfAverages": 1.0,
      "NumberOfPhaseEncodingSteps": 104,
      "PercentPhaseFieldOfView": 100.0,
      "PercentSampling": 100.0,
      "PerformedProcedureStepStartTime": "090455.502000",
      "PhotometricInterpretation": "MONOCHROME2",
      "PixelBandwidth": 2290.0,
      "PixelRepresentation": 0,
      "PixelSpacing": [2.0, 2.0],
      "ProtocolName": "cmrr_mbepi_s6_2mm_66sl_PA_task-wedgering3",
      "RepetitionTime": 1000.0,
      "Rows": 936,
      "SAR": 0.07285779634946,
      "SamplesPerPixel": 1,
      "ScanOptions": "FS",
      "ScanningSequence": "EP",
      "SequenceName": "epfid2d1_104",
      "SequenceVariant": [
        "SK",
        "SS"
],
      "SeriesDescription": "cmrr_mbepi_s6_2mm_66sl_PA_task-wedgering3",
      "SeriesNumber": 33,
      "SeriesTime": "104626.360000",
      "SliceLocation": -34.929004979373,
      "SliceThickness": 2.0,
      "SmallestImagePixelValue": 0,
      "SoftwareVersions": "syngo MR E11",
      "SpacingBetweenSlices": 2.0000000225826,
      "SpecificCharacterSet": "ISO_IR 100",
      "StudyID": "1",
      "StudyTime": "090455.287000",
      "TransmitCoilName": "Body",
      "VariableFlipAngleFlag": "N",
      "WindowCenterWidthExplanation": "Algo1",
      "dBdt": 0.0},
    "slices": {}
  },
  "time": {
    "samples": {
      "AcquisitionNumber": [1, 2, 3, 4, 5, 6, 7, 8, 9, 10, 11, 12, 13, 14, 15, 16, 17, 18, 19, 20, 21, 22, 23, 24, 25, 26, 27, 28, 29, 30, 31, 32, 33, 34, 35, 36, 37, 38, 39, 40, 41, 42, 43, 44, 45, 46, 47, 48, 49, 50, 51, 52, 53, 54, 55, 56, 57, 58, 59, 60, 61, 62, 63, 64, 65, 66, 67, 68, 69, 70, 71, 72, 73, 74, 75, 76, 77, 78, 79, 80, 81, 82, 83, 84, 85, 86, 87, 88, 89, 90, 91, 92, 93, 94, 95, 96, 97, 98, 99, 100, 101, 102, 103, 104, 105, 106, 107, 108, 109, 110, 111, 112, 113, 114, 115, 116, 117, 118, 119, 120, 121, 122, 123, 124, 125, 126, 127, 128, 129, 130, 131, 132, 133, 134, 135, 136, 137, 138, 139, 140, 141, 142, 143, 144, 145, 146, 147, 148, 149, 150, 151, 152, 153, 154, 155, 156, 157, 158, 159, 160, 161, 162, 163, 164, 165, 166, 167, 168, 169, 170, 171, 172, 173, 174, 175, 176, 177, 178, 179, 180, 181, 182, 183, 184, 185, 186, 187, 188, 189, 190, 191, 192, 193, 194, 195, 196, 197, 198, 199, 200, 201, 202, 203, 204, 205, 206, 207, 208, 209, 210, 211, 212, 213, 214, 215, 216, 217, 218, 219, 220, 221, 222, 223, 224, 225, 226, 227, 228, 229, 230, 231, 232, 233, 234, 235, 236, 237, 238, 239, 240, 241, 242, 243, 244, 245, 246, 247, 248, 249, 250, 251, 252, 253, 254, 255, 256, 257, 258, 259, 260, 261, 262, 263, 264, 265, 266, 267, 268, 269, 270, 271, 272, 273, 274, 275, 276, 277, 278, 279, 280, 281, 282, 283, 284, 285, 286, 287, 288, 289, 290, 291, 292, 293, 294, 295, 296, 297, 298, 299, 300],
      "AcquisitionTime": ["104503.367500", "104504.367500", "104505.367500", "104506.367500", "104507.367500", "104508.367500", "104509.367500", "104510.367500", "104511.367500", "104512.367500", "104513.367500", "104514.367500", "104515.367500", "104516.367500", "104517.367500", "104518.367500", "104519.367500", "104520.367500", "104521.367500", "104522.367500", "104523.367500", "104524.367500", "104525.367500", "104526.367500", "104527.367500", "104528.367500", "104529.367500", "104530.367500", "104531.367500", "104532.367500", "104533.367500", "104534.367500", "104535.367500", "104536.367500", "104537.367500", "104538.367500", "104539.367500", "104540.367500", "104541.367500", "104542.367500", "104543.367500", "104544.367500", "104545.367500", "104546.367500", "104547.367500", "104548.367500", "104549.367500", "104550.367500", "104551.367500", "104552.367500", "104553.367500", "104554.367500", "104555.367500", "104556.367500", "104557.367500", "104558.367500", "104559.367500", "104600.367500", "104601.367500", "104602.367500", "104603.367500", "104604.367500", "104605.367500", "104606.367500", "104607.367500", "104608.367500", "104609.367500", "104610.367500", "104611.367500", "104612.367500", "104613.367500", "104614.367500", "104615.367500", "104616.367500", "104617.367500", "104618.367500", "104619.367500", "104620.367500", "104621.367500", "104622.367500", "104623.367500", "104624.367500", "104625.367500", "104626.367500", "104627.367500", "104628.367500", "104629.367500", "104630.367500", "104631.367500", "104632.367500", "104633.367500", "104634.367500", "104635.367500", "104636.367500", "104637.367500", "104638.367500", "104639.367500", "104640.367500", "104641.367500", "104642.367500", "104643.367500", "104644.367500", "104645.367500", "104646.367500", "104647.367500", "104648.367500", "104649.367500", "104650.367500", "104651.367500", "104652.367500", "104653.367500", "104654.367500", "104655.367500", "104656.367500", "104657.367500", "104658.367500", "104659.367500", "104700.367500", "104701.367500", "104702.367500", "104703.367500", "104704.367500", "104705.367500", "104706.367500", "104707.367500", "104708.367500", "104709.367500", "104710.367500", "104711.367500", "104712.367500", "104713.367500", "104714.367500", "104715.367500", "104716.367500", "104717.367500", "104718.367500", "104719.367500", "104720.367500", "104721.367500", "104722.367500", "104723.367500", "104724.367500", "104725.367500", "104726.367500", "104727.367500", "104728.367500", "104729.367500", "104730.367500", "104731.367500", "104732.367500", "104733.367500", "104734.367500", "104735.367500", "104736.367500", "104737.367500", "104738.367500", "104739.367500", "104740.367500", "104741.367500", "104742.367500", "104743.367500", "104744.367500", "104745.367500", "104746.367500", "104747.367500", "104748.367500", "104749.367500", "104750.367500", "104751.367500", "104752.367500", "104753.367500", "104754.367500", "104755.367500", "104756.367500", "104757.367500", "104758.367500", "104759.367500", "104800.367500", "104801.367500", "104802.367500", "104803.367500", "104804.367500", "104805.367500", "104806.367500", "104807.367500", "104808.367500", "104809.367500", "104810.367500", "104811.367500", "104812.367500", "104813.367500", "104814.367500", "104815.367500", "104816.367500", "104817.367500", "104818.367500", "104819.367500", "104820.367500", "104821.367500", "104822.367500", "104823.367500", "104824.367500", "104825.367500", "104826.367500", "104827.367500", "104828.367500", "104829.367500", "104830.367500", "104831.367500", "104832.367500", "104833.367500", "104834.367500", "104835.367500", "104836.367500", "104837.367500", "104838.367500", "104839.367500", "104840.367500", "104841.367500", "104842.367500", "104843.367500", "104844.367500", "104845.367500", "104846.367500", "104847.367500", "104848.367500", "104849.367500", "104850.367500", "104851.367500", "104852.367500", "104853.367500", "104854.367500", "104855.367500", "104856.367500", "104857.367500", "104858.367500", "104859.367500", "104900.367500", "104901.367500", "104902.367500", "104903.367500", "104904.367500", "104905.367500", "104906.367500", "104907.367500", "104908.367500", "104909.367500", "104910.367500", "104911.367500", "104912.367500", "104913.367500", "104914.367500", "104915.367500", "104916.367500", "104917.367500", "104918.367500", "104919.367500", "104920.367500", "104921.367500", "104922.367500", "104923.367500", "104924.367500", "104925.367500", "104926.367500", "104927.367500", "104928.367500", "104929.367500", "104930.367500", "104931.367500", "104932.367500", "104933.367500", "104934.367500", "104935.367500", "104936.367500", "104937.367500", "104938.367500", "104939.367500", "104940.367500", "104941.367500", "104942.367500", "104943.367500", "104944.367500", "104945.367500", "104946.367500", "104947.367500", "104948.367500", "104949.367500", "104950.367500", "104951.367500", "104952.367500", "104953.367500", "104954.367500", "104955.367500", "104956.367500", "104957.367500", "104958.367500", "104959.367500", "105000.367500", "105001.367500", "105002.367500"],
      "ContentTime": ["104626.363000", "104626.367000", "104626.370000", "104626.373000", "104626.376000", "104626.406000", "104626.409000", "104626.412000", "104626.415000", "104626.418000", "104626.421000", "104626.424000", "104626.427000", "104626.430000", "104626.433000", "104626.436000", "104626.439000", "104626.442000", "104626.445000", "104626.448000", "104626.451000", "104626.455000", "104626.458000", "104626.461000", "104626.464000", "104626.467000", "104626.470000", "104626.480000", "104626.483000", "104626.486000", "104626.489000", "104626.492000", "104626.495000", "104626.498000", "104626.501000", "104626.504000", "104626.507000", "104646.325000", "104646.328000", "104646.331000", "104646.334000", "104646.337000", "104646.340000", "104646.343000", "104646.346000", "104646.349000", "104646.352000", "104646.355000", "104646.358000", "104646.361000", "104646.364000", "104646.367000", "104646.370000", "104646.373000", "104646.376000", "104646.381000", "104646.385000", "104646.387000", "104646.390000", "104646.393000", "104646.397000", "104646.399000", "104646.402000", "104646.405000", "104646.408000", "104646.411000", "104706.326000", "104706.329000", "104706.332000", "104706.335000", "104706.338000", "104706.342000", "104706.345000", "104706.348000", "104706.351000", "104706.357000", "104706.360000", "104706.363000", "104706.366000", "104706.369000", "104706.372000", "104706.375000", "104706.378000", "104706.381000", "104706.384000", "104706.387000", "104706.390000", "104706.393000", "104706.396000", "104706.399000", "104706.402000", "104706.405000", "104706.408000", "104706.411000", "104726.325000", "104726.328000", "104726.332000", "104726.334000", "104726.337000", "104726.340000", "104726.344000", "104726.346000", "104726.349000", "104726.352000", "104726.355000", "104726.358000", "104726.362000", "104726.366000", "104726.369000", "104726.372000", "104726.375000", "104726.378000", "104726.381000", "104726.384000", "104726.387000", "104726.390000", "104726.393000", "104726.396000", "104726.399000", "104726.402000", "104726.405000", "104726.408000", "104746.325000", "104746.328000", "104746.331000", "104746.334000", "104746.337000", "104746.340000", "104746.343000", "104746.346000", "104746.349000", "104746.352000", "104746.356000", "104746.358000", "104746.362000", "104746.365000", "104746.368000", "104746.371000", "104746.374000", "104746.377000", "104746.380000", "104746.383000", "104746.386000", "104746.389000", "104746.392000", "104746.395000", "104746.398000", "104746.401000", "104746.404000", "104746.407000", "104746.410000", "104806.325000", "104806.330000", "104806.333000", "104806.337000", "104806.340000", "104806.343000", "104806.346000", "104806.349000", "104806.352000", "104806.355000", "104806.357000", "104806.361000", "104806.364000", "104806.367000", "104806.370000", "104806.373000", "104806.376000", "104806.379000", "104806.382000", "104806.385000", "104806.388000", "104806.391000", "104806.394000", "104806.397000", "104806.400000", "104806.403000", "104806.406000", "104806.409000", "104826.325000", "104826.328000", "104826.349000", "104826.352000", "104826.354000", "104826.358000", "104826.361000", "104826.364000", "104826.367000", "104826.370000", "104826.373000", "104826.376000", "104826.379000", "104826.382000", "104826.385000", "104826.388000", "104826.391000", "104826.394000", "104826.397000", "104826.400000", "104826.403000", "104826.406000", "104826.409000", "104846.325000", "104846.328000", "104846.331000", "104846.334000", "104846.337000", "104846.340000", "104846.344000", "104846.347000", "104846.349000", "104846.362000", "104846.365000", "104846.368000", "104846.371000", "104846.374000", "104846.377000", "104846.380000", "104846.383000", "104846.386000", "104846.389000", "104846.392000", "104906.325000", "104906.328000", "104906.331000", "104906.334000", "104906.337000", "104906.340000", "104906.343000", "104906.346000", "104906.349000", "104906.352000", "104906.356000", "104906.359000", "104906.362000", "104906.365000", "104906.368000", "104906.371000", "104906.374000", "104906.377000", "104906.380000", "104906.383000", "104926.326000", "104926.329000", "104926.332000", "104926.335000", "104926.338000", "104926.341000", "104926.345000", "104926.348000", "104926.351000", "104926.353000", "104926.357000", "104926.360000", "104926.363000", "104926.366000", "104926.369000", "104926.372000", "104926.375000", "104926.378000", "104926.381000", "104926.384000", "104946.325000", "104946.328000", "104946.331000", "104946.334000", "104946.337000", "104946.340000", "104946.343000", "104946.346000", "104946.349000", "104946.352000", "104946.356000", "104946.359000", "104946.361000", "104946.364000", "104946.368000", "104946.371000", "104946.374000", "104946.377000", "104946.380000", "104946.383000", "105004.244000", "105004.247000", "105004.250000", "105004.253000", "105004.256000", "105004.259000", "105004.262000", "105004.265000", "105004.268000", "105004.271000", "105004.274000", "105004.277000", "105004.280000", "105004.283000", "105004.287000", "105004.290000", "105004.293000", "105004.296000"],
      "InstanceCreationTime": ["104626.363000", "104626.367000", "104626.370000", "104626.373000", "104626.376000", "104626.406000", "104626.409000", "104626.412000", "104626.415000", "104626.418000", "104626.421000", "104626.424000", "104626.427000", "104626.430000", "104626.433000", "104626.436000", "104626.439000", "104626.442000", "104626.445000", "104626.448000", "104626.451000", "104626.455000", "104626.458000", "104626.461000", "104626.464000", "104626.467000", "104626.470000", "104626.480000", "104626.483000", "104626.486000", "104626.489000", "104626.492000", "104626.495000", "104626.498000", "104626.501000", "104626.504000", "104626.507000", "104646.325000", "104646.328000", "104646.331000", "104646.334000", "104646.337000", "104646.340000", "104646.343000", "104646.346000", "104646.349000", "104646.352000", "104646.355000", "104646.358000", "104646.361000", "104646.364000", "104646.367000", "104646.370000", "104646.373000", "104646.376000", "104646.381000", "104646.385000", "104646.387000", "104646.390000", "104646.393000", "104646.397000", "104646.399000", "104646.402000", "104646.405000", "104646.408000", "104646.411000", "104706.326000", "104706.329000", "104706.332000", "104706.335000", "104706.338000", "104706.342000", "104706.345000", "104706.348000", "104706.351000", "104706.357000", "104706.360000", "104706.363000", "104706.366000", "104706.369000", "104706.372000", "104706.375000", "104706.378000", "104706.381000", "104706.384000", "104706.387000", "104706.390000", "104706.393000", "104706.396000", "104706.399000", "104706.402000", "104706.405000", "104706.408000", "104706.411000", "104726.325000", "104726.328000", "104726.332000", "104726.334000", "104726.337000", "104726.340000", "104726.344000", "104726.346000", "104726.349000", "104726.352000", "104726.355000", "104726.358000", "104726.362000", "104726.366000", "104726.369000", "104726.372000", "104726.375000", "104726.378000", "104726.381000", "104726.384000", "104726.387000", "104726.390000", "104726.393000", "104726.396000", "104726.399000", "104726.402000", "104726.405000", "104726.408000", "104746.325000", "104746.328000", "104746.331000", "104746.334000", "104746.337000", "104746.340000", "104746.343000", "104746.346000", "104746.349000", "104746.352000", "104746.356000", "104746.358000", "104746.362000", "104746.365000", "104746.368000", "104746.371000", "104746.374000", "104746.377000", "104746.380000", "104746.383000", "104746.386000", "104746.389000", "104746.392000", "104746.395000", "104746.398000", "104746.401000", "104746.404000", "104746.407000", "104746.410000", "104806.325000", "104806.330000", "104806.333000", "104806.337000", "104806.340000", "104806.343000", "104806.346000", "104806.349000", "104806.352000", "104806.355000", "104806.357000", "104806.361000", "104806.364000", "104806.367000", "104806.370000", "104806.373000", "104806.376000", "104806.379000", "104806.382000", "104806.385000", "104806.388000", "104806.391000", "104806.394000", "104806.397000", "104806.400000", "104806.403000", "104806.406000", "104806.409000", "104826.325000", "104826.328000", "104826.349000", "104826.352000", "104826.354000", "104826.358000", "104826.361000", "104826.364000", "104826.367000", "104826.370000", "104826.373000", "104826.376000", "104826.379000", "104826.382000", "104826.385000", "104826.388000", "104826.391000", "104826.394000", "104826.397000", "104826.400000", "104826.403000", "104826.406000", "104826.409000", "104846.325000", "104846.328000", "104846.331000", "104846.334000", "104846.337000", "104846.340000", "104846.344000", "104846.347000", "104846.349000", "104846.362000", "104846.365000", "104846.368000", "104846.371000", "104846.374000", "104846.377000", "104846.380000", "104846.383000", "104846.386000", "104846.389000", "104846.392000", "104906.325000", "104906.328000", "104906.331000", "104906.334000", "104906.337000", "104906.340000", "104906.343000", "104906.346000", "104906.349000", "104906.352000", "104906.356000", "104906.359000", "104906.362000", "104906.365000", "104906.368000", "104906.371000", "104906.374000", "104906.377000", "104906.380000", "104906.383000", "104926.326000", "104926.329000", "104926.332000", "104926.335000", "104926.338000", "104926.341000", "104926.345000", "104926.348000", "104926.351000", "104926.353000", "104926.357000", "104926.360000", "104926.363000", "104926.366000", "104926.369000", "104926.372000", "104926.375000", "104926.378000", "104926.381000", "104926.384000", "104946.325000", "104946.328000", "104946.331000", "104946.334000", "104946.337000", "104946.340000", "104946.343000", "104946.346000", "104946.349000", "104946.352000", "104946.356000", "104946.359000", "104946.361000", "104946.364000", "104946.368000", "104946.371000", "104946.374000", "104946.377000", "104946.380000", "104946.383000", "105004.244000", "105004.247000", "105004.250000", "105004.253000", "105004.256000", "105004.259000", "105004.262000", "105004.265000", "105004.268000", "105004.271000", "105004.274000", "105004.277000", "105004.280000", "105004.283000", "105004.287000", "105004.290000", "105004.293000", "105004.296000"],
      "InstanceNumber": [1, 2, 3, 4, 5, 6, 7, 8, 9, 10, 11, 12, 13, 14, 15, 16, 17, 18, 19, 20, 21, 22, 23, 24, 25, 26, 27, 28, 29, 30, 31, 32, 33, 34, 35, 36, 37, 38, 39, 40, 41, 42, 43, 44, 45, 46, 47, 48, 49, 50, 51, 52, 53, 54, 55, 56, 57, 58, 59, 60, 61, 62, 63, 64, 65, 66, 67, 68, 69, 70, 71, 72, 73, 74, 75, 76, 77, 78, 79, 80, 81, 82, 83, 84, 85, 86, 87, 88, 89, 90, 91, 92, 93, 94, 95, 96, 97, 98, 99, 100, 101, 102, 103, 104, 105, 106, 107, 108, 109, 110, 111, 112, 113, 114, 115, 116, 117, 118, 119, 120, 121, 122, 123, 124, 125, 126, 127, 128, 129, 130, 131, 132, 133, 134, 135, 136, 137, 138, 139, 140, 141, 142, 143, 144, 145, 146, 147, 148, 149, 150, 151, 152, 153, 154, 155, 156, 157, 158, 159, 160, 161, 162, 163, 164, 165, 166, 167, 168, 169, 170, 171, 172, 173, 174, 175, 176, 177, 178, 179, 180, 181, 182, 183, 184, 185, 186, 187, 188, 189, 190, 191, 192, 193, 194, 195, 196, 197, 198, 199, 200, 201, 202, 203, 204, 205, 206, 207, 208, 209, 210, 211, 212, 213, 214, 215, 216, 217, 218, 219, 220, 221, 222, 223, 224, 225, 226, 227, 228, 229, 230, 231, 232, 233, 234, 235, 236, 237, 238, 239, 240, 241, 242, 243, 244, 245, 246, 247, 248, 249, 250, 251, 252, 253, 254, 255, 256, 257, 258, 259, 260, 261, 262, 263, 264, 265, 266, 267, 268, 269, 270, 271, 272, 273, 274, 275, 276, 277, 278, 279, 280, 281, 282, 283, 284, 285, 286, 287, 288, 289, 290, 291, 292, 293, 294, 295, 296, 297, 298, 299, 300],
      "LargestImagePixelValue": [48576, 46867, 46991, 46285, 45591, 45547, 45762, 45989, 45966, 45620, 45682, 45850, 45971, 45524, 45487, 45713, 46153, 45181, 45267, 44931, 45425, 44425, 44786, 45034, 45133, 44889, 45259, 45547, 44947, 44556, 45484, 45630, 44940, 44955, 45519, 45358, 44843, 44926, 44826, 45438, 45176, 45113, 44434, 44795, 45720, 44812, 44099, 44929, 45530, 45236, 44574, 45183, 45449, 44580, 44313, 45107, 45103, 44905, 44096, 44483, 45125, 45114, 44422, 44733, 45005, 45375, 44548, 44636, 44385, 45014, 43952, 44155, 44751, 44995, 44716, 44488, 45440, 44691, 44342, 44420, 44722, 44981, 44915, 44411, 44651, 44751, 44156, 44506, 44514, 44950, 44837, 44352, 44289, 45582, 44239, 44473, 44782, 44934, 44524, 44744, 44602, 44837, 44595, 44812, 44649, 44540, 44795, 44291, 44258, 44336, 44637, 44495, 44318, 44651, 44650, 44486, 44622, 44563, 44411, 44156, 45044, 44857, 44577, 44690, 44408, 44806, 44566, 44734, 44713, 45014, 45143, 45093, 44569, 44983, 44891, 44550, 44847, 44779, 44812, 44771, 44384, 44401, 44492, 44105, 44545, 44780, 45123, 44819, 44329, 44541, 44077, 44488, 44406, 44574, 44200, 44337, 44631, 44490, 44571, 44064, 44417, 44334, 44242, 44159, 44312, 44428, 44272, 43889, 44263, 44060, 44711, 43940, 43654, 43888, 44066, 44498, 44284, 44158, 44356, 44352, 44055, 44123, 44106, 44017, 44254, 44739, 44007, 44495, 44476, 44183, 44004, 44336, 44306, 44204, 43923, 44218, 44070, 43982, 43870, 43872, 44371, 43781, 43738, 43958, 44177, 43989, 43939, 43874, 44154, 45028, 43934, 43840, 44209, 44275, 43703, 44168, 43776, 43649, 44095, 44116, 44261, 43758, 44285, 44106, 43752, 44187, 43862, 43539, 43738, 43742, 43643, 43866, 44188, 43751, 43488, 44078, 44010, 44184, 43966, 44148, 43873, 43931, 44218, 44262, 44249, 43976, 44136, 44260, 43467, 43965, 44139, 43955, 44469, 43828, 43648, 43692, 44024, 43922, 43804, 44015, 44093, 43668, 43668, 44006, 44120, 44365, 44253, 44074, 43922, 43799, 43579, 43862, 43770, 43522, 43893, 43492, 43848, 44048, 44021, 44518, 43790, 44158, 43982, 44021, 43937, 44355, 43465, 43674, 43450, 43673, 43914, 43846, 43768, 44101, 43041, 43320, 43972, 43487, 43289, 43621],
      "WindowCenter": [10632.0, 10569.0, 10552.0, 10536.0, 10523.0, 10519.0, 10514.0, 10512.0, 10511.0, 10502.0, 10496.0, 10502.0, 10503.0, 10490.0, 10489.0, 10489.0, 10495.0, 10485.0, 10478.0, 10477.0, 10486.0, 10478.0, 10477.0, 10484.0, 10490.0, 10491.0, 10496.0, 10509.0, 10507.0, 10503.0, 10520.0, 10533.0, 10511.0, 10515.0, 10525.0, 10519.0, 10507.0, 10507.0, 10508.0, 10511.0, 10514.0, 10509.0, 10497.0, 10502.0, 10514.0, 10501.0, 10492.0, 10505.0, 10512.0, 10513.0, 10502.0, 10507.0, 10523.0, 10510.0, 10498.0, 10513.0, 10522.0, 10510.0, 10503.0, 10509.0, 10515.0, 10515.0, 10503.0, 10507.0, 10506.0, 10511.0, 10494.0, 10488.0, 10494.0, 10507.0, 10491.0, 10495.0, 10508.0, 10513.0, 10513.0, 10510.0, 10526.0, 10516.0, 10507.0, 10494.0, 10498.0, 10496.0, 10483.0, 10478.0, 10482.0, 10491.0, 10487.0, 10486.0, 10493.0, 10499.0, 10500.0, 10494.0, 10490.0, 10511.0, 10492.0, 10496.0, 10500.0, 10500.0, 10495.0, 10490.0, 10492.0, 10492.0, 10499.0, 10500.0, 10498.0, 10500.0, 10510.0, 10498.0, 10495.0, 10500.0, 10496.0, 10496.0, 10488.0, 10493.0, 10499.0, 10502.0, 10495.0, 10494.0, 10501.0, 10490.0, 10492.0, 10491.0, 10487.0, 10477.0, 10475.0, 10475.0, 10479.0, 10475.0, 10474.0, 10482.0, 10482.0, 10489.0, 10477.0, 10487.0, 10493.0, 10487.0, 10493.0, 10495.0, 10498.0, 10495.0, 10487.0, 10486.0, 10488.0, 10475.0, 10473.0, 10477.0, 10481.0, 10482.0, 10472.0, 10470.0, 10473.0, 10480.0, 10473.0, 10486.0, 10484.0, 10492.0, 10492.0, 10496.0, 10496.0, 10490.0, 10494.0, 10495.0, 10489.0, 10483.0, 10489.0, 10495.0, 10484.0, 10476.0, 10480.0, 10481.0, 10487.0, 10477.0, 10465.0, 10469.0, 10480.0, 10493.0, 10483.0, 10482.0, 10488.0, 10495.0, 10490.0, 10488.0, 10491.0, 10486.0, 10486.0, 10494.0, 10486.0, 10485.0, 10481.0, 10481.0, 10474.0, 10480.0, 10483.0, 10484.0, 10476.0, 10480.0, 10481.0, 10477.0, 10475.0, 10482.0, 10488.0, 10483.0, 10482.0, 10483.0, 10496.0, 10490.0, 10497.0, 10499.0, 10506.0, 10527.0, 10509.0, 10512.0, 10515.0, 10510.0, 10502.0, 10505.0, 10495.0, 10488.0, 10498.0, 10500.0, 10498.0, 10493.0, 10503.0, 10496.0, 10488.0, 10491.0, 10489.0, 10484.0, 10490.0, 10488.0, 10482.0, 10487.0, 10487.0, 10476.0, 10475.0, 10482.0, 10480.0, 10486.0, 10489.0, 10497.0, 10492.0, 10496.0, 10502.0, 10495.0, 10484.0, 10483.0, 10481.0, 10475.0, 10465.0, 10466.0, 10478.0, 10480.0, 10489.0, 10483.0, 10464.0, 10467.0, 10479.0, 10467.0, 10473.0, 10481.0, 10481.0, 10476.0, 10483.0, 10494.0, 10483.0, 10492.0, 10493.0, 10489.0, 10487.0, 10488.0, 10490.0, 10488.0, 10484.0, 10486.0, 10477.0, 10477.0, 10490.0, 10482.0, 10487.0, 10494.0, 10484.0, 10488.0, 10490.0, 10495.0, 10491.0, 10502.0, 10493.0, 10486.0, 10485.0, 10483.0, 10479.0, 10477.0, 10475.0, 10481.0, 10471.0, 10471.0, 10477.0, 10471.0, 10471.0, 10475.0],
