{
  "AcquisitionMatrixPE": 104,
  "AcquisitionNumber": 1,
  "AcquisitionTime": "10:38:55.070000",
  "BandwidthPerPixelPhaseEncode": 16.297,
  "BaseResolution": 104,
  "BodyPartExamined": "BRAIN",
  "ConsistencyInfo": "N4_VE11C_LATEST_20160120",
  "ConversionSoftware": "dcm2niix",
  "ConversionSoftwareVersion": "v1.0.20210317",
  "DerivedVendorReportedEchoSpacing": 0.000590009,
  "DeviceSerialNumber": "166018",
  "DwellTime": 2.1e-06,
  "EchoTime": 0.0376,
  "EchoTrainLength": 104,
  "EffectiveEchoSpacing": 0.000590009,
  "FlipAngle": 68,
  "ImageComments": "Unaliased MB6/PE3/LB",
  "ImageOrientationPatientDICOM": [0.999704, 0.00605034, 0.0235438, -0.0045365, 0.997951, -0.063829],
  "ImageType": [
    "ORIGINAL",
    "PRIMARY",
    "M",
    "MB",
    "ND",
    "MOSAIC"
],
  "ImagingFrequency": 123.197,
  "InPlanePhaseEncodingDirectionDICOM": "COL",
  "InstitutionAddress": "Washington Place 6,NYC,NYC,US,10003",
  "InstitutionName": "NYU - CBI",
  "InstitutionalDepartmentName": "Department",
  "MRAcquisitionType": "2D",
  "MagneticFieldStrength": 3,
  "Manufacturer": "Siemens",
  "ManufacturersModelName": "Prisma",
  "Modality": "MR",
  "MultibandAccelerationFactor": 6,
  "PartialFourier": 1,
  "PatientPosition": "HFS",
  "PercentPhaseFOV": 100,
  "PercentSampling": 100,
  "PhaseEncodingDirection": "j",
  "PhaseEncodingSteps": 104,
  "PhaseResolution": 1,
  "PixelBandwidth": 2290,
  "ProcedureStepDescription": "Investigators^Winawer",
  "ProtocolName": "cmrr_mbepi_s6_2mm_66sl_PA_task-bar3",
  "PulseSequenceDetails": "%CustomerSeq%\\cmrr_mbep2d_bold",
  "ReceiveCoilActiveElements": "HC1-7",
  "ReceiveCoilName": "HeadNeck_64",
  "ReconMatrixPE": 104,
  "RepetitionTime": 1,
  "SAR": 0.0728578,
  "ScanOptions": "FS",
  "ScanningSequence": "EP",
  "SequenceName": "epfid2d1_104",
  "SequenceVariant": "SK\\SS",
  "SeriesDescription": "cmrr_mbepi_s6_2mm_66sl_PA_task-bar3",
  "SeriesNumber": 31,
  "ShimSetting": [313, -12753, -8644, 90, 80, -401, 14, 54],
  "SliceThickness": 2,
  "SliceTiming": [0, 0.535, 0.09, 0.625, 0.1775, 0.7125, 0.2675, 0.8025, 0.3575, 0.89, 0.445, 0, 0.535, 0.09, 0.625, 0.1775, 0.7125, 0.2675, 0.8025, 0.3575, 0.89, 0.445, 0, 0.535, 0.09, 0.625, 0.1775, 0.7125, 0.2675, 0.8025, 0.3575, 0.89, 0.445, 0, 0.535, 0.09, 0.625, 0.1775, 0.7125, 0.2675, 0.8025, 0.3575, 0.89, 0.445, 0, 0.535, 0.09, 0.625, 0.1775, 0.7125, 0.2675, 0.8025, 0.3575, 0.89, 0.445, 0, 0.535, 0.09, 0.625, 0.1775, 0.7125, 0.2675, 0.8025, 0.3575, 0.89, 0.445],
  "SoftwareVersions": "syngo MR E11",
  "SpacingBetweenSlices": 2,
  "StationName": "AWP166018",
  "TaskName": "bar3",
  "TotalReadoutTime": 0.060771,
  "TxRefAmp": 213.637,
  "VendorReportedEchoSpacing": 0.00059,
  "WipMemBlock": "59e32a49-1498-4379-aa9c-7b8bba63db0f||Sequence: R016 ve11c/master r/8780670; Nov 27 2017 15:05:12 by eja",
  "dcmmeta_affine": [
    [-1.9994089603424072, -0.009073009714484215, 0.04776341840624809, 106.22615814208984],
    [-0.01210068166255951, 1.995901107788086, -0.1274067610502243, -83.50416564941406],
    [0.04708755016326904, 0.12765808403491974, 1.9953662157058716, -42.88472366333008],
    [0.0, 0.0, 0.0, 1.0]
],
  "dcmmeta_reorient_transform": [
    [0.0, -1.0, 0.0, 103.0],
    [1.0, 0.0, 0.0, 0.0],
    [0.0, 0.0, 1.0, 0.0],
    [0.0, 0.0, 0.0, 1.0]
],
  "dcmmeta_shape": [104, 104, 66, 300],
  "dcmmeta_slice_dim": 2,
  "dcmmeta_version": 0.6,
  "global": {
    "const": {
      "AccessionNumber": "Liat8bkt",
      "AcquisitionMatrix": [104, 0, 0, 104],
      "AngioFlag": "N",
      "BitsAllocated": 16,
      "BitsStored": 16,
      "BodyPartExamined": "BRAIN",
      "Columns": 936,
      "EchoNumbers": 1,
      "EchoTime": 37.6,
      "EchoTrainLength": 104,
      "FlipAngle": 68.0,
      "HighBit": 15,
      "ImageOrientationPatient": [0.99970449837098, 0.00605034083913, 0.0235437743906, -0.004536504795, 0.99795053641773, -0.0638290450173],
      "ImagePositionPatient": [-933.27140533339, -957.40237383153, 3.7814037179307],
      "ImageType": [
        "ORIGINAL",
        "PRIMARY",
        "M",
        "MB",
        "ND",
        "MOSAIC"
],
      "ImagedNucleus": "1H",
      "ImagingFrequency": 123.196969,
      "InPlanePhaseEncodingDirection": "COL",
      "MRAcquisitionType": "2D",
      "MagneticFieldStrength": 3.0,
      "Manufacturer": "SIEMENS",
      "ManufacturerModelName": "Prisma",
      "Modality": "MR",
      "NumberOfAverages": 1.0,
      "NumberOfPhaseEncodingSteps": 104,
      "PercentPhaseFieldOfView": 100.0,
      "PercentSampling": 100.0,
      "PerformedProcedureStepStartTime": "090455.502000",
      "PhotometricInterpretation": "MONOCHROME2",
      "PixelBandwidth": 2290.0,
      "PixelRepresentation": 0,
      "PixelSpacing": [2.0, 2.0],
      "ProtocolName": "cmrr_mbepi_s6_2mm_66sl_PA_task-bar3",
      "RepetitionTime": 1000.0,
      "Rows": 936,
      "SAR": 0.07285779634946,
      "SamplesPerPixel": 1,
      "ScanOptions": "FS",
      "ScanningSequence": "EP",
      "SequenceName": "epfid2d1_104",
      "SequenceVariant": [
        "SK",
        "SS"
],
      "SeriesDescription": "cmrr_mbepi_s6_2mm_66sl_PA_task-bar3",
      "SeriesNumber": 31,
      "SeriesTime": "104026.300000",
      "SliceLocation": -34.929004979373,
      "SliceThickness": 2.0,
      "SmallestImagePixelValue": 0,
      "SoftwareVersions": "syngo MR E11",
      "SpacingBetweenSlices": 2.0000000225826,
      "SpecificCharacterSet": "ISO_IR 100",
      "StudyID": "1",
      "StudyTime": "090455.287000",
      "TransmitCoilName": "Body",
      "VariableFlipAngleFlag": "N",
      "WindowCenterWidthExplanation": "Algo1",
      "dBdt": 0.0},
    "slices": {}
  },
  "time": {
    "samples": {
      "AcquisitionNumber": [1, 2, 3, 4, 5, 6, 7, 8, 9, 10, 11, 12, 13, 14, 15, 16, 17, 18, 19, 20, 21, 22, 23, 24, 25, 26, 27, 28, 29, 30, 31, 32, 33, 34, 35, 36, 37, 38, 39, 40, 41, 42, 43, 44, 45, 46, 47, 48, 49, 50, 51, 52, 53, 54, 55, 56, 57, 58, 59, 60, 61, 62, 63, 64, 65, 66, 67, 68, 69, 70, 71, 72, 73, 74, 75, 76, 77, 78, 79, 80, 81, 82, 83, 84, 85, 86, 87, 88, 89, 90, 91, 92, 93, 94, 95, 96, 97, 98, 99, 100, 101, 102, 103, 104, 105, 106, 107, 108, 109, 110, 111, 112, 113, 114, 115, 116, 117, 118, 119, 120, 121, 122, 123, 124, 125, 126, 127, 128, 129, 130, 131, 132, 133, 134, 135, 136, 137, 138, 139, 140, 141, 142, 143, 144, 145, 146, 147, 148, 149, 150, 151, 152, 153, 154, 155, 156, 157, 158, 159, 160, 161, 162, 163, 164, 165, 166, 167, 168, 169, 170, 171, 172, 173, 174, 175, 176, 177, 178, 179, 180, 181, 182, 183, 184, 185, 186, 187, 188, 189, 190, 191, 192, 193, 194, 195, 196, 197, 198, 199, 200, 201, 202, 203, 204, 205, 206, 207, 208, 209, 210, 211, 212, 213, 214, 215, 216, 217, 218, 219, 220, 221, 222, 223, 224, 225, 226, 227, 228, 229, 230, 231, 232, 233, 234, 235, 236, 237, 238, 239, 240, 241, 242, 243, 244, 245, 246, 247, 248, 249, 250, 251, 252, 253, 254, 255, 256, 257, 258, 259, 260, 261, 262, 263, 264, 265, 266, 267, 268, 269, 270, 271, 272, 273, 274, 275, 276, 277, 278, 279, 280, 281, 282, 283, 284, 285, 286, 287, 288, 289, 290, 291, 292, 293, 294, 295, 296, 297, 298, 299, 300],
      "AcquisitionTime": ["103855.070000", "103856.070000", "103857.070000", "103858.070000", "103859.070000", "103900.070000", "103901.070000", "103902.070000", "103903.070000", "103904.070000", "103905.070000", "103906.070000", "103907.070000", "103908.070000", "103909.070000", "103910.070000", "103911.070000", "103912.070000", "103913.070000", "103914.070000", "103915.070000", "103916.070000", "103917.070000", "103918.070000", "103919.070000", "103920.070000", "103921.070000", "103922.070000", "103923.070000", "103924.070000", "103925.070000", "103926.070000", "103927.070000", "103928.070000", "103929.070000", "103930.070000", "103931.070000", "103932.070000", "103933.070000", "103934.070000", "103935.070000", "103936.070000", "103937.070000", "103938.070000", "103939.070000", "103940.070000", "103941.070000", "103942.070000", "103943.070000", "103944.070000", "103945.070000", "103946.070000", "103947.070000", "103948.070000", "103949.070000", "103950.070000", "103951.070000", "103952.070000", "103953.070000", "103954.070000", "103955.070000", "103956.070000", "103957.070000", "103958.070000", "103959.070000", "104000.070000", "104001.070000", "104002.070000", "104003.070000", "104004.070000", "104005.070000", "104006.070000", "104007.070000", "104008.070000", "104009.070000", "104010.070000", "104011.070000", "104012.070000", "104013.070000", "104014.070000", "104015.070000", "104016.070000", "104017.070000", "104018.070000", "104019.070000", "104020.070000", "104021.070000", "104022.070000", "104023.070000", "104024.070000", "104025.070000", "104026.070000", "104027.070000", "104028.070000", "104029.070000", "104030.070000", "104031.070000", "104032.070000", "104033.070000", "104034.070000", "104035.070000", "104036.070000", "104037.070000", "104038.070000", "104039.070000", "104040.070000", "104041.070000", "104042.070000", "104043.070000", "104044.070000", "104045.070000", "104046.070000", "104047.070000", "104048.070000", "104049.070000", "104050.070000", "104051.070000", "104052.070000", "104053.070000", "104054.070000", "104055.070000", "104056.070000", "104057.070000", "104058.070000", "104059.070000", "104100.070000", "104101.070000", "104102.070000", "104103.070000", "104104.070000", "104105.070000", "104106.070000", "104107.070000", "104108.070000", "104109.070000", "104110.070000", "104111.070000", "104112.070000", "104113.070000", "104114.070000", "104115.070000", "104116.070000", "104117.070000", "104118.070000", "104119.070000", "104120.070000", "104121.070000", "104122.070000", "104123.070000", "104124.070000", "104125.070000", "104126.070000", "104127.070000", "104128.070000", "104129.070000", "104130.070000", "104131.070000", "104132.070000", "104133.070000", "104134.070000", "104135.070000", "104136.070000", "104137.070000", "104138.070000", "104139.070000", "104140.070000", "104141.070000", "104142.070000", "104143.070000", "104144.070000", "104145.070000", "104146.070000", "104147.070000", "104148.070000", "104149.070000", "104150.070000", "104151.070000", "104152.070000", "104153.070000", "104154.070000", "104155.070000", "104156.070000", "104157.070000", "104158.070000", "104159.070000", "104200.070000", "104201.070000", "104202.070000", "104203.070000", "104204.070000", "104205.070000", "104206.070000", "104207.070000", "104208.070000", "104209.070000", "104210.070000", "104211.070000", "104212.070000", "104213.070000", "104214.070000", "104215.070000", "104216.070000", "104217.070000", "104218.070000", "104219.070000", "104220.070000", "104221.070000", "104222.070000", "104223.070000", "104224.070000", "104225.070000", "104226.070000", "104227.070000", "104228.070000", "104229.070000", "104230.070000", "104231.070000", "104232.070000", "104233.070000", "104234.070000", "104235.070000", "104236.070000", "104237.070000", "104238.070000", "104239.070000", "104240.070000", "104241.070000", "104242.070000", "104243.070000", "104244.070000", "104245.070000", "104246.070000", "104247.070000", "104248.070000", "104249.070000", "104250.070000", "104251.070000", "104252.070000", "104253.070000", "104254.070000", "104255.070000", "104256.070000", "104257.070000", "104258.070000", "104259.070000", "104300.070000", "104301.070000", "104302.070000", "104303.070000", "104304.070000", "104305.070000", "104306.070000", "104307.070000", "104308.070000", "104309.070000", "104310.070000", "104311.070000", "104312.070000", "104313.070000", "104314.070000", "104315.070000", "104316.070000", "104317.070000", "104318.070000", "104319.070000", "104320.070000", "104321.070000", "104322.070000", "104323.070000", "104324.070000", "104325.070000", "104326.070000", "104327.070000", "104328.070000", "104329.070000", "104330.070000", "104331.070000", "104332.070000", "104333.070000", "104334.070000", "104335.070000", "104336.070000", "104337.070000", "104338.070000", "104339.070000", "104340.070000", "104341.070000", "104342.070000", "104343.070000", "104344.070000", "104345.070000", "104346.070000", "104347.070000", "104348.070000", "104349.070000", "104350.070000", "104351.070000", "104352.070000", "104353.070000", "104354.070000"],
      "ContentTime": ["104026.303000", "104026.307000", "104026.310000", "104026.313000", "104026.316000", "104026.319000", "104026.322000", "104026.325000", "104026.328000", "104026.331000", "104026.334000", "104026.337000", "104026.340000", "104026.343000", "104026.346000", "104026.349000", "104026.352000", "104026.355000", "104026.358000", "104026.361000", "104026.364000", "104026.367000", "104026.370000", "104026.373000", "104026.376000", "104026.380000", "104026.382000", "104026.385000", "104026.388000", "104026.391000", "104026.394000", "104026.397000", "104026.400000", "104026.404000", "104026.407000", "104026.410000", "104026.413000", "104026.416000", "104026.419000", "104026.430000", "104026.433000", "104026.436000", "104026.439000", "104026.442000", "104026.445000", "104026.449000", "104026.452000", "104026.455000", "104046.254000", "104046.257000", "104046.260000", "104046.263000", "104046.266000", "104046.269000", "104046.272000", "104046.275000", "104046.278000", "104046.281000", "104046.284000", "104046.287000", "104046.291000", "104046.293000", "104046.296000", "104046.299000", "104046.303000", "104046.305000", "104046.308000", "104046.311000", "104046.315000", "104046.326000", "104046.329000", "104046.332000", "104046.335000", "104046.338000", "104046.341000", "104046.344000", "104106.254000", "104106.257000", "104106.260000", "104106.263000", "104106.266000", "104106.269000", "104106.272000", "104106.275000", "104106.278000", "104106.281000", "104106.284000", "104106.287000", "104106.290000", "104106.293000", "104106.296000", "104106.299000", "104106.302000", "104106.305000", "104106.308000", "104106.311000", "104106.315000", "104106.318000", "104106.321000", "104106.323000", "104106.327000", "104106.330000", "104106.333000", "104106.335000", "104126.254000", "104126.257000", "104126.260000", "104126.263000", "104126.266000", "104126.269000", "104126.272000", "104126.275000", "104126.278000", "104126.281000", "104126.284000", "104126.287000", "104126.290000", "104126.293000", "104126.296000", "104126.299000", "104126.302000", "104126.305000", "104126.309000", "104126.312000", "104126.315000", "104126.318000", "104126.321000", "104126.324000", "104126.327000", "104126.330000", "104126.333000", "104126.336000", "104126.339000", "104146.254000", "104146.257000", "104146.260000", "104146.263000", "104146.266000", "104146.269000", "104146.272000", "104146.275000", "104146.278000", "104146.281000", "104146.284000", "104146.287000", "104146.290000", "104146.298000", "104146.301000", "104146.304000", "104146.307000", "104146.311000", "104146.314000", "104146.317000", "104146.320000", "104146.323000", "104146.326000", "104146.329000", "104146.332000", "104146.335000", "104146.338000", "104146.341000", "104206.254000", "104206.257000", "104206.260000", "104206.263000", "104206.266000", "104206.269000", "104206.272000", "104206.275000", "104206.279000", "104206.282000", "104206.285000", "104206.288000", "104206.291000", "104206.294000", "104206.297000", "104206.300000", "104206.303000", "104206.306000", "104206.309000", "104206.312000", "104206.315000", "104206.318000", "104206.321000", "104206.324000", "104206.327000", "104206.330000", "104206.333000", "104206.336000", "104206.339000", "104226.255000", "104226.258000", "104226.261000", "104226.264000", "104226.267000", "104226.270000", "104226.280000", "104226.283000", "104226.286000", "104226.289000", "104226.293000", "104226.296000", "104226.298000", "104226.301000", "104226.305000", "104226.308000", "104226.311000", "104226.314000", "104226.317000", "104226.320000", "104246.254000", "104246.257000", "104246.260000", "104246.263000", "104246.266000", "104246.269000", "104246.273000", "104246.276000", "104246.279000", "104246.282000", "104246.285000", "104246.288000", "104246.291000", "104246.294000", "104246.297000", "104246.300000", "104246.303000", "104246.306000", "104246.309000", "104246.312000", "104306.254000", "104306.257000", "104306.260000", "104306.263000", "104306.266000", "104306.269000", "104306.273000", "104306.276000", "104306.279000", "104306.282000", "104306.285000", "104306.288000", "104306.291000", "104306.294000", "104306.297000", "104306.300000", "104306.303000", "104306.306000", "104306.309000", "104306.312000", "104326.254000", "104326.257000", "104326.260000", "104326.263000", "104326.266000", "104326.269000", "104326.273000", "104326.276000", "104326.279000", "104326.282000", "104326.285000", "104326.288000", "104326.291000", "104326.294000", "104326.297000", "104326.300000", "104326.303000", "104326.306000", "104326.309000", "104326.312000", "104346.254000", "104346.257000", "104346.260000", "104346.263000", "104346.266000", "104346.269000", "104346.273000", "104346.276000", "104346.279000", "104346.282000", "104346.285000", "104346.288000", "104346.291000", "104346.294000", "104346.297000", "104346.300000", "104346.303000", "104346.306000", "104346.309000", "104346.312000", "104355.652000", "104355.655000", "104355.658000", "104355.661000", "104355.664000", "104355.667000", "104355.670000", "104355.673000", "104355.676000", "104355.679000"],
      "InstanceCreationTime": ["104026.303000", "104026.307000", "104026.310000", "104026.313000", "104026.316000", "104026.319000", "104026.322000", "104026.325000", "104026.328000", "104026.331000", "104026.334000", "104026.337000", "104026.340000", "104026.343000", "104026.346000", "104026.349000", "104026.352000", "104026.355000", "104026.358000", "104026.361000", "104026.364000", "104026.367000", "104026.370000", "104026.373000", "104026.376000", "104026.380000", "104026.382000", "104026.385000", "104026.388000", "104026.391000", "104026.394000", "104026.397000", "104026.400000", "104026.404000", "104026.407000", "104026.410000", "104026.413000", "104026.416000", "104026.419000", "104026.430000", "104026.433000", "104026.436000", "104026.439000", "104026.442000", "104026.445000", "104026.449000", "104026.452000", "104026.455000", "104046.254000", "104046.257000", "104046.260000", "104046.263000", "104046.266000", "104046.269000", "104046.272000", "104046.275000", "104046.278000", "104046.281000", "104046.284000", "104046.287000", "104046.291000", "104046.293000", "104046.296000", "104046.299000", "104046.303000", "104046.305000", "104046.308000", "104046.311000", "104046.315000", "104046.326000", "104046.329000", "104046.332000", "104046.335000", "104046.338000", "104046.341000", "104046.344000", "104106.254000", "104106.257000", "104106.260000", "104106.263000", "104106.266000", "104106.269000", "104106.272000", "104106.275000", "104106.278000", "104106.281000", "104106.284000", "104106.287000", "104106.290000", "104106.293000", "104106.296000", "104106.299000", "104106.302000", "104106.305000", "104106.308000", "104106.311000", "104106.315000", "104106.318000", "104106.321000", "104106.323000", "104106.327000", "104106.330000", "104106.333000", "104106.335000", "104126.254000", "104126.257000", "104126.260000", "104126.263000", "104126.266000", "104126.269000", "104126.272000", "104126.275000", "104126.278000", "104126.281000", "104126.284000", "104126.287000", "104126.290000", "104126.293000", "104126.296000", "104126.299000", "104126.302000", "104126.305000", "104126.309000", "104126.312000", "104126.315000", "104126.318000", "104126.321000", "104126.324000", "104126.327000", "104126.330000", "104126.333000", "104126.336000", "104126.339000", "104146.254000", "104146.257000", "104146.260000", "104146.263000", "104146.266000", "104146.269000", "104146.272000", "104146.275000", "104146.278000", "104146.281000", "104146.284000", "104146.287000", "104146.290000", "104146.298000", "104146.301000", "104146.304000", "104146.307000", "104146.311000", "104146.314000", "104146.317000", "104146.320000", "104146.323000", "104146.326000", "104146.329000", "104146.332000", "104146.335000", "104146.338000", "104146.341000", "104206.254000", "104206.257000", "104206.260000", "104206.263000", "104206.266000", "104206.269000", "104206.272000", "104206.275000", "104206.279000", "104206.282000", "104206.285000", "104206.288000", "104206.291000", "104206.294000", "104206.297000", "104206.300000", "104206.303000", "104206.306000", "104206.309000", "104206.312000", "104206.315000", "104206.318000", "104206.321000", "104206.324000", "104206.327000", "104206.330000", "104206.333000", "104206.336000", "104206.339000", "104226.255000", "104226.258000", "104226.261000", "104226.264000", "104226.267000", "104226.270000", "104226.280000", "104226.283000", "104226.286000", "104226.289000", "104226.293000", "104226.296000", "104226.298000", "104226.301000", "104226.305000", "104226.308000", "104226.311000", "104226.314000", "104226.317000", "104226.320000", "104246.254000", "104246.257000", "104246.260000", "104246.263000", "104246.266000", "104246.269000", "104246.273000", "104246.276000", "104246.279000", "104246.282000", "104246.285000", "104246.288000", "104246.291000", "104246.294000", "104246.297000", "104246.300000", "104246.303000", "104246.306000", "104246.309000", "104246.312000", "104306.254000", "104306.257000", "104306.260000", "104306.263000", "104306.266000", "104306.269000", "104306.273000", "104306.276000", "104306.279000", "104306.282000", "104306.285000", "104306.288000", "104306.291000", "104306.294000", "104306.297000", "104306.300000", "104306.303000", "104306.306000", "104306.309000", "104306.312000", "104326.254000", "104326.257000", "104326.260000", "104326.263000", "104326.266000", "104326.269000", "104326.273000", "104326.276000", "104326.279000", "104326.282000", "104326.285000", "104326.288000", "104326.291000", "104326.294000", "104326.297000", "104326.300000", "104326.303000", "104326.306000", "104326.309000", "104326.312000", "104346.254000", "104346.257000", "104346.260000", "104346.263000", "104346.266000", "104346.269000", "104346.273000", "104346.276000", "104346.279000", "104346.282000", "104346.285000", "104346.288000", "104346.291000", "104346.294000", "104346.297000", "104346.300000", "104346.303000", "104346.306000", "104346.309000", "104346.312000", "104355.652000", "104355.655000", "104355.658000", "104355.661000", "104355.664000", "104355.667000", "104355.670000", "104355.673000", "104355.676000", "104355.679000"],
      "InstanceNumber": [1, 2, 3, 4, 5, 6, 7, 8, 9, 10, 11, 12, 13, 14, 15, 16, 17, 18, 19, 20, 21, 22, 23, 24, 25, 26, 27, 28, 29, 30, 31, 32, 33, 34, 35, 36, 37, 38, 39, 40, 41, 42, 43, 44, 45, 46, 47, 48, 49, 50, 51, 52, 53, 54, 55, 56, 57, 58, 59, 60, 61, 62, 63, 64, 65, 66, 67, 68, 69, 70, 71, 72, 73, 74, 75, 76, 77, 78, 79, 80, 81, 82, 83, 84, 85, 86, 87, 88, 89, 90, 91, 92, 93, 94, 95, 96, 97, 98, 99, 100, 101, 102, 103, 104, 105, 106, 107, 108, 109, 110, 111, 112, 113, 114, 115, 116, 117, 118, 119, 120, 121, 122, 123, 124, 125, 126, 127, 128, 129, 130, 131, 132, 133, 134, 135, 136, 137, 138, 139, 140, 141, 142, 143, 144, 145, 146, 147, 148, 149, 150, 151, 152, 153, 154, 155, 156, 157, 158, 159, 160, 161, 162, 163, 164, 165, 166, 167, 168, 169, 170, 171, 172, 173, 174, 175, 176, 177, 178, 179, 180, 181, 182, 183, 184, 185, 186, 187, 188, 189, 190, 191, 192, 193, 194, 195, 196, 197, 198, 199, 200, 201, 202, 203, 204, 205, 206, 207, 208, 209, 210, 211, 212, 213, 214, 215, 216, 217, 218, 219, 220, 221, 222, 223, 224, 225, 226, 227, 228, 229, 230, 231, 232, 233, 234, 235, 236, 237, 238, 239, 240, 241, 242, 243, 244, 245, 246, 247, 248, 249, 250, 251, 252, 253, 254, 255, 256, 257, 258, 259, 260, 261, 262, 263, 264, 265, 266, 267, 268, 269, 270, 271, 272, 273, 274, 275, 276, 277, 278, 279, 280, 281, 282, 283, 284, 285, 286, 287, 288, 289, 290, 291, 292, 293, 294, 295, 296, 297, 298, 299, 300],
      "LargestImagePixelValue": [49832, 48400, 47428, 46851, 46924, 47163, 46626, 47050, 46653, 46726, 46435, 46555, 47011, 46900, 46766, 46029, 46536, 46510, 46930, 46614, 46605, 46302, 46557, 46736, 46431, 46859, 46719, 46627, 46199, 46641, 46851, 46464, 46252, 46416, 46432, 46441, 46461, 46483, 46382, 46369, 46488, 47154, 46906, 46374, 46396, 46715, 46406, 46405, 46454, 46690, 46583, 46574, 46503, 46844, 46504, 46294, 46453, 45982, 46030, 46521, 46572, 46883, 46187, 46360, 46549, 46470, 46389, 46475, 46288, 46304, 46450, 46232, 46558, 46239, 46248, 46771, 46304, 46020, 46368, 46584, 46583, 46109, 46535, 46323, 47027, 46700, 45896, 46487, 46906, 46438, 46122, 46581, 46342, 46472, 46152, 46385, 46508, 46680, 45932, 46084, 46295, 46264, 46670, 46459, 46347, 46175, 46379, 46603, 45923, 46059, 46039, 46608, 45550, 46071, 46502, 46004, 46177, 46206, 46700, 46785, 46625, 46542, 46565, 46326, 46176, 46387, 46441, 46028, 46398, 46542, 46668, 46118, 46878, 46580, 46537, 46404, 46493, 46627, 46340, 46292, 46643, 46719, 46450, 46185, 46432, 46723, 46505, 46576, 46637, 46820, 46625, 45931, 46045, 46630, 46447, 46314, 46106, 46332, 46178, 46816, 46150, 46182, 46244, 46392, 46524, 46512, 46667, 45870, 46357, 46040, 46341, 46169, 46338, 45979, 46455, 46109, 46377, 46778, 46135, 46352, 46434, 46451, 46284, 46288, 46680, 45999, 46424, 46443, 46064, 46411, 46468, 46572, 46221, 46139, 46305, 45952, 46085, 46217, 46172, 46600, 46493, 46484, 46610, 46525, 46399, 46600, 46553, 45847, 46192, 46513, 46615, 46380, 46579, 46412, 46208, 45846, 46036, 46426, 46029, 45988, 46449, 46455, 46373, 46266, 46245, 46628, 46286, 46180, 46708, 46080, 46411, 46374, 46286, 45946, 46232, 45946, 45958, 46499, 46171, 46106, 45675, 46164, 45971, 45924, 45946, 45875, 46207, 45935, 45777, 46108, 45791, 45926, 46249, 46297, 45934, 46254, 46322, 46142, 46035, 45978, 46103, 45909, 45694, 46472, 46066, 46091, 46304, 46126, 46587, 46201, 45973, 46629, 46354, 45856, 46012, 46286, 46138, 46192, 46162, 46064, 46440, 46430, 45823, 46079, 45844, 45837, 45850, 45904, 46079, 46228, 45928, 46079, 45898, 46052, 45991, 45590, 45853, 46110, 45990, 46074],
      "WindowCenter": [10672.0, 10621.0, 10582.0, 10566.0, 10560.0, 10548.0, 10533.0, 10532.0, 10527.0, 10526.0, 10513.0, 10510.0, 10514.0, 10519.0, 10508.0, 10509.0, 10517.0, 10518.0, 10525.0, 10521.0, 10523.0, 10531.0, 10535.0, 10532.0, 10532.0, 10538.0, 10536.0, 10526.0, 10513.0, 10521.0, 10523.0, 10514.0, 10510.0, 10516.0, 10519.0, 10512.0, 10509.0, 10515.0, 10514.0, 10510.0, 10508.0, 10520.0, 10515.0, 10501.0, 10500.0, 10501.0, 10496.0, 10499.0, 10500.0, 10504.0, 10505.0, 10507.0, 10503.0, 10502.0, 10499.0, 10505.0, 10513.0, 10511.0, 10510.0, 10521.0, 10535.0, 10535.0, 10532.0, 10540.0, 10540.0, 10537.0, 10526.0, 10520.0, 10521.0, 10511.0, 10509.0, 10510.0, 10518.0, 10511.0, 10510.0, 10522.0, 10519.0, 10510.0, 10517.0, 10516.0, 10518.0, 10503.0, 10502.0, 10509.0, 10516.0, 10516.0, 10506.0, 10518.0, 10536.0, 10524.0, 10517.0, 10520.0, 10519.0, 10516.0, 10503.0, 10514.0, 10515.0, 10518.0, 10513.0, 10510.0, 10517.0, 10522.0, 10528.0, 10520.0, 10510.0, 10509.0, 10510.0, 10516.0, 10510.0, 10501.0, 10504.0, 10516.0, 10497.0, 10506.0, 10518.0, 10507.0, 10511.0, 10512.0, 10516.0, 10516.0, 10507.0, 10500.0, 10499.0, 10493.0, 10490.0, 10498.0, 10513.0, 10505.0, 10509.0, 10515.0, 10523.0, 10511.0, 10519.0, 10523.0, 10509.0, 10502.0, 10507.0, 10513.0, 10510.0, 10509.0, 10513.0, 10515.0, 10513.0, 10497.0, 10500.0, 10508.0, 10505.0, 10508.0, 10507.0, 10513.0, 10511.0, 10508.0, 10502.0, 10515.0, 10509.0, 10509.0, 10501.0, 10507.0, 10509.0, 10509.0, 10497.0, 10500.0, 10507.0, 10515.0, 10511.0, 10518.0, 10525.0, 10514.0, 10515.0, 10518.0, 10510.0, 10503.0, 10508.0, 10504.0, 10501.0, 10501.0, 10505.0, 10513.0, 10501.0, 10503.0, 10502.0, 10502.0, 10493.0, 10499.0, 10500.0, 10490.0, 10493.0, 10496.0, 10489.0, 10499.0, 10502.0, 10506.0, 10497.0, 10498.0, 10502.0, 10495.0, 10495.0, 10496.0, 10496.0, 10505.0, 10508.0, 10507.0, 10519.0, 10525.0, 10525.0, 10530.0, 10539.0, 10524.0, 10527.0, 10532.0, 10524.0, 10515.0, 10514.0, 10511.0, 10500.0, 10499.0, 10503.0, 10518.0, 10515.0, 10514.0, 10518.0, 10518.0, 10516.0, 10511.0, 10516.0, 10517.0, 10511.0, 10503.0, 10510.0, 10506.0, 10503.0, 10502.0, 10510.0, 10504.0, 10509.0, 10518.0, 10511.0, 10519.0, 10525.0, 10520.0, 10519.0, 10514.0, 10512.0, 10503.0, 10497.0, 10500.0, 10496.0, 10488.0, 10483.0, 10490.0, 10486.0, 10481.0, 10487.0, 10495.0, 10489.0, 10493.0, 10501.0, 10504.0, 10503.0, 10506.0, 10507.0, 10501.0, 10499.0, 10510.0, 10507.0, 10504.0, 10509.0, 10517.0, 10524.0, 10522.0, 10518.0, 10532.0, 10525.0, 10515.0, 10515.0, 10512.0, 10497.0, 10496.0, 10497.0, 10488.0, 10486.0, 10491.0, 10481.0, 10485.0, 10488.0, 10492.0, 10496.0, 10498.0, 10505.0, 10512.0, 10510.0, 10503.0, 10502.0, 10505.0, 10502.0, 10483.0, 10487.0, 10493.0, 10495.0, 10503.0],
