{
  "AcquisitionMatrixPE": 104,
  "AcquisitionNumber": 1,
  "AcquisitionTime": "10:58:55.017500",
  "BandwidthPerPixelPhaseEncode": 16.578,
  "BaseResolution": 104,
  "BodyPartExamined": "BRAIN",
  "ConsistencyInfo": "N4_VE11C_LATEST_20160120",
  "ConversionSoftware": "dcm2niix",
  "ConversionSoftwareVersion": "v1.0.20190902",
  "DerivedVendorReportedEchoSpacing": 0.000580009,
  "DeviceSerialNumber": "166018",
  "DwellTime": 2.1e-06,
  "EchoTime": 0.037,
  "EchoTrainLength": 104,
  "EffectiveEchoSpacing": 0.000580009,
  "FlipAngle": 68,
  "ImageComments": "Unaliased_MB6_PE3_LB",
  "ImageOrientationPatientDICOM": [0.998475, -0.00633985, 0.0548439, 0.0135936, 0.991033, -0.132921],
  "ImageType": [
    "ORIGINAL",
    "PRIMARY",
    "M",
    "MB",
    "ND",
    "MOSAIC"
],
  "ImagingFrequency": 123.191,
  "InPlanePhaseEncodingDirectionDICOM": "COL",
  "InstitutionAddress": "Washington_Place_6_NYC_NYC_US_10003",
  "InstitutionName": "NYU_Center_for_Brain_Imaging",
  "InstitutionalDepartmentName": "Department",
  "MRAcquisitionType": "2D",
  "MagneticFieldStrength": 3,
  "Manufacturer": "Siemens",
  "ManufacturersModelName": "Prisma",
  "Modality": "MR",
  "MultibandAccelerationFactor": 6,
  "PartialFourier": 1,
  "PatientPosition": "HFS",
  "PercentPhaseFOV": 100,
  "PhaseEncodingDirection": "j",
  "PhaseEncodingSteps": 104,
  "PhaseResolution": 1,
  "PixelBandwidth": 2290,
  "ProcedureStepDescription": "Investigators_Winawer",
  "ProtocolName": "cmrr_mbepi_s6_2mm_66sl_PA_task-prf",
  "PulseSequenceDetails": "%CustomerSeq%_cmrr_mbep2d_bold",
  "ReceiveCoilActiveElements": "HC1-7",
  "ReceiveCoilName": "HeadNeck_64",
  "ReconMatrixPE": 104,
  "RepetitionTime": 1,
  "SAR": 0.0718048,
  "ScanOptions": "FS",
  "ScanningSequence": "EP",
  "SequenceName": "epfid2d1_104",
  "SequenceVariant": "SK_SS",
  "SeriesDescription": "cmrr_mbepi_s6_2mm_66sl_PA_task-prf",
  "SeriesNumber": 16,
  "ShimSetting": [259, -12614, -8470, 435, -11, -79, 51, 3],
  "SliceThickness": 2,
  "SliceTiming": [0, 0.535, 0.09, 0.6225, 0.1775, 0.7125, 0.2675, 0.8025, 0.355, 0.89, 0.445, 0, 0.535, 0.09, 0.6225, 0.1775, 0.7125, 0.2675, 0.8025, 0.355, 0.89, 0.445, 0, 0.535, 0.09, 0.6225, 0.1775, 0.7125, 0.2675, 0.8025, 0.355, 0.89, 0.445, 0, 0.535, 0.09, 0.6225, 0.1775, 0.7125, 0.2675, 0.8025, 0.355, 0.89, 0.445, 0, 0.535, 0.09, 0.6225, 0.1775, 0.7125, 0.2675, 0.8025, 0.355, 0.89, 0.445, 0, 0.535, 0.09, 0.6225, 0.1775, 0.7125, 0.2675, 0.8025, 0.355, 0.89, 0.445],
  "SoftwareVersions": "syngo_MR_E11",
  "SpacingBetweenSlices": 2,
  "StationName": "AWP166018",
  "TaskName": "prf",
  "TotalReadoutTime": 0.0597409,
  "TxRefAmp": 216.462,
  "WipMemBlock": "e37f50f9-d318-4f5b-bb24-8f8430f39e93||Sequence: R016 ve11c/master r/8780670; Nov 27 2017 15:05:12 by eja",
  "dcmmeta_affine": [
    [-1.9969496726989746, 0.027187226340174675, 0.10701891034841537, 107.27790832519531],
    [0.0126796904951334, 1.9820669889450073, -0.26692667603492737, -79.51933288574219],
    [0.10968781262636185, 0.2658410668373108, 1.9792163372039795, -57.11471939086914],
    [0.0, 0.0, 0.0, 1.0]
],
  "dcmmeta_reorient_transform": [
    [0.0, -1.0, 0.0, 103.0],
    [1.0, 0.0, 0.0, 0.0],
    [0.0, 0.0, 1.0, 0.0],
    [0.0, 0.0, 0.0, 1.0]
],
  "dcmmeta_shape": [104, 104, 66, 192],
  "dcmmeta_slice_dim": 2,
  "dcmmeta_version": 0.6,
  "global": {
    "const": {
      "AccessionNumber": "k2dxucfk",
      "AcquisitionMatrix": [104, 0, 0, 104],
      "AngioFlag": "N",
      "BitsAllocated": 16,
      "BitsStored": 16,
      "BodyPartExamined": "BRAIN",
      "Columns": 936,
      "EchoNumbers": 1,
      "EchoTime": 37.0,
      "EchoTrainLength": 104,
      "FlipAngle": 68.0,
      "HighBit": 15,
      "ImageOrientationPatient": [0.99847481297245, -0.0063398454168, 0.05484390777219, 0.01359361346153, 0.99103347304183, -0.1329205363505],
      "ImagePositionPatient": [-952.11912052935, -943.89865926987, 35.226666487983],
      "ImageType": [
        "ORIGINAL",
        "PRIMARY",
        "M",
        "MB",
        "ND",
        "MOSAIC"
],
      "ImagedNucleus": "1H",
      "ImagingFrequency": 123.190748,
      "InPlanePhaseEncodingDirection": "COL",
      "MRAcquisitionType": "2D",
      "MagneticFieldStrength": 3.0,
      "Manufacturer": "SIEMENS",
      "ManufacturerModelName": "Prisma",
      "Modality": "MR",
      "NumberOfAverages": 1.0,
      "NumberOfPhaseEncodingSteps": 104,
      "PercentPhaseFieldOfView": 100.0,
      "PercentSampling": 100.0,
      "PerformedProcedureStepStartTime": "103139.611000",
      "PhotometricInterpretation": "MONOCHROME2",
      "PixelBandwidth": 2290.0,
      "PixelRepresentation": 0,
      "PixelSpacing": [2.0, 2.0],
      "ProtocolName": "cmrr_mbepi_s6_2mm_66sl_PA_task-prf",
      "RepetitionTime": 1000.0,
      "Rows": 936,
      "SAR": 0.07180482624182,
      "SamplesPerPixel": 1,
      "ScanOptions": "FS",
      "ScanningSequence": "EP",
      "SequenceName": "epfid2d1_104",
      "SequenceVariant": [
        "SK",
        "SS"
],
      "SeriesDescription": "cmrr_mbepi_s6_2mm_66sl_PA_task-prf",
      "SeriesNumber": 16,
      "SeriesTime": "110015.388000",
      "SliceLocation": -40.167893455524,
      "SliceThickness": 2.0,
      "SmallestImagePixelValue": 0,
      "SoftwareVersions": "syngo MR E11",
      "SpacingBetweenSlices": 2.0000000701151,
      "SpecificCharacterSet": "ISO_IR 100",
      "StudyID": "1",
      "StudyTime": "103139.487000",
      "TransmitCoilName": "Body",
      "VariableFlipAngleFlag": "N",
      "WindowCenterWidthExplanation": "Algo1",
      "dBdt": 0.0},
    "slices": {}
  },
  "time": {
    "samples": {
      "AcquisitionNumber": [1, 2, 3, 4, 5, 6, 7, 8, 9, 10, 11, 12, 13, 14, 15, 16, 17, 18, 19, 20, 21, 22, 23, 24, 25, 26, 27, 28, 29, 30, 31, 32, 33, 34, 35, 36, 37, 38, 39, 40, 41, 42, 43, 44, 45, 46, 47, 48, 49, 50, 51, 52, 53, 54, 55, 56, 57, 58, 59, 60, 61, 62, 63, 64, 65, 66, 67, 68, 69, 70, 71, 72, 73, 74, 75, 76, 77, 78, 79, 80, 81, 82, 83, 84, 85, 86, 87, 88, 89, 90, 91, 92, 93, 94, 95, 96, 97, 98, 99, 100, 101, 102, 103, 104, 105, 106, 107, 108, 109, 110, 111, 112, 113, 114, 115, 116, 117, 118, 119, 120, 121, 122, 123, 124, 125, 126, 127, 128, 129, 130, 131, 132, 133, 134, 135, 136, 137, 138, 139, 140, 141, 142, 143, 144, 145, 146, 147, 148, 149, 150, 151, 152, 153, 154, 155, 156, 157, 158, 159, 160, 161, 162, 163, 164, 165, 166, 167, 168, 169, 170, 171, 172, 173, 174, 175, 176, 177, 178, 179, 180, 181, 182, 183, 184, 185, 186, 187, 188, 189, 190, 191, 192],
      "AcquisitionTime": ["105855.017500", "105856.017500", "105857.017500", "105858.017500", "105859.017500", "105900.017500", "105901.017500", "105902.017500", "105903.017500", "105904.017500", "105905.017500", "105906.017500", "105907.017500", "105908.017500", "105909.017500", "105910.017500", "105911.017500", "105912.017500", "105913.017500", "105914.017500", "105915.017500", "105916.017500", "105917.017500", "105918.017500", "105919.017500", "105920.017500", "105921.017500", "105922.017500", "105923.017500", "105924.017500", "105925.017500", "105926.017500", "105927.017500", "105928.017500", "105929.017500", "105930.017500", "105931.017500", "105932.017500", "105933.017500", "105934.017500", "105935.017500", "105936.017500", "105937.017500", "105938.017500", "105939.017500", "105940.017500", "105941.017500", "105942.017500", "105943.017500", "105944.017500", "105945.017500", "105946.017500", "105947.017500", "105948.017500", "105949.017500", "105950.017500", "105951.017500", "105952.017500", "105953.017500", "105954.017500", "105955.017500", "105956.017500", "105957.017500", "105958.017500", "105959.017500", "110000.017500", "110001.017500", "110002.017500", "110003.017500", "110004.017500", "110005.017500", "110006.017500", "110007.017500", "110008.017500", "110009.017500", "110010.017500", "110011.017500", "110012.017500", "110013.017500", "110014.017500", "110015.017500", "110016.017500", "110017.017500", "110018.017500", "110019.017500", "110020.017500", "110021.017500", "110022.017500", "110023.017500", "110024.017500", "110025.017500", "110026.017500", "110027.017500", "110028.017500", "110029.017500", "110030.017500", "110031.017500", "110032.017500", "110033.017500", "110034.017500", "110035.017500", "110036.017500", "110037.017500", "110038.017500", "110039.017500", "110040.017500", "110041.017500", "110042.017500", "110043.017500", "110044.017500", "110045.017500", "110046.017500", "110047.017500", "110048.017500", "110049.017500", "110050.017500", "110051.017500", "110052.017500", "110053.017500", "110054.017500", "110055.017500", "110056.017500", "110057.017500", "110058.017500", "110059.017500", "110100.017500", "110101.017500", "110102.017500", "110103.017500", "110104.017500", "110105.017500", "110106.017500", "110107.017500", "110108.017500", "110109.017500", "110110.017500", "110111.017500", "110112.017500", "110113.017500", "110114.017500", "110115.017500", "110116.017500", "110117.017500", "110118.017500", "110119.017500", "110120.017500", "110121.017500", "110122.017500", "110123.017500", "110124.017500", "110125.017500", "110126.017500", "110127.017500", "110128.017500", "110129.017500", "110130.017500", "110131.017500", "110132.017500", "110133.017500", "110134.017500", "110135.017500", "110136.017500", "110137.017500", "110138.017500", "110139.017500", "110140.017500", "110141.017500", "110142.017500", "110143.017500", "110144.017500", "110145.017500", "110146.017500", "110147.017500", "110148.017500", "110149.017500", "110150.017500", "110151.017500", "110152.017500", "110153.017500", "110154.017500", "110155.017500", "110156.017500", "110157.017500", "110158.017500", "110159.017500", "110200.017500", "110201.017500", "110202.017500", "110203.017500", "110204.017500", "110205.017500", "110206.017500"],
      "ContentTime": ["110015.390000", "110015.394000", "110015.397000", "110015.399000", "110015.402000", "110015.413000", "110015.416000", "110015.419000", "110015.422000", "110015.425000", "110015.428000", "110015.431000", "110015.433000", "110015.436000", "110015.439000", "110015.442000", "110015.445000", "110015.448000", "110015.451000", "110015.454000", "110015.456000", "110015.459000", "110015.462000", "110015.465000", "110015.468000", "110015.471000", "110015.474000", "110015.479000", "110015.489000", "110015.492000", "110015.495000", "110015.498000", "110015.501000", "110015.503000", "110015.506000", "110015.509000", "110015.512000", "110035.343000", "110035.346000", "110035.349000", "110035.352000", "110035.355000", "110035.358000", "110035.361000", "110035.363000", "110035.366000", "110035.369000", "110035.372000", "110035.375000", "110035.378000", "110035.381000", "110035.384000", "110035.387000", "110035.390000", "110035.392000", "110035.395000", "110035.398000", "110035.401000", "110035.404000", "110035.407000", "110035.410000", "110035.412000", "110035.424000", "110035.426000", "110035.429000", "110055.342000", "110055.345000", "110055.348000", "110055.351000", "110055.354000", "110055.357000", "110055.360000", "110055.371000", "110055.373000", "110055.376000", "110055.379000", "110055.382000", "110055.385000", "110055.388000", "110055.391000", "110055.394000", "110055.397000", "110055.399000", "110055.402000", "110055.405000", "110055.408000", "110055.411000", "110055.414000", "110055.417000", "110055.420000", "110055.422000", "110055.425000", "110055.428000", "110115.343000", "110115.346000", "110115.349000", "110115.352000", "110115.355000", "110115.358000", "110115.360000", "110115.363000", "110115.366000", "110115.369000", "110115.372000", "110115.375000", "110115.378000", "110115.381000", "110115.384000", "110115.387000", "110115.390000", "110115.392000", "110115.395000", "110115.398000", "110115.401000", "110115.404000", "110115.407000", "110115.410000", "110115.413000", "110115.416000", "110115.418000", "110115.421000", "110135.343000", "110135.346000", "110135.349000", "110135.352000", "110135.354000", "110135.357000", "110135.360000", "110135.363000", "110135.366000", "110135.369000", "110135.372000", "110135.375000", "110135.378000", "110135.380000", "110135.383000", "110135.386000", "110135.389000", "110135.392000", "110135.395000", "110135.398000", "110135.401000", "110135.404000", "110135.407000", "110135.410000", "110135.413000", "110135.416000", "110135.418000", "110135.421000", "110155.343000", "110155.346000", "110155.349000", "110155.352000", "110155.355000", "110155.358000", "110155.360000", "110155.363000", "110155.366000", "110155.369000", "110155.372000", "110155.375000", "110155.378000", "110155.380000", "110155.399000", "110155.402000", "110155.405000", "110155.408000", "110155.411000", "110155.414000", "110155.417000", "110155.429000", "110155.432000", "110155.435000", "110155.438000", "110155.440000", "110155.443000", "110155.446000", "110207.544000", "110207.548000", "110207.551000", "110207.553000", "110207.556000", "110207.559000", "110207.563000", "110207.565000", "110207.568000", "110207.571000", "110207.574000", "110207.577000", "110207.580000", "110207.583000", "110207.586000"],
      "InstanceCreationTime": ["110015.390000", "110015.394000", "110015.397000", "110015.399000", "110015.402000", "110015.413000", "110015.416000", "110015.419000", "110015.422000", "110015.425000", "110015.428000", "110015.431000", "110015.433000", "110015.436000", "110015.439000", "110015.442000", "110015.445000", "110015.448000", "110015.451000", "110015.454000", "110015.456000", "110015.459000", "110015.462000", "110015.465000", "110015.468000", "110015.471000", "110015.474000", "110015.479000", "110015.489000", "110015.492000", "110015.495000", "110015.498000", "110015.501000", "110015.503000", "110015.506000", "110015.509000", "110015.512000", "110035.343000", "110035.346000", "110035.349000", "110035.352000", "110035.355000", "110035.358000", "110035.361000", "110035.363000", "110035.366000", "110035.369000", "110035.372000", "110035.375000", "110035.378000", "110035.381000", "110035.384000", "110035.387000", "110035.390000", "110035.392000", "110035.395000", "110035.398000", "110035.401000", "110035.404000", "110035.407000", "110035.410000", "110035.412000", "110035.424000", "110035.426000", "110035.429000", "110055.342000", "110055.345000", "110055.348000", "110055.351000", "110055.354000", "110055.357000", "110055.360000", "110055.371000", "110055.373000", "110055.376000", "110055.379000", "110055.382000", "110055.385000", "110055.388000", "110055.391000", "110055.394000", "110055.397000", "110055.399000", "110055.402000", "110055.405000", "110055.408000", "110055.411000", "110055.414000", "110055.417000", "110055.420000", "110055.422000", "110055.425000", "110055.428000", "110115.343000", "110115.346000", "110115.349000", "110115.352000", "110115.355000", "110115.358000", "110115.360000", "110115.363000", "110115.366000", "110115.369000", "110115.372000", "110115.375000", "110115.378000", "110115.381000", "110115.384000", "110115.387000", "110115.390000", "110115.392000", "110115.395000", "110115.398000", "110115.401000", "110115.404000", "110115.407000", "110115.410000", "110115.413000", "110115.416000", "110115.418000", "110115.421000", "110135.343000", "110135.346000", "110135.349000", "110135.352000", "110135.354000", "110135.357000", "110135.360000", "110135.363000", "110135.366000", "110135.369000", "110135.372000", "110135.375000", "110135.378000", "110135.380000", "110135.383000", "110135.386000", "110135.389000", "110135.392000", "110135.395000", "110135.398000", "110135.401000", "110135.404000", "110135.407000", "110135.410000", "110135.413000", "110135.416000", "110135.418000", "110135.421000", "110155.343000", "110155.346000", "110155.349000", "110155.352000", "110155.355000", "110155.358000", "110155.360000", "110155.363000", "110155.366000", "110155.369000", "110155.372000", "110155.375000", "110155.378000", "110155.380000", "110155.399000", "110155.402000", "110155.405000", "110155.408000", "110155.411000", "110155.414000", "110155.417000", "110155.429000", "110155.432000", "110155.435000", "110155.438000", "110155.440000", "110155.443000", "110155.446000", "110207.544000", "110207.548000", "110207.551000", "110207.553000", "110207.556000", "110207.559000", "110207.563000", "110207.565000", "110207.568000", "110207.571000", "110207.574000", "110207.577000", "110207.580000", "110207.583000", "110207.586000"],
      "InstanceNumber": [1, 2, 3, 4, 5, 6, 7, 8, 9, 10, 11, 12, 13, 14, 15, 16, 17, 18, 19, 20, 21, 22, 23, 24, 25, 26, 27, 28, 29, 30, 31, 32, 33, 34, 35, 36, 37, 38, 39, 40, 41, 42, 43, 44, 45, 46, 47, 48, 49, 50, 51, 52, 53, 54, 55, 56, 57, 58, 59, 60, 61, 62, 63, 64, 65, 66, 67, 68, 69, 70, 71, 72, 73, 74, 75, 76, 77, 78, 79, 80, 81, 82, 83, 84, 85, 86, 87, 88, 89, 90, 91, 92, 93, 94, 95, 96, 97, 98, 99, 100, 101, 102, 103, 104, 105, 106, 107, 108, 109, 110, 111, 112, 113, 114, 115, 116, 117, 118, 119, 120, 121, 122, 123, 124, 125, 126, 127, 128, 129, 130, 131, 132, 133, 134, 135, 136, 137, 138, 139, 140, 141, 142, 143, 144, 145, 146, 147, 148, 149, 150, 151, 152, 153, 154, 155, 156, 157, 158, 159, 160, 161, 162, 163, 164, 165, 166, 167, 168, 169, 170, 171, 172, 173, 174, 175, 176, 177, 178, 179, 180, 181, 182, 183, 184, 185, 186, 187, 188, 189, 190, 191, 192],
      "LargestImagePixelValue": [37560, 36708, 36272, 35035, 35019, 35127, 34474, 34463, 34495, 34751, 34643, 34777, 35019, 34923, 35302, 34648, 34572, 34880, 35097, 34671, 34880, 34855, 34610, 34720, 35182, 34762, 34744, 35017, 35080, 35054, 35058, 35092, 34528, 34861, 35098, 35357, 35011, 34637, 34868, 34966, 34882, 34925, 34776, 35819, 35204, 34863, 34947, 35129, 34615, 35050, 35102, 35069, 34512, 34456, 34956, 34937, 34806, 34838, 34436, 34836, 34936, 34633, 34898, 34822, 34813, 34484, 34714, 34641, 35157, 34842, 34591, 34767, 34067, 34328, 34558, 34688, 34644, 34938, 35126, 35014, 34991, 35000, 34979, 34931, 35324, 34632, 34803, 34675, 34806, 35139, 35234, 34931, 35085, 34749, 35098, 35267, 34893, 34947, 34829, 34735, 34663, 34687, 34923, 35198, 35035, 35277, 34449, 35005, 35016, 35170, 34930, 35541, 34431, 35159, 35293, 35014, 35241, 34853, 34785, 34926, 34789, 35034, 35170, 35198, 34937, 35383, 35491, 34672, 34556, 34722, 34968, 34791, 34832, 34917, 34450, 34915, 34845, 34678, 34950, 35020, 34962, 34971, 34667, 34927, 34737, 35120, 34947, 34831, 35079, 34653, 34539, 34621, 34895, 34522, 34817, 34757, 35198, 34852, 34763, 35041, 35036, 34530, 34678, 34307, 34503, 34476, 35004, 35077, 34946, 34836, 34588, 34612, 34813, 34654, 34905, 35132, 35093, 34528, 34573, 34733, 34660, 34940, 34920, 35035, 35152, 35142, 34955, 34867, 34561, 34595, 34698, 34950],
      "WindowCenter": [9753.0, 9706.0, 9679.0, 9652.0, 9658.0, 9665.0, 9659.0, 9659.0, 9651.0, 9656.0, 9657.0, 9663.0, 9664.0, 9666.0, 9679.0, 9670.0, 9677.0, 9676.0, 9681.0, 9661.0, 9656.0, 9640.0, 9639.0, 9653.0, 9662.0, 9656.0, 9654.0, 9639.0, 9643.0, 9643.0, 9635.0, 9626.0, 9612.0, 9617.0, 9624.0, 9625.0, 9627.0, 9638.0, 9659.0, 9671.0, 9673.0, 9681.0, 9681.0, 9683.0, 9668.0, 9655.0, 9662.0, 9680.0, 9683.0, 9688.0, 9672.0, 9664.0, 9651.0, 9641.0, 9644.0, 9637.0, 9636.0, 9636.0, 9636.0, 9635.0, 9642.0, 9645.0, 9661.0, 9678.0, 9690.0, 9695.0, 9694.0, 9678.0, 9662.0, 9642.0, 9648.0, 9656.0, 9644.0, 9642.0, 9646.0, 9654.0, 9662.0, 9662.0, 9659.0, 9645.0, 9652.0, 9659.0, 9653.0, 9655.0, 9668.0, 9663.0, 9656.0, 9650.0, 9653.0, 9660.0, 9651.0, 9637.0, 9632.0, 9627.0, 9641.0, 9643.0, 9636.0, 9613.0, 9602.0, 9606.0, 9602.0, 9617.0, 9633.0, 9635.0, 9627.0, 9624.0, 9609.0, 9608.0, 9614.0, 9622.0, 9624.0, 9638.0, 9631.0, 9636.0, 9627.0, 9606.0, 9608.0, 9599.0, 9606.0, 9605.0, 9614.0, 9624.0, 9632.0, 9641.0, 9650.0, 9655.0, 9654.0, 9636.0, 9637.0, 9651.0, 9651.0, 9638.0, 9629.0, 9628.0, 9622.0, 9635.0, 9636.0, 9632.0, 9639.0, 9645.0, 9646.0, 9648.0, 9643.0, 9656.0, 9663.0, 9663.0, 9666.0, 9674.0, 9691.0, 9686.0, 9694.0, 9695.0, 9685.0, 9671.0, 9683.0, 9683.0, 9690.0, 9684.0, 9677.0, 9674.0, 9661.0, 9659.0, 9659.0, 9659.0, 9657.0, 9648.0, 9662.0, 9667.0, 9666.0, 9672.0, 9666.0, 9659.0, 9656.0, 9656.0, 9655.0, 9663.0, 9663.0, 9649.0, 9641.0, 9646.0, 9631.0, 9631.0, 9630.0, 9639.0, 9654.0, 9654.0, 9640.0, 9623.0, 9617.0, 9623.0, 9613.0, 9611.0],
      "WindowWidth": [20879.0, 20756.0, 20686.0, 20628.0, 20639.0, 20649.0, 20636.0, 20632.0, 20616.0, 20625.0, 20629.0, 20641.0, 20643.0, 20648.0, 20677.0, 20663.0, 20678.0, 20675.0, 20682.0, 20642.0, 20625.0, 20590.0, 20586.0, 20615.0, 20635.0, 20624.0, 20616.0, 20584.0, 20587.0, 20586.0, 20569.0, 20548.0, 20523.0, 20530.0, 20544.0, 20549.0, 20559.0, 20585.0, 20629.0, 20658.0, 20663.0, 20680.0, 20678.0, 20673.0, 20644.0, 20620.0, 20635.0, 20676.0, 20687.0, 20694.0, 20660.0, 20638.0, 20616.0, 20593.0, 20593.0, 20577.0, 20575.0, 20574.0, 20576.0, 20572.0, 20585.0, 20596.0, 20631.0, 20670.0, 20699.0, 20718.0, 20715.0, 20686.0, 20641.0, 20600.0, 20610.0, 20627.0, 20605.0, 20596.0, 20600.0, 20617.0, 20636.0, 20637.0, 20625.0, 20598.0, 20612.0, 20627.0, 20614.0, 20620.0, 20646.0, 20641.0, 20627.0, 20616.0, 20616.0, 20631.0, 20606.0, 20577.0, 20562.0, 20553.0, 20581.0, 20588.0, 20573.0, 20524.0, 20497.0, 20502.0, 20501.0, 20532.0, 20567.0, 20573.0, 20556.0, 20544.0, 20516.0, 20512.0, 20524.0, 20544.0, 20550.0, 20579.0, 20573.0, 20579.0, 20559.0, 20515.0, 20515.0, 20496.0, 20509.0, 20503.0, 20524.0, 20547.0, 20563.0, 20585.0, 20607.0, 20614.0, 20611.0, 20577.0, 20581.0, 20607.0, 20608.0, 20580.0, 20560.0, 20559.0, 20548.0, 20573.0, 20578.0, 20574.0, 20587.0, 20597.0, 20598.0, 20603.0, 20598.0, 20623.0, 20636.0, 20637.0, 20644.0, 20665.0, 20705.0, 20697.0, 20712.0, 20713.0, 20692.0, 20662.0, 20683.0, 20682.0, 20699.0, 20689.0, 20675.0, 20665.0, 20641.0, 20633.0, 20633.0, 20635.0, 20626.0, 20604.0, 20630.0, 20641.0, 20643.0, 20654.0, 20645.0, 20628.0, 20622.0, 20620.0, 20619.0, 20635.0, 20634.0, 20607.0, 20589.0, 20597.0, 20564.0, 20563.0, 20562.0, 20582.0, 20618.0, 20617.0, 20586.0, 20547.0, 20537.0, 20548.0, 20524.0, 20515.0]
    },
    "slices": {}
  },
  "NumberOfVolumes": 192
}