{
  "AcquisitionMatrixPE": 104,
  "AcquisitionNumber": 1,
  "AcquisitionTime": "10:50:4.402500",
  "BandwidthPerPixelPhaseEncode": 16.578,
  "BaseResolution": 104,
  "BodyPartExamined": "BRAIN",
  "ConsistencyInfo": "N4_VE11C_LATEST_20160120",
  "ConversionSoftware": "dcm2niix",
  "ConversionSoftwareVersion": "v1.0.20190902",
  "DerivedVendorReportedEchoSpacing": 0.000580009,
  "DeviceSerialNumber": "166018",
  "DwellTime": 2.1e-06,
  "EchoTime": 0.037,
  "EchoTrainLength": 104,
  "EffectiveEchoSpacing": 0.000580009,
  "FlipAngle": 68,
  "ImageComments": "Unaliased_MB6_PE3_LB",
  "ImageOrientationPatientDICOM": [0.998475, -0.00633985, 0.0548439, 0.0135936, 0.991033, -0.132921],
  "ImageType": [
    "ORIGINAL",
    "PRIMARY",
    "M",
    "MB",
    "ND",
    "MOSAIC"
],
  "ImagingFrequency": 123.191,
  "InPlanePhaseEncodingDirectionDICOM": "COL",
  "InstitutionAddress": "Washington_Place_6_NYC_NYC_US_10003",
  "InstitutionName": "NYU_Center_for_Brain_Imaging",
  "InstitutionalDepartmentName": "Department",
  "MRAcquisitionType": "2D",
  "MagneticFieldStrength": 3,
  "Manufacturer": "Siemens",
  "ManufacturersModelName": "Prisma",
  "Modality": "MR",
  "MultibandAccelerationFactor": 6,
  "PartialFourier": 1,
  "PatientPosition": "HFS",
  "PercentPhaseFOV": 100,
  "PhaseEncodingDirection": "j",
  "PhaseEncodingSteps": 104,
  "PhaseResolution": 1,
  "PixelBandwidth": 2290,
  "ProcedureStepDescription": "Investigators_Winawer",
  "ProtocolName": "cmrr_mbepi_s6_2mm_66sl_PA_task-prf",
  "PulseSequenceDetails": "%CustomerSeq%_cmrr_mbep2d_bold",
  "ReceiveCoilActiveElements": "HC1-7",
  "ReceiveCoilName": "HeadNeck_64",
  "ReconMatrixPE": 104,
  "RepetitionTime": 1,
  "SAR": 0.0718048,
  "ScanOptions": "FS",
  "ScanningSequence": "EP",
  "SequenceName": "epfid2d1_104",
  "SequenceVariant": "SK_SS",
  "SeriesDescription": "cmrr_mbepi_s6_2mm_66sl_PA_task-prf",
  "SeriesNumber": 12,
  "ShimSetting": [259, -12614, -8470, 435, -11, -79, 51, 3],
  "SliceThickness": 2,
  "SliceTiming": [0, 0.535, 0.09, 0.6225, 0.1775, 0.7125, 0.2675, 0.8025, 0.3575, 0.89, 0.445, 0, 0.535, 0.09, 0.6225, 0.1775, 0.7125, 0.2675, 0.8025, 0.3575, 0.89, 0.445, 0, 0.535, 0.09, 0.6225, 0.1775, 0.7125, 0.2675, 0.8025, 0.3575, 0.89, 0.445, 0, 0.535, 0.09, 0.6225, 0.1775, 0.7125, 0.2675, 0.8025, 0.3575, 0.89, 0.445, 0, 0.535, 0.09, 0.6225, 0.1775, 0.7125, 0.2675, 0.8025, 0.3575, 0.89, 0.445, 0, 0.535, 0.09, 0.6225, 0.1775, 0.7125, 0.2675, 0.8025, 0.3575, 0.89, 0.445],
  "SoftwareVersions": "syngo_MR_E11",
  "SpacingBetweenSlices": 2,
  "StationName": "AWP166018",
  "TaskName": "prf",
  "TotalReadoutTime": 0.0597409,
  "TxRefAmp": 216.462,
  "WipMemBlock": "6797328d-e3ec-4130-ae22-7896148e9df5||Sequence: R016 ve11c/master r/8780670; Nov 27 2017 15:05:12 by eja",
  "dcmmeta_affine": [
    [-1.9969496726989746, 0.027187226340174675, 0.10701891034841537, 107.27790832519531],
    [0.0126796904951334, 1.9820669889450073, -0.26692667603492737, -79.51933288574219],
    [0.10968781262636185, 0.2658410668373108, 1.9792163372039795, -57.11471939086914],
    [0.0, 0.0, 0.0, 1.0]
],
  "dcmmeta_reorient_transform": [
    [0.0, -1.0, 0.0, 103.0],
    [1.0, 0.0, 0.0, 0.0],
    [0.0, 0.0, 1.0, 0.0],
    [0.0, 0.0, 0.0, 1.0]
],
  "dcmmeta_shape": [104, 104, 66, 192],
  "dcmmeta_slice_dim": 2,
  "dcmmeta_version": 0.6,
  "global": {
    "const": {
      "AccessionNumber": "k2dxucfk",
      "AcquisitionMatrix": [104, 0, 0, 104],
      "AngioFlag": "N",
      "BitsAllocated": 16,
      "BitsStored": 16,
      "BodyPartExamined": "BRAIN",
      "Columns": 936,
      "EchoNumbers": 1,
      "EchoTime": 37.0,
      "EchoTrainLength": 104,
      "FlipAngle": 68.0,
      "HighBit": 15,
      "ImageOrientationPatient": [0.99847481297245, -0.0063398454168, 0.05484390777219, 0.01359361346153, 0.99103347304183, -0.1329205363505],
      "ImagePositionPatient": [-952.11912052935, -943.89865926987, 35.226666487983],
      "ImageType": [
        "ORIGINAL",
        "PRIMARY",
        "M",
        "MB",
        "ND",
        "MOSAIC"
],
      "ImagedNucleus": "1H",
      "ImagingFrequency": 123.190743,
      "InPlanePhaseEncodingDirection": "COL",
      "MRAcquisitionType": "2D",
      "MagneticFieldStrength": 3.0,
      "Manufacturer": "SIEMENS",
      "ManufacturerModelName": "Prisma",
      "Modality": "MR",
      "NumberOfAverages": 1.0,
      "NumberOfPhaseEncodingSteps": 104,
      "PercentPhaseFieldOfView": 100.0,
      "PercentSampling": 100.0,
      "PerformedProcedureStepStartTime": "103139.611000",
      "PhotometricInterpretation": "MONOCHROME2",
      "PixelBandwidth": 2290.0,
      "PixelRepresentation": 0,
      "PixelSpacing": [2.0, 2.0],
      "ProtocolName": "cmrr_mbepi_s6_2mm_66sl_PA_task-prf",
      "RepetitionTime": 1000.0,
      "Rows": 936,
      "SAR": 0.07180482624182,
      "SamplesPerPixel": 1,
      "ScanOptions": "FS",
      "ScanningSequence": "EP",
      "SequenceName": "epfid2d1_104",
      "SequenceVariant": [
        "SK",
        "SS"
],
      "SeriesDescription": "cmrr_mbepi_s6_2mm_66sl_PA_task-prf",
      "SeriesNumber": 12,
      "SeriesTime": "105115.236000",
      "SliceLocation": -40.167893455524,
      "SliceThickness": 2.0,
      "SmallestImagePixelValue": 0,
      "SoftwareVersions": "syngo MR E11",
      "SpacingBetweenSlices": 2.0000000701151,
      "SpecificCharacterSet": "ISO_IR 100",
      "StudyID": "1",
      "StudyTime": "103139.487000",
      "TransmitCoilName": "Body",
      "VariableFlipAngleFlag": "N",
      "WindowCenterWidthExplanation": "Algo1",
      "dBdt": 0.0},
    "slices": {}
  },
  "time": {
    "samples": {
      "AcquisitionNumber": [1, 2, 3, 4, 5, 6, 7, 8, 9, 10, 11, 12, 13, 14, 15, 16, 17, 18, 19, 20, 21, 22, 23, 24, 25, 26, 27, 28, 29, 30, 31, 32, 33, 34, 35, 36, 37, 38, 39, 40, 41, 42, 43, 44, 45, 46, 47, 48, 49, 50, 51, 52, 53, 54, 55, 56, 57, 58, 59, 60, 61, 62, 63, 64, 65, 66, 67, 68, 69, 70, 71, 72, 73, 74, 75, 76, 77, 78, 79, 80, 81, 82, 83, 84, 85, 86, 87, 88, 89, 90, 91, 92, 93, 94, 95, 96, 97, 98, 99, 100, 101, 102, 103, 104, 105, 106, 107, 108, 109, 110, 111, 112, 113, 114, 115, 116, 117, 118, 119, 120, 121, 122, 123, 124, 125, 126, 127, 128, 129, 130, 131, 132, 133, 134, 135, 136, 137, 138, 139, 140, 141, 142, 143, 144, 145, 146, 147, 148, 149, 150, 151, 152, 153, 154, 155, 156, 157, 158, 159, 160, 161, 162, 163, 164, 165, 166, 167, 168, 169, 170, 171, 172, 173, 174, 175, 176, 177, 178, 179, 180, 181, 182, 183, 184, 185, 186, 187, 188, 189, 190, 191, 192],
      "AcquisitionTime": ["105004.402500", "105005.402500", "105006.402500", "105007.402500", "105008.402500", "105009.402500", "105010.402500", "105011.402500", "105012.402500", "105013.402500", "105014.402500", "105015.402500", "105016.402500", "105017.402500", "105018.402500", "105019.402500", "105020.402500", "105021.402500", "105022.402500", "105023.402500", "105024.402500", "105025.402500", "105026.402500", "105027.402500", "105028.402500", "105029.402500", "105030.402500", "105031.402500", "105032.402500", "105033.402500", "105034.402500", "105035.402500", "105036.402500", "105037.402500", "105038.402500", "105039.402500", "105040.402500", "105041.402500", "105042.402500", "105043.402500", "105044.402500", "105045.402500", "105046.402500", "105047.402500", "105048.402500", "105049.402500", "105050.402500", "105051.402500", "105052.402500", "105053.402500", "105054.402500", "105055.402500", "105056.402500", "105057.402500", "105058.402500", "105059.402500", "105100.402500", "105101.402500", "105102.402500", "105103.402500", "105104.402500", "105105.402500", "105106.402500", "105107.402500", "105108.402500", "105109.402500", "105110.402500", "105111.402500", "105112.402500", "105113.402500", "105114.402500", "105115.402500", "105116.402500", "105117.402500", "105118.402500", "105119.402500", "105120.402500", "105121.402500", "105122.402500", "105123.402500", "105124.402500", "105125.402500", "105126.402500", "105127.402500", "105128.402500", "105129.402500", "105130.402500", "105131.402500", "105132.402500", "105133.402500", "105134.402500", "105135.402500", "105136.402500", "105137.402500", "105138.402500", "105139.402500", "105140.402500", "105141.402500", "105142.402500", "105143.402500", "105144.402500", "105145.402500", "105146.402500", "105147.402500", "105148.402500", "105149.402500", "105150.402500", "105151.402500", "105152.402500", "105153.402500", "105154.402500", "105155.402500", "105156.402500", "105157.402500", "105158.402500", "105159.402500", "105200.402500", "105201.402500", "105202.402500", "105203.402500", "105204.402500", "105205.402500", "105206.402500", "105207.402500", "105208.402500", "105209.402500", "105210.402500", "105211.402500", "105212.402500", "105213.402500", "105214.402500", "105215.402500", "105216.402500", "105217.402500", "105218.402500", "105219.402500", "105220.402500", "105221.402500", "105222.402500", "105223.402500", "105224.402500", "105225.402500", "105226.402500", "105227.402500", "105228.402500", "105229.402500", "105230.402500", "105231.402500", "105232.402500", "105233.402500", "105234.402500", "105235.402500", "105236.402500", "105237.402500", "105238.402500", "105239.402500", "105240.402500", "105241.402500", "105242.402500", "105243.402500", "105244.402500", "105245.402500", "105246.402500", "105247.402500", "105248.402500", "105249.402500", "105250.402500", "105251.402500", "105252.402500", "105253.402500", "105254.402500", "105255.402500", "105256.402500", "105257.402500", "105258.402500", "105259.402500", "105300.402500", "105301.402500", "105302.402500", "105303.402500", "105304.402500", "105305.402500", "105306.402500", "105307.402500", "105308.402500", "105309.402500", "105310.402500", "105311.402500", "105312.402500", "105313.402500", "105314.402500", "105315.402500"],
      "ContentTime": ["105115.239000", "105115.242000", "105115.245000", "105115.248000", "105115.251000", "105115.254000", "105115.257000", "105115.260000", "105115.263000", "105115.266000", "105115.269000", "105115.280000", "105115.283000", "105115.286000", "105115.288000", "105115.300000", "105115.303000", "105115.306000", "105115.308000", "105115.311000", "105115.314000", "105115.317000", "105115.320000", "105135.203000", "105135.206000", "105135.209000", "105135.212000", "105135.215000", "105135.218000", "105135.220000", "105135.223000", "105135.226000", "105135.229000", "105135.232000", "105135.235000", "105135.238000", "105135.241000", "105135.244000", "105135.247000", "105135.250000", "105135.253000", "105135.256000", "105135.258000", "105135.261000", "105135.264000", "105135.267000", "105135.270000", "105135.283000", "105135.286000", "105135.288000", "105135.296000", "105155.204000", "105155.207000", "105155.210000", "105155.213000", "105155.216000", "105155.218000", "105155.221000", "105155.224000", "105155.227000", "105155.230000", "105155.233000", "105155.236000", "105155.239000", "105155.242000", "105155.245000", "105155.248000", "105155.250000", "105155.253000", "105155.256000", "105155.259000", "105155.262000", "105155.265000", "105155.268000", "105155.271000", "105155.274000", "105155.277000", "105155.279000", "105155.282000", "105215.204000", "105215.207000", "105215.210000", "105215.213000", "105215.216000", "105215.218000", "105215.221000", "105215.224000", "105215.227000", "105215.230000", "105215.233000", "105215.236000", "105215.239000", "105215.242000", "105215.245000", "105215.247000", "105215.250000", "105215.253000", "105215.256000", "105215.259000", "105215.262000", "105215.265000", "105215.268000", "105215.271000", "105215.274000", "105215.277000", "105215.279000", "105215.282000", "105235.204000", "105235.207000", "105235.210000", "105235.213000", "105235.215000", "105235.218000", "105235.221000", "105235.224000", "105235.227000", "105235.230000", "105235.233000", "105235.236000", "105235.239000", "105235.253000", "105235.255000", "105235.258000", "105235.261000", "105235.264000", "105235.267000", "105235.270000", "105235.273000", "105235.276000", "105235.279000", "105235.281000", "105235.284000", "105235.287000", "105235.290000", "105235.293000", "105255.204000", "105255.207000", "105255.210000", "105255.212000", "105255.215000", "105255.218000", "105255.221000", "105255.224000", "105255.227000", "105255.230000", "105255.233000", "105255.236000", "105255.240000", "105255.243000", "105255.246000", "105255.248000", "105255.251000", "105255.254000", "105255.257000", "105255.260000", "105255.263000", "105255.266000", "105255.269000", "105255.272000", "105255.275000", "105255.278000", "105255.280000", "105255.283000", "105315.204000", "105315.207000", "105315.210000", "105315.213000", "105315.216000", "105315.218000", "105315.221000", "105315.224000", "105315.227000", "105315.230000", "105315.233000", "105315.236000", "105315.239000", "105315.241000", "105315.244000", "105315.247000", "105315.250000", "105315.253000", "105315.256000", "105315.259000", "105315.262000", "105315.265000", "105315.268000", "105315.271000", "105315.274000", "105315.276000", "105315.279000", "105316.917000", "105316.920000"],
      "InstanceCreationTime": ["105115.239000", "105115.242000", "105115.245000", "105115.248000", "105115.251000", "105115.254000", "105115.257000", "105115.260000", "105115.263000", "105115.266000", "105115.269000", "105115.280000", "105115.283000", "105115.286000", "105115.288000", "105115.300000", "105115.303000", "105115.306000", "105115.308000", "105115.311000", "105115.314000", "105115.317000", "105115.320000", "105135.203000", "105135.206000", "105135.209000", "105135.212000", "105135.215000", "105135.218000", "105135.220000", "105135.223000", "105135.226000", "105135.229000", "105135.232000", "105135.235000", "105135.238000", "105135.241000", "105135.244000", "105135.247000", "105135.250000", "105135.253000", "105135.256000", "105135.258000", "105135.261000", "105135.264000", "105135.267000", "105135.270000", "105135.283000", "105135.286000", "105135.288000", "105135.296000", "105155.204000", "105155.207000", "105155.210000", "105155.213000", "105155.216000", "105155.218000", "105155.221000", "105155.224000", "105155.227000", "105155.230000", "105155.233000", "105155.236000", "105155.239000", "105155.242000", "105155.245000", "105155.248000", "105155.250000", "105155.253000", "105155.256000", "105155.259000", "105155.262000", "105155.265000", "105155.268000", "105155.271000", "105155.274000", "105155.277000", "105155.279000", "105155.282000", "105215.204000", "105215.207000", "105215.210000", "105215.213000", "105215.216000", "105215.218000", "105215.221000", "105215.224000", "105215.227000", "105215.230000", "105215.233000", "105215.236000", "105215.239000", "105215.242000", "105215.245000", "105215.247000", "105215.250000", "105215.253000", "105215.256000", "105215.259000", "105215.262000", "105215.265000", "105215.268000", "105215.271000", "105215.274000", "105215.277000", "105215.279000", "105215.282000", "105235.204000", "105235.207000", "105235.210000", "105235.213000", "105235.215000", "105235.218000", "105235.221000", "105235.224000", "105235.227000", "105235.230000", "105235.233000", "105235.236000", "105235.239000", "105235.253000", "105235.255000", "105235.258000", "105235.261000", "105235.264000", "105235.267000", "105235.270000", "105235.273000", "105235.276000", "105235.279000", "105235.281000", "105235.284000", "105235.287000", "105235.290000", "105235.293000", "105255.204000", "105255.207000", "105255.210000", "105255.212000", "105255.215000", "105255.218000", "105255.221000", "105255.224000", "105255.227000", "105255.230000", "105255.233000", "105255.236000", "105255.240000", "105255.243000", "105255.246000", "105255.248000", "105255.251000", "105255.254000", "105255.257000", "105255.260000", "105255.263000", "105255.266000", "105255.269000", "105255.272000", "105255.275000", "105255.278000", "105255.280000", "105255.283000", "105315.204000", "105315.207000", "105315.210000", "105315.213000", "105315.216000", "105315.218000", "105315.221000", "105315.224000", "105315.227000", "105315.230000", "105315.233000", "105315.236000", "105315.239000", "105315.241000", "105315.244000", "105315.247000", "105315.250000", "105315.253000", "105315.256000", "105315.259000", "105315.262000", "105315.265000", "105315.268000", "105315.271000", "105315.274000", "105315.276000", "105315.279000", "105316.917000", "105316.920000"],
      "InstanceNumber": [1, 2, 3, 4, 5, 6, 7, 8, 9, 10, 11, 12, 13, 14, 15, 16, 17, 18, 19, 20, 21, 22, 23, 24, 25, 26, 27, 28, 29, 30, 31, 32, 33, 34, 35, 36, 37, 38, 39, 40, 41, 42, 43, 44, 45, 46, 47, 48, 49, 50, 51, 52, 53, 54, 55, 56, 57, 58, 59, 60, 61, 62, 63, 64, 65, 66, 67, 68, 69, 70, 71, 72, 73, 74, 75, 76, 77, 78, 79, 80, 81, 82, 83, 84, 85, 86, 87, 88, 89, 90, 91, 92, 93, 94, 95, 96, 97, 98, 99, 100, 101, 102, 103, 104, 105, 106, 107, 108, 109, 110, 111, 112, 113, 114, 115, 116, 117, 118, 119, 120, 121, 122, 123, 124, 125, 126, 127, 128, 129, 130, 131, 132, 133, 134, 135, 136, 137, 138, 139, 140, 141, 142, 143, 144, 145, 146, 147, 148, 149, 150, 151, 152, 153, 154, 155, 156, 157, 158, 159, 160, 161, 162, 163, 164, 165, 166, 167, 168, 169, 170, 171, 172, 173, 174, 175, 176, 177, 178, 179, 180, 181, 182, 183, 184, 185, 186, 187, 188, 189, 190, 191, 192],
      "LargestImagePixelValue": [38100, 36479, 35766, 35458, 35158, 35436, 35198, 34829, 34990, 35100, 36265, 34638, 34932, 34723, 34691, 34613, 35064, 35000, 34688, 35160, 35197, 34493, 35081, 35198, 34975, 34915, 34909, 35073, 35098, 34873, 35232, 34804, 35158, 34768, 34887, 34806, 34830, 34669, 34925, 34828, 35051, 34899, 34878, 34757, 35106, 34940, 34583, 34757, 34813, 34454, 35039, 34917, 34665, 34789, 34607, 35342, 34740, 34666, 34861, 34713, 35013, 34708, 34804, 35028, 35047, 35216, 35224, 34698, 34522, 34882, 34823, 34638, 35088, 34721, 34631, 35129, 35285, 34955, 34945, 34972, 34850, 35057, 34962, 35106, 34985, 34774, 34767, 34856, 35008, 34764, 34683, 34938, 34998, 34995, 35246, 35094, 34888, 34833, 35110, 35148, 34869, 35006, 35096, 34988, 35264, 34969, 34702, 34732, 34707, 35203, 34899, 34738, 35045, 34562, 35049, 35494, 34818, 35038, 35024, 35123, 35428, 34846, 35116, 35218, 35224, 34791, 35000, 35114, 35088, 35191, 35711, 35352, 35497, 35157, 35309, 35348, 34950, 35287, 35121, 35306, 35553, 35107, 35160, 35092, 35220, 35173, 35359, 35202, 35131, 35092, 35054, 35090, 35466, 35457, 35314, 35419, 35486, 35393, 36132, 35172, 34909, 35324, 35283, 35255, 35237, 35394, 35233, 35017, 34925, 35175, 35120, 34679, 34978, 34666, 35505, 35394, 35078, 35035, 35377, 35607, 35817, 35063, 35552, 35313, 35674, 35830, 34979, 34984, 35364, 35392, 35448, 35842],
      "WindowCenter": [9744.0, 9704.0, 9687.0, 9686.0, 9686.0, 9692.0, 9693.0, 9680.0, 9678.0, 9677.0, 9693.0, 9658.0, 9655.0, 9653.0, 9639.0, 9637.0, 9651.0, 9654.0, 9654.0, 9660.0, 9665.0, 9647.0, 9659.0, 9666.0, 9662.0, 9662.0, 9660.0, 9674.0, 9675.0, 9670.0, 9670.0, 9663.0, 9669.0, 9672.0, 9679.0, 9676.0, 9662.0, 9662.0, 9671.0, 9680.0, 9696.0, 9690.0, 9683.0, 9675.0, 9663.0, 9648.0, 9638.0, 9649.0, 9651.0, 9645.0, 9644.0, 9643.0, 9639.0, 9651.0, 9644.0, 9648.0, 9643.0, 9645.0, 9645.0, 9638.0, 9650.0, 9651.0, 9651.0, 9645.0, 9644.0, 9652.0, 9653.0, 9640.0, 9639.0, 9637.0, 9644.0, 9637.0, 9641.0, 9629.0, 9628.0, 9642.0, 9644.0, 9638.0, 9630.0, 9629.0, 9635.0, 9643.0, 9645.0, 9645.0, 9646.0, 9644.0, 9646.0, 9662.0, 9664.0, 9667.0, 9660.0, 9665.0, 9673.0, 9666.0, 9670.0, 9662.0, 9655.0, 9654.0, 9661.0, 9670.0, 9665.0, 9664.0, 9662.0, 9655.0, 9653.0, 9639.0, 9625.0, 9636.0, 9632.0, 9650.0, 9654.0, 9655.0, 9661.0, 9656.0, 9664.0, 9676.0, 9671.0, 9674.0, 9674.0, 9672.0, 9676.0, 9664.0, 9684.0, 9687.0, 9689.0, 9674.0, 9665.0, 9669.0, 9667.0, 9661.0, 9660.0, 9645.0, 9643.0, 9637.0, 9645.0, 9659.0, 9655.0, 9662.0, 9663.0, 9657.0, 9661.0, 9654.0, 9652.0, 9653.0, 9652.0, 9645.0, 9642.0, 9637.0, 9645.0, 9653.0, 9654.0, 9654.0, 9659.0, 9668.0, 9663.0, 9669.0, 9668.0, 9661.0, 9674.0, 9670.0, 9658.0, 9662.0, 9662.0, 9662.0, 9671.0, 9685.0, 9680.0, 9674.0, 9674.0, 9680.0, 9679.0, 9665.0, 9664.0, 9666.0, 9685.0, 9686.0, 9673.0, 9666.0, 9670.0, 9663.0, 9659.0, 9640.0, 9644.0, 9640.0, 9660.0, 9667.0, 9649.0, 9648.0, 9651.0, 9651.0, 9652.0, 9665.0],
      "WindowWidth": [20850.0, 20746.0, 20701.0, 20694.0, 20689.0, 20699.0, 20702.0, 20678.0, 20669.0, 20666.0, 20693.0, 20631.0, 20622.0, 20615.0, 20588.0, 20581.0, 20609.0, 20618.0, 20619.0, 20628.0, 20636.0, 20602.0, 20623.0, 20639.0, 20634.0, 20631.0, 20627.0, 20653.0, 20659.0, 20651.0, 20651.0, 20639.0, 20652.0, 20661.0, 20673.0, 20666.0, 20637.0, 20637.0, 20656.0, 20679.0, 20712.0, 20701.0, 20684.0, 20667.0, 20636.0, 20602.0, 20577.0, 20600.0, 20605.0, 20597.0, 20592.0, 20588.0, 20586.0, 20606.0, 20593.0, 20596.0, 20587.0, 20593.0, 20594.0, 20579.0, 20602.0, 20607.0, 20606.0, 20596.0, 20593.0, 20611.0, 20616.0, 20592.0, 20584.0, 20580.0, 20590.0, 20577.0, 20580.0, 20558.0, 20557.0, 20587.0, 20593.0, 20581.0, 20565.0, 20562.0, 20572.0, 20591.0, 20597.0, 20598.0, 20600.0, 20595.0, 20604.0, 20638.0, 20645.0, 20654.0, 20638.0, 20648.0, 20662.0, 20648.0, 20651.0, 20634.0, 20617.0, 20614.0, 20631.0, 20650.0, 20643.0, 20637.0, 20630.0, 20617.0, 20611.0, 20582.0, 20555.0, 20577.0, 20571.0, 20605.0, 20618.0, 20620.0, 20632.0, 20625.0, 20641.0, 20662.0, 20658.0, 20665.0, 20664.0, 20657.0, 20661.0, 20637.0, 20678.0, 20689.0, 20693.0, 20660.0, 20641.0, 20644.0, 20639.0, 20626.0, 20622.0, 20594.0, 20586.0, 20576.0, 20596.0, 20626.0, 20620.0, 20634.0, 20637.0, 20624.0, 20627.0, 20613.0, 20608.0, 20609.0, 20607.0, 20589.0, 20579.0, 20573.0, 20592.0, 20613.0, 20618.0, 20617.0, 20626.0, 20644.0, 20635.0, 20645.0, 20641.0, 20629.0, 20656.0, 20652.0, 20633.0, 20637.0, 20636.0, 20639.0, 20658.0, 20685.0, 20677.0, 20664.0, 20666.0, 20675.0, 20670.0, 20642.0, 20638.0, 20647.0, 20684.0, 20686.0, 20663.0, 20646.0, 20650.0, 20632.0, 20621.0, 20585.0, 20594.0, 20590.0, 20627.0, 20641.0, 20609.0, 20605.0, 20607.0, 20606.0, 20609.0, 20633.0]
    },
    "slices": {}
  },
  "NumberOfVolumes": 192
}