{
  "AcquisitionMatrixPE": 104,
  "AcquisitionNumber": 1,
  "AcquisitionTime": "11:03:46.720000",
  "BandwidthPerPixelPhaseEncode": 16.578,
  "BaseResolution": 104,
  "BodyPartExamined": "BRAIN",
  "ConsistencyInfo": "N4_VE11C_LATEST_20160120",
  "ConversionSoftware": "dcm2niix",
  "ConversionSoftwareVersion": "v1.0.20190902",
  "DerivedVendorReportedEchoSpacing": 0.000580009,
  "DeviceSerialNumber": "166018",
  "DwellTime": 2.1e-06,
  "EchoTime": 0.037,
  "EchoTrainLength": 104,
  "EffectiveEchoSpacing": 0.000580009,
  "FlipAngle": 68,
  "ImageComments": "Unaliased_MB6_PE3_LB",
  "ImageOrientationPatientDICOM": [0.998475, -0.00633985, 0.0548439, 0.0135936, 0.991033, -0.132921],
  "ImageType": [
    "ORIGINAL",
    "PRIMARY",
    "M",
    "MB",
    "ND",
    "MOSAIC"
],
  "ImagingFrequency": 123.191,
  "InPlanePhaseEncodingDirectionDICOM": "COL",
  "InstitutionAddress": "Washington_Place_6_NYC_NYC_US_10003",
  "InstitutionName": "NYU_Center_for_Brain_Imaging",
  "InstitutionalDepartmentName": "Department",
  "MRAcquisitionType": "2D",
  "MagneticFieldStrength": 3,
  "Manufacturer": "Siemens",
  "ManufacturersModelName": "Prisma",
  "Modality": "MR",
  "MultibandAccelerationFactor": 6,
  "PartialFourier": 1,
  "PatientPosition": "HFS",
  "PercentPhaseFOV": 100,
  "PhaseEncodingDirection": "j",
  "PhaseEncodingSteps": 104,
  "PhaseResolution": 1,
  "PixelBandwidth": 2290,
  "ProcedureStepDescription": "Investigators_Winawer",
  "ProtocolName": "cmrr_mbepi_s6_2mm_66sl_PA_task-prf",
  "PulseSequenceDetails": "%CustomerSeq%_cmrr_mbep2d_bold",
  "ReceiveCoilActiveElements": "HC1-7",
  "ReceiveCoilName": "HeadNeck_64",
  "ReconMatrixPE": 104,
  "RepetitionTime": 1,
  "SAR": 0.0718048,
  "ScanOptions": "FS",
  "ScanningSequence": "EP",
  "SequenceName": "epfid2d1_104",
  "SequenceVariant": "SK_SS",
  "SeriesDescription": "cmrr_mbepi_s6_2mm_66sl_PA_task-prf",
  "SeriesNumber": 18,
  "ShimSetting": [259, -12614, -8470, 435, -11, -79, 51, 3],
  "SliceThickness": 2,
  "SliceTiming": [0, 0.535, 0.09, 0.625, 0.18, 0.7125, 0.2675, 0.8025, 0.3575, 0.8925, 0.445, 0, 0.535, 0.09, 0.625, 0.18, 0.7125, 0.2675, 0.8025, 0.3575, 0.8925, 0.445, 0, 0.535, 0.09, 0.625, 0.18, 0.7125, 0.2675, 0.8025, 0.3575, 0.8925, 0.445, 0, 0.535, 0.09, 0.625, 0.18, 0.7125, 0.2675, 0.8025, 0.3575, 0.8925, 0.445, 0, 0.535, 0.09, 0.625, 0.18, 0.7125, 0.2675, 0.8025, 0.3575, 0.8925, 0.445, 0, 0.535, 0.09, 0.625, 0.18, 0.7125, 0.2675, 0.8025, 0.3575, 0.8925, 0.445],
  "SoftwareVersions": "syngo_MR_E11",
  "SpacingBetweenSlices": 2,
  "StationName": "AWP166018",
  "TaskName": "prf",
  "TotalReadoutTime": 0.0597409,
  "TxRefAmp": 216.462,
  "WipMemBlock": "a411480a-227f-420d-9aa7-1e31cd7e46b5||Sequence: R016 ve11c/master r/8780670; Nov 27 2017 15:05:12 by eja",
  "dcmmeta_affine": [
    [-1.9969496726989746, 0.027187226340174675, 0.10701891034841537, 107.27790832519531],
    [0.0126796904951334, 1.9820669889450073, -0.26692667603492737, -79.51933288574219],
    [0.10968781262636185, 0.2658410668373108, 1.9792163372039795, -57.11471939086914],
    [0.0, 0.0, 0.0, 1.0]
],
  "dcmmeta_reorient_transform": [
    [0.0, -1.0, 0.0, 103.0],
    [1.0, 0.0, 0.0, 0.0],
    [0.0, 0.0, 1.0, 0.0],
    [0.0, 0.0, 0.0, 1.0]
],
  "dcmmeta_shape": [104, 104, 66, 192],
  "dcmmeta_slice_dim": 2,
  "dcmmeta_version": 0.6,
  "global": {
    "const": {
      "AccessionNumber": "k2dxucfk",
      "AcquisitionMatrix": [104, 0, 0, 104],
      "AngioFlag": "N",
      "BitsAllocated": 16,
      "BitsStored": 16,
      "BodyPartExamined": "BRAIN",
      "Columns": 936,
      "EchoNumbers": 1,
      "EchoTime": 37.0,
      "EchoTrainLength": 104,
      "FlipAngle": 68.0,
      "HighBit": 15,
      "ImageOrientationPatient": [0.99847481297245, -0.0063398454168, 0.05484390777219, 0.01359361346153, 0.99103347304183, -0.1329205363505],
      "ImagePositionPatient": [-952.11912052935, -943.89865926987, 35.226666487983],
      "ImageType": [
        "ORIGINAL",
        "PRIMARY",
        "M",
        "MB",
        "ND",
        "MOSAIC"
],
      "ImagedNucleus": "1H",
      "ImagingFrequency": 123.19075,
      "InPlanePhaseEncodingDirection": "COL",
      "MRAcquisitionType": "2D",
      "MagneticFieldStrength": 3.0,
      "Manufacturer": "SIEMENS",
      "ManufacturerModelName": "Prisma",
      "Modality": "MR",
      "NumberOfAverages": 1.0,
      "NumberOfPhaseEncodingSteps": 104,
      "PercentPhaseFieldOfView": 100.0,
      "PercentSampling": 100.0,
      "PerformedProcedureStepStartTime": "103139.611000",
      "PhotometricInterpretation": "MONOCHROME2",
      "PixelBandwidth": 2290.0,
      "PixelRepresentation": 0,
      "PixelSpacing": [2.0, 2.0],
      "ProtocolName": "cmrr_mbepi_s6_2mm_66sl_PA_task-prf",
      "RepetitionTime": 1000.0,
      "Rows": 936,
      "SAR": 0.07180482624182,
      "SamplesPerPixel": 1,
      "ScanOptions": "FS",
      "ScanningSequence": "EP",
      "SequenceName": "epfid2d1_104",
      "SequenceVariant": [
        "SK",
        "SS"
],
      "SeriesDescription": "cmrr_mbepi_s6_2mm_66sl_PA_task-prf",
      "SeriesNumber": 18,
      "SeriesTime": "110515.250000",
      "SliceLocation": -40.167893455524,
      "SliceThickness": 2.0,
      "SmallestImagePixelValue": 0,
      "SoftwareVersions": "syngo MR E11",
      "SpacingBetweenSlices": 2.0000000701151,
      "SpecificCharacterSet": "ISO_IR 100",
      "StudyID": "1",
      "StudyTime": "103139.487000",
      "TransmitCoilName": "Body",
      "VariableFlipAngleFlag": "N",
      "WindowCenterWidthExplanation": "Algo1",
      "dBdt": 0.0},
    "slices": {}
  },
  "time": {
    "samples": {
      "AcquisitionNumber": [1, 2, 3, 4, 5, 6, 7, 8, 9, 10, 11, 12, 13, 14, 15, 16, 17, 18, 19, 20, 21, 22, 23, 24, 25, 26, 27, 28, 29, 30, 31, 32, 33, 34, 35, 36, 37, 38, 39, 40, 41, 42, 43, 44, 45, 46, 47, 48, 49, 50, 51, 52, 53, 54, 55, 56, 57, 58, 59, 60, 61, 62, 63, 64, 65, 66, 67, 68, 69, 70, 71, 72, 73, 74, 75, 76, 77, 78, 79, 80, 81, 82, 83, 84, 85, 86, 87, 88, 89, 90, 91, 92, 93, 94, 95, 96, 97, 98, 99, 100, 101, 102, 103, 104, 105, 106, 107, 108, 109, 110, 111, 112, 113, 114, 115, 116, 117, 118, 119, 120, 121, 122, 123, 124, 125, 126, 127, 128, 129, 130, 131, 132, 133, 134, 135, 136, 137, 138, 139, 140, 141, 142, 143, 144, 145, 146, 147, 148, 149, 150, 151, 152, 153, 154, 155, 156, 157, 158, 159, 160, 161, 162, 163, 164, 165, 166, 167, 168, 169, 170, 171, 172, 173, 174, 175, 176, 177, 178, 179, 180, 181, 182, 183, 184, 185, 186, 187, 188, 189, 190, 191, 192],
      "AcquisitionTime": ["110346.720000", "110347.720000", "110348.720000", "110349.720000", "110350.720000", "110351.720000", "110352.720000", "110353.720000", "110354.720000", "110355.720000", "110356.720000", "110357.720000", "110358.720000", "110359.720000", "110400.720000", "110401.720000", "110402.720000", "110403.720000", "110404.720000", "110405.720000", "110406.720000", "110407.720000", "110408.720000", "110409.720000", "110410.720000", "110411.720000", "110412.720000", "110413.720000", "110414.720000", "110415.720000", "110416.720000", "110417.720000", "110418.720000", "110419.720000", "110420.720000", "110421.720000", "110422.720000", "110423.720000", "110424.720000", "110425.720000", "110426.720000", "110427.720000", "110428.720000", "110429.720000", "110430.720000", "110431.720000", "110432.720000", "110433.720000", "110434.720000", "110435.720000", "110436.720000", "110437.720000", "110438.720000", "110439.720000", "110440.720000", "110441.720000", "110442.720000", "110443.720000", "110444.720000", "110445.720000", "110446.720000", "110447.720000", "110448.720000", "110449.720000", "110450.720000", "110451.720000", "110452.720000", "110453.720000", "110454.720000", "110455.720000", "110456.720000", "110457.720000", "110458.720000", "110459.720000", "110500.720000", "110501.720000", "110502.720000", "110503.720000", "110504.720000", "110505.720000", "110506.720000", "110507.720000", "110508.720000", "110509.720000", "110510.720000", "110511.720000", "110512.720000", "110513.720000", "110514.720000", "110515.720000", "110516.720000", "110517.720000", "110518.720000", "110519.720000", "110520.720000", "110521.720000", "110522.720000", "110523.720000", "110524.720000", "110525.720000", "110526.720000", "110527.720000", "110528.720000", "110529.720000", "110530.720000", "110531.720000", "110532.720000", "110533.720000", "110534.720000", "110535.720000", "110536.720000", "110537.720000", "110538.720000", "110539.720000", "110540.720000", "110541.720000", "110542.720000", "110543.720000", "110544.720000", "110545.720000", "110546.720000", "110547.720000", "110548.720000", "110549.720000", "110550.720000", "110551.720000", "110552.720000", "110553.720000", "110554.720000", "110555.720000", "110556.720000", "110557.720000", "110558.720000", "110559.720000", "110600.720000", "110601.720000", "110602.720000", "110603.720000", "110604.720000", "110605.720000", "110606.720000", "110607.720000", "110608.720000", "110609.720000", "110610.720000", "110611.720000", "110612.720000", "110613.720000", "110614.720000", "110615.720000", "110616.720000", "110617.720000", "110618.720000", "110619.720000", "110620.720000", "110621.720000", "110622.720000", "110623.720000", "110624.720000", "110625.720000", "110626.720000", "110627.720000", "110628.720000", "110629.720000", "110630.720000", "110631.720000", "110632.720000", "110633.720000", "110634.720000", "110635.720000", "110636.720000", "110637.720000", "110638.720000", "110639.720000", "110640.720000", "110641.720000", "110642.720000", "110643.720000", "110644.720000", "110645.720000", "110646.720000", "110647.720000", "110648.720000", "110649.720000", "110650.720000", "110651.720000", "110652.720000", "110653.720000", "110654.720000", "110655.720000", "110656.720000", "110657.720000"],
      "ContentTime": ["110515.253000", "110515.256000", "110515.259000", "110515.262000", "110515.265000", "110515.268000", "110515.271000", "110515.275000", "110515.278000", "110515.281000", "110515.284000", "110515.287000", "110515.296000", "110515.298000", "110515.301000", "110515.304000", "110515.307000", "110515.310000", "110515.313000", "110515.316000", "110515.319000", "110515.321000", "110515.324000", "110515.327000", "110515.330000", "110515.333000", "110515.336000", "110515.339000", "110515.342000", "110515.345000", "110515.347000", "110515.350000", "110515.353000", "110515.356000", "110515.359000", "110515.362000", "110515.365000", "110515.367000", "110515.370000", "110515.373000", "110515.376000", "110515.379000", "110515.382000", "110515.385000", "110515.388000", "110515.390000", "110535.204000", "110535.207000", "110535.210000", "110535.213000", "110535.216000", "110535.219000", "110535.222000", "110535.224000", "110535.227000", "110535.230000", "110535.233000", "110535.236000", "110535.239000", "110535.242000", "110535.244000", "110535.247000", "110535.250000", "110535.253000", "110535.256000", "110535.259000", "110535.262000", "110535.265000", "110535.268000", "110535.271000", "110535.273000", "110535.276000", "110535.279000", "110535.282000", "110555.205000", "110555.208000", "110555.211000", "110555.214000", "110555.216000", "110555.219000", "110555.222000", "110555.225000", "110555.228000", "110555.231000", "110555.234000", "110555.237000", "110555.240000", "110555.243000", "110555.245000", "110555.248000", "110555.251000", "110555.254000", "110555.257000", "110555.260000", "110555.263000", "110555.266000", "110555.269000", "110555.272000", "110555.275000", "110555.277000", "110555.280000", "110555.283000", "110555.286000", "110615.205000", "110615.208000", "110615.211000", "110615.214000", "110615.217000", "110615.220000", "110615.223000", "110615.226000", "110615.229000", "110615.231000", "110615.234000", "110615.237000", "110615.240000", "110615.243000", "110615.246000", "110615.249000", "110615.252000", "110615.255000", "110615.258000", "110615.261000", "110615.272000", "110615.275000", "110615.278000", "110615.281000", "110615.284000", "110615.287000", "110615.289000", "110615.292000", "110635.205000", "110635.208000", "110635.211000", "110635.214000", "110635.217000", "110635.220000", "110635.222000", "110635.225000", "110635.228000", "110635.231000", "110635.234000", "110635.237000", "110635.240000", "110635.243000", "110635.246000", "110635.248000", "110635.251000", "110635.254000", "110635.257000", "110635.260000", "110635.263000", "110635.266000", "110635.269000", "110635.272000", "110635.275000", "110635.278000", "110635.281000", "110635.284000", "110655.205000", "110655.208000", "110655.211000", "110655.214000", "110655.217000", "110655.220000", "110655.223000", "110655.226000", "110655.229000", "110655.232000", "110655.234000", "110655.237000", "110655.240000", "110655.243000", "110655.246000", "110655.249000", "110655.252000", "110655.255000", "110655.271000", "110655.274000", "110655.277000", "110655.280000", "110655.283000", "110655.286000", "110655.289000", "110655.292000", "110655.295000", "110655.297000", "110659.392000", "110659.395000", "110659.398000", "110659.401000", "110659.404000"],
      "InstanceCreationTime": ["110515.253000", "110515.256000", "110515.259000", "110515.262000", "110515.265000", "110515.268000", "110515.271000", "110515.275000", "110515.278000", "110515.281000", "110515.284000", "110515.287000", "110515.296000", "110515.298000", "110515.301000", "110515.304000", "110515.307000", "110515.310000", "110515.313000", "110515.316000", "110515.319000", "110515.321000", "110515.324000", "110515.327000", "110515.330000", "110515.333000", "110515.336000", "110515.339000", "110515.342000", "110515.345000", "110515.347000", "110515.350000", "110515.353000", "110515.356000", "110515.359000", "110515.362000", "110515.365000", "110515.367000", "110515.370000", "110515.373000", "110515.376000", "110515.379000", "110515.382000", "110515.385000", "110515.388000", "110515.390000", "110535.204000", "110535.207000", "110535.210000", "110535.213000", "110535.216000", "110535.219000", "110535.222000", "110535.224000", "110535.227000", "110535.230000", "110535.233000", "110535.236000", "110535.239000", "110535.242000", "110535.244000", "110535.247000", "110535.250000", "110535.253000", "110535.256000", "110535.259000", "110535.262000", "110535.265000", "110535.268000", "110535.271000", "110535.273000", "110535.276000", "110535.279000", "110535.282000", "110555.205000", "110555.208000", "110555.211000", "110555.214000", "110555.216000", "110555.219000", "110555.222000", "110555.225000", "110555.228000", "110555.231000", "110555.234000", "110555.237000", "110555.240000", "110555.243000", "110555.245000", "110555.248000", "110555.251000", "110555.254000", "110555.257000", "110555.260000", "110555.263000", "110555.266000", "110555.269000", "110555.272000", "110555.275000", "110555.277000", "110555.280000", "110555.283000", "110555.286000", "110615.205000", "110615.208000", "110615.211000", "110615.214000", "110615.217000", "110615.220000", "110615.223000", "110615.226000", "110615.229000", "110615.231000", "110615.234000", "110615.237000", "110615.240000", "110615.243000", "110615.246000", "110615.249000", "110615.252000", "110615.255000", "110615.258000", "110615.261000", "110615.272000", "110615.275000", "110615.278000", "110615.281000", "110615.284000", "110615.287000", "110615.289000", "110615.292000", "110635.205000", "110635.208000", "110635.211000", "110635.214000", "110635.217000", "110635.220000", "110635.222000", "110635.225000", "110635.228000", "110635.231000", "110635.234000", "110635.237000", "110635.240000", "110635.243000", "110635.246000", "110635.248000", "110635.251000", "110635.254000", "110635.257000", "110635.260000", "110635.263000", "110635.266000", "110635.269000", "110635.272000", "110635.275000", "110635.278000", "110635.281000", "110635.284000", "110655.205000", "110655.208000", "110655.211000", "110655.214000", "110655.217000", "110655.220000", "110655.223000", "110655.226000", "110655.229000", "110655.232000", "110655.234000", "110655.237000", "110655.240000", "110655.243000", "110655.246000", "110655.249000", "110655.252000", "110655.255000", "110655.271000", "110655.274000", "110655.277000", "110655.280000", "110655.283000", "110655.286000", "110655.289000", "110655.292000", "110655.295000", "110655.297000", "110659.392000", "110659.395000", "110659.398000", "110659.401000", "110659.404000"],
      "InstanceNumber": [1, 2, 3, 4, 5, 6, 7, 8, 9, 10, 11, 12, 13, 14, 15, 16, 17, 18, 19, 20, 21, 22, 23, 24, 25, 26, 27, 28, 29, 30, 31, 32, 33, 34, 35, 36, 37, 38, 39, 40, 41, 42, 43, 44, 45, 46, 47, 48, 49, 50, 51, 52, 53, 54, 55, 56, 57, 58, 59, 60, 61, 62, 63, 64, 65, 66, 67, 68, 69, 70, 71, 72, 73, 74, 75, 76, 77, 78, 79, 80, 81, 82, 83, 84, 85, 86, 87, 88, 89, 90, 91, 92, 93, 94, 95, 96, 97, 98, 99, 100, 101, 102, 103, 104, 105, 106, 107, 108, 109, 110, 111, 112, 113, 114, 115, 116, 117, 118, 119, 120, 121, 122, 123, 124, 125, 126, 127, 128, 129, 130, 131, 132, 133, 134, 135, 136, 137, 138, 139, 140, 141, 142, 143, 144, 145, 146, 147, 148, 149, 150, 151, 152, 153, 154, 155, 156, 157, 158, 159, 160, 161, 162, 163, 164, 165, 166, 167, 168, 169, 170, 171, 172, 173, 174, 175, 176, 177, 178, 179, 180, 181, 182, 183, 184, 185, 186, 187, 188, 189, 190, 191, 192],
      "LargestImagePixelValue": [37358, 36058, 35559, 35146, 34742, 35074, 34458, 34893, 34818, 34200, 34587, 34538, 35027, 35008, 34337, 34814, 34675, 34843, 34781, 34900, 34665, 34838, 34881, 34466, 34591, 34721, 34526, 35063, 34573, 35038, 34890, 34698, 34637, 34744, 35041, 34723, 34264, 34660, 34210, 34923, 34838, 34738, 34730, 34774, 34930, 34824, 34661, 34832, 34985, 34637, 34880, 34617, 34614, 34840, 34395, 34725, 35166, 34846, 34582, 34355, 34557, 34238, 34497, 34598, 34594, 34693, 34615, 34564, 34764, 34985, 34728, 34720, 34879, 34857, 34871, 34580, 34606, 34581, 34746, 35015, 34947, 34696, 34841, 34820, 34461, 35204, 34601, 34666, 34895, 34666, 35002, 34915, 35228, 34564, 34855, 34863, 34932, 34430, 34190, 34417, 34206, 34834, 34980, 34533, 34457, 35095, 34698, 34523, 34298, 34584, 34694, 34487, 34910, 34537, 34216, 34421, 34530, 34289, 34631, 34226, 34111, 34521, 34403, 34588, 34651, 34456, 34710, 34884, 34611, 35137, 34765, 34739, 34860, 34747, 34196, 34439, 34635, 34758, 34404, 34170, 34321, 34491, 34985, 34878, 34604, 34854, 34947, 34527, 34688, 34520, 34428, 34424, 34433, 34877, 34969, 35057, 34823, 34775, 34088, 34513, 34879, 34489, 34648, 34583, 34551, 34680, 34653, 34747, 34301, 34540, 34570, 34555, 33941, 34460, 34640, 34101, 34583, 34574, 34288, 34168, 34016, 33847, 33775, 33775, 33946, 34115, 34161, 34291, 33941, 34113, 34176, 34093],
      "WindowCenter": [9737.0, 9692.0, 9667.0, 9666.0, 9658.0, 9671.0, 9667.0, 9666.0, 9665.0, 9652.0, 9660.0, 9660.0, 9666.0, 9664.0, 9652.0, 9657.0, 9649.0, 9640.0, 9632.0, 9624.0, 9623.0, 9637.0, 9647.0, 9649.0, 9642.0, 9648.0, 9633.0, 9646.0, 9642.0, 9649.0, 9648.0, 9649.0, 9644.0, 9655.0, 9661.0, 9655.0, 9644.0, 9651.0, 9653.0, 9665.0, 9666.0, 9674.0, 9673.0, 9666.0, 9664.0, 9664.0, 9660.0, 9673.0, 9673.0, 9659.0, 9658.0, 9658.0, 9659.0, 9658.0, 9644.0, 9633.0, 9628.0, 9618.0, 9603.0, 9604.0, 9608.0, 9603.0, 9611.0, 9626.0, 9637.0, 9640.0, 9633.0, 9632.0, 9631.0, 9631.0, 9632.0, 9622.0, 9611.0, 9609.0, 9610.0, 9613.0, 9621.0, 9629.0, 9623.0, 9614.0, 9603.0, 9595.0, 9594.0, 9600.0, 9590.0, 9594.0, 9579.0, 9580.0, 9593.0, 9594.0, 9594.0, 9595.0, 9609.0, 9606.0, 9620.0, 9629.0, 9640.0, 9634.0, 9629.0, 9633.0, 9626.0, 9638.0, 9639.0, 9640.0, 9655.0, 9670.0, 9675.0, 9676.0, 9654.0, 9641.0, 9634.0, 9634.0, 9648.0, 9649.0, 9636.0, 9642.0, 9633.0, 9616.0, 9616.0, 9623.0, 9632.0, 9639.0, 9648.0, 9643.0, 9642.0, 9615.0, 9605.0, 9618.0, 9621.0, 9633.0, 9620.0, 9614.0, 9612.0, 9603.0, 9599.0, 9604.0, 9605.0, 9612.0, 9607.0, 9614.0, 9597.0, 9603.0, 9615.0, 9625.0, 9628.0, 9630.0, 9622.0, 9592.0, 9581.0, 9569.0, 9566.0, 9567.0, 9583.0, 9592.0, 9602.0, 9609.0, 9597.0, 9588.0, 9574.0, 9587.0, 9607.0, 9604.0, 9614.0, 9615.0, 9608.0, 9608.0, 9614.0, 9623.0, 9612.0, 9608.0, 9591.0, 9581.0, 9564.0, 9567.0, 9568.0, 9570.0, 9593.0, 9609.0, 9606.0, 9608.0, 9610.0, 9618.0, 9627.0, 9629.0, 9629.0, 9636.0, 9644.0, 9652.0, 9648.0, 9646.0, 9638.0, 9621.0],
      "WindowWidth": [20840.0, 20721.0, 20657.0, 20647.0, 20629.0, 20651.0, 20645.0, 20642.0, 20636.0, 20615.0, 20629.0, 20628.0, 20638.0, 20632.0, 20611.0, 20620.0, 20604.0, 20585.0, 20568.0, 20550.0, 20547.0, 20575.0, 20597.0, 20603.0, 20590.0, 20601.0, 20571.0, 20595.0, 20591.0, 20605.0, 20602.0, 20602.0, 20597.0, 20618.0, 20628.0, 20616.0, 20598.0, 20611.0, 20620.0, 20642.0, 20644.0, 20663.0, 20661.0, 20647.0, 20639.0, 20638.0, 20634.0, 20657.0, 20657.0, 20630.0, 20629.0, 20625.0, 20628.0, 20621.0, 20596.0, 20566.0, 20552.0, 20528.0, 20501.0, 20504.0, 20509.0, 20502.0, 20516.0, 20551.0, 20579.0, 20588.0, 20576.0, 20572.0, 20570.0, 20571.0, 20572.0, 20546.0, 20516.0, 20512.0, 20513.0, 20523.0, 20541.0, 20556.0, 20544.0, 20523.0, 20499.0, 20482.0, 20478.0, 20492.0, 20474.0, 20479.0, 20452.0, 20454.0, 20479.0, 20483.0, 20480.0, 20485.0, 20513.0, 20509.0, 20537.0, 20557.0, 20583.0, 20576.0, 20567.0, 20570.0, 20560.0, 20581.0, 20582.0, 20588.0, 20619.0, 20651.0, 20666.0, 20667.0, 20622.0, 20591.0, 20575.0, 20579.0, 20604.0, 20611.0, 20585.0, 20595.0, 20578.0, 20536.0, 20534.0, 20549.0, 20568.0, 20582.0, 20600.0, 20595.0, 20594.0, 20530.0, 20507.0, 20533.0, 20540.0, 20562.0, 20537.0, 20524.0, 20518.0, 20500.0, 20499.0, 20511.0, 20511.0, 20523.0, 20518.0, 20531.0, 20492.0, 20503.0, 20526.0, 20547.0, 20557.0, 20564.0, 20542.0, 20482.0, 20455.0, 20424.0, 20416.0, 20419.0, 20452.0, 20475.0, 20498.0, 20514.0, 20494.0, 20472.0, 20446.0, 20471.0, 20510.0, 20508.0, 20530.0, 20532.0, 20519.0, 20517.0, 20527.0, 20546.0, 20529.0, 20514.0, 20475.0, 20452.0, 20413.0, 20416.0, 20420.0, 20429.0, 20477.0, 20512.0, 20511.0, 20518.0, 20526.0, 20543.0, 20569.0, 20573.0, 20571.0, 20585.0, 20602.0, 20618.0, 20611.0, 20605.0, 20587.0, 20550.0]
    },
    "slices": {}
  },
  "NumberOfVolumes": 192
}