{
  "AcquisitionMatrixPE": 104,
  "AcquisitionNumber": 1,
  "AcquisitionTime": "15:04:8.955000",
  "BandwidthPerPixelPhaseEncode": 16.297,
  "BaseResolution": 104,
  "BodyPartExamined": "BRAIN",
  "ConsistencyInfo": "N4_VE11C_LATEST_20160120",
  "ConversionSoftware": "dcm2niix",
  "ConversionSoftwareVersion": "v1.0.20210317",
  "DerivedVendorReportedEchoSpacing": 0.000590009,
  "DeviceSerialNumber": "166018",
  "DwellTime": 2.1e-06,
  "EchoTime": 0.0376,
  "EchoTrainLength": 104,
  "EffectiveEchoSpacing": 0.000590009,
  "FlipAngle": 68,
  "ImageComments": "Unaliased MB6/PE3/LB",
  "ImageOrientationPatientDICOM": [0.996772, 0.0758563, 0.0262909, -0.0632355, 0.943585, -0.325035],
  "ImageType": [
    "ORIGINAL",
    "PRIMARY",
    "M",
    "MB",
    "ND",
    "MOSAIC"
],
  "ImagingFrequency": 123.197,
  "InPlanePhaseEncodingDirectionDICOM": "COL",
  "InstitutionAddress": "Washington Place 6,NYC,NYC,US,10003",
  "InstitutionName": "NYU - CBI",
  "InstitutionalDepartmentName": "Department",
  "MRAcquisitionType": "2D",
  "MagneticFieldStrength": 3,
  "Manufacturer": "Siemens",
  "ManufacturersModelName": "Prisma",
  "Modality": "MR",
  "MultibandAccelerationFactor": 6,
  "PartialFourier": 1,
  "PatientPosition": "HFS",
  "PercentPhaseFOV": 100,
  "PercentSampling": 100,
  "PhaseEncodingDirection": "j",
  "PhaseEncodingSteps": 104,
  "PhaseResolution": 1,
  "PixelBandwidth": 2290,
  "ProcedureStepDescription": "Investigators^Winawer",
  "ProtocolName": "cmrr_mbepi_s6_2mm_66sl_PA_task-wedgering3",
  "PulseSequenceDetails": "%CustomerSeq%\\cmrr_mbep2d_bold",
  "ReceiveCoilActiveElements": "HC1-7",
  "ReceiveCoilName": "HeadNeck_64",
  "ReconMatrixPE": 104,
  "RepetitionTime": 1,
  "SAR": 0.0957088,
  "ScanOptions": "FS",
  "ScanningSequence": "EP",
  "SequenceName": "epfid2d1_104",
  "SequenceVariant": "SK\\SS",
  "SeriesDescription": "cmrr_mbepi_s6_2mm_66sl_PA_task-wedgering3",
  "SeriesNumber": 18,
  "ShimSetting": [288, -12654, -8449, 331, 31, -124, -218, 20],
  "SliceThickness": 2,
  "SliceTiming": [0, 0.535, 0.09, 0.6225, 0.1775, 0.7125, 0.2675, 0.8025, 0.355, 0.89, 0.445, 0, 0.535, 0.09, 0.6225, 0.1775, 0.7125, 0.2675, 0.8025, 0.355, 0.89, 0.445, 0, 0.535, 0.09, 0.6225, 0.1775, 0.7125, 0.2675, 0.8025, 0.355, 0.89, 0.445, 0, 0.535, 0.09, 0.6225, 0.1775, 0.7125, 0.2675, 0.8025, 0.355, 0.89, 0.445, 0, 0.535, 0.09, 0.6225, 0.1775, 0.7125, 0.2675, 0.8025, 0.355, 0.89, 0.445, 0, 0.535, 0.09, 0.6225, 0.1775, 0.7125, 0.2675, 0.8025, 0.355, 0.89, 0.445],
  "SoftwareVersions": "syngo MR E11",
  "SpacingBetweenSlices": 2,
  "StationName": "AWP166018",
  "TaskName": "wedgering3",
  "TotalReadoutTime": 0.060771,
  "TxRefAmp": 249.756,
  "VendorReportedEchoSpacing": 0.00059,
  "WipMemBlock": "bee642d1-b7d3-4c77-946c-d0ca975748e5||Sequence: R016 ve11c/master r/8780670; Nov 27 2017 15:05:12 by eja",
  "dcmmeta_affine": [
    [-1.9935442209243774, -0.12647105753421783, 0.098927341401577, 111.25215911865234],
    [-0.1517125517129898, 1.8871707916259766, -0.6446468234062195, -52.29086685180664],
    [0.05258180946111679, 0.6500702500343323, 1.8906728029251099, -69.79417419433594],
    [0.0, 0.0, 0.0, 1.0]
],
  "dcmmeta_reorient_transform": [
    [0.0, -1.0, 0.0, 103.0],
    [1.0, 0.0, 0.0, 0.0],
    [0.0, 0.0, 1.0, 0.0],
    [0.0, 0.0, 0.0, 1.0]
],
  "dcmmeta_shape": [104, 104, 66, 300],
  "dcmmeta_slice_dim": 2,
  "dcmmeta_version": 0.6,
  "global": {
    "const": {
      "AccessionNumber": "Lexd0wxp",
      "AcquisitionMatrix": [104, 0, 0, 104],
      "AngioFlag": "N",
      "BitsAllocated": 16,
      "BitsStored": 16,
      "BodyPartExamined": "BRAIN",
      "Columns": 936,
      "EchoNumbers": 1,
      "EchoTime": 37.6,
      "EchoTrainLength": 104,
      "FlipAngle": 68.0,
      "HighBit": 15,
      "ImageOrientationPatient": [0.99677209696708, 0.07585627863573, 0.02629090526008, -0.063235528105, 0.94358541156218, -0.3250351351351],
      "ImagePositionPatient": [-874.92806574568, -990.26321410898, 245.71826523971],
      "ImageType": [
        "ORIGINAL",
        "PRIMARY",
        "M",
        "MB",
        "ND",
        "MOSAIC"
],
      "ImagedNucleus": "1H",
      "ImagingFrequency": 123.196812,
      "InPlanePhaseEncodingDirection": "COL",
      "MRAcquisitionType": "2D",
      "MagneticFieldStrength": 3.0,
      "Manufacturer": "SIEMENS",
      "ManufacturerModelName": "Prisma",
      "Modality": "MR",
      "NumberOfAverages": 1.0,
      "NumberOfPhaseEncodingSteps": 104,
      "PercentPhaseFieldOfView": 100.0,
      "PercentSampling": 100.0,
      "PerformedProcedureStepStartTime": "141233.009000",
      "PhotometricInterpretation": "MONOCHROME2",
      "PixelBandwidth": 2290.0,
      "PixelRepresentation": 0,
      "PixelSpacing": [2.0, 2.0],
      "ProtocolName": "cmrr_mbepi_s6_2mm_66sl_PA_task-wedgering3",
      "RepetitionTime": 1000.0,
      "Rows": 936,
      "SAR": 0.09570885009109,
      "SamplesPerPixel": 1,
      "ScanOptions": "FS",
      "ScanningSequence": "EP",
      "SequenceName": "epfid2d1_104",
      "SequenceVariant": [
        "SK",
        "SS"
],
      "SeriesDescription": "cmrr_mbepi_s6_2mm_66sl_PA_task-wedgering3",
      "SeriesNumber": 18,
      "SeriesTime": "150524.880000",
      "SliceLocation": -43.621460710853,
      "SliceThickness": 2.0,
      "SmallestImagePixelValue": 0,
      "SoftwareVersions": "syngo MR E11",
      "SpacingBetweenSlices": 1.999999936597,
      "SpecificCharacterSet": "ISO_IR 100",
      "StudyID": "1",
      "StudyTime": "141232.945000",
      "TransmitCoilName": "Body",
      "VariableFlipAngleFlag": "N",
      "WindowCenterWidthExplanation": "Algo1",
      "dBdt": 0.0},
    "slices": {}
  },
  "time": {
    "samples": {
      "AcquisitionNumber": [1, 2, 3, 4, 5, 6, 7, 8, 9, 10, 11, 12, 13, 14, 15, 16, 17, 18, 19, 20, 21, 22, 23, 24, 25, 26, 27, 28, 29, 30, 31, 32, 33, 34, 35, 36, 37, 38, 39, 40, 41, 42, 43, 44, 45, 46, 47, 48, 49, 50, 51, 52, 53, 54, 55, 56, 57, 58, 59, 60, 61, 62, 63, 64, 65, 66, 67, 68, 69, 70, 71, 72, 73, 74, 75, 76, 77, 78, 79, 80, 81, 82, 83, 84, 85, 86, 87, 88, 89, 90, 91, 92, 93, 94, 95, 96, 97, 98, 99, 100, 101, 102, 103, 104, 105, 106, 107, 108, 109, 110, 111, 112, 113, 114, 115, 116, 117, 118, 119, 120, 121, 122, 123, 124, 125, 126, 127, 128, 129, 130, 131, 132, 133, 134, 135, 136, 137, 138, 139, 140, 141, 142, 143, 144, 145, 146, 147, 148, 149, 150, 151, 152, 153, 154, 155, 156, 157, 158, 159, 160, 161, 162, 163, 164, 165, 166, 167, 168, 169, 170, 171, 172, 173, 174, 175, 176, 177, 178, 179, 180, 181, 182, 183, 184, 185, 186, 187, 188, 189, 190, 191, 192, 193, 194, 195, 196, 197, 198, 199, 200, 201, 202, 203, 204, 205, 206, 207, 208, 209, 210, 211, 212, 213, 214, 215, 216, 217, 218, 219, 220, 221, 222, 223, 224, 225, 226, 227, 228, 229, 230, 231, 232, 233, 234, 235, 236, 237, 238, 239, 240, 241, 242, 243, 244, 245, 246, 247, 248, 249, 250, 251, 252, 253, 254, 255, 256, 257, 258, 259, 260, 261, 262, 263, 264, 265, 266, 267, 268, 269, 270, 271, 272, 273, 274, 275, 276, 277, 278, 279, 280, 281, 282, 283, 284, 285, 286, 287, 288, 289, 290, 291, 292, 293, 294, 295, 296, 297, 298, 299, 300],
      "AcquisitionTime": ["150408.955000", "150409.955000", "150410.955000", "150411.955000", "150412.955000", "150413.955000", "150414.955000", "150415.955000", "150416.955000", "150417.955000", "150418.955000", "150419.955000", "150420.955000", "150421.955000", "150422.955000", "150423.955000", "150424.955000", "150425.955000", "150426.955000", "150427.955000", "150428.955000", "150429.955000", "150430.955000", "150431.955000", "150432.955000", "150433.955000", "150434.955000", "150435.955000", "150436.955000", "150437.955000", "150438.955000", "150439.955000", "150440.955000", "150441.955000", "150442.955000", "150443.955000", "150444.955000", "150445.955000", "150446.955000", "150447.955000", "150448.955000", "150449.955000", "150450.955000", "150451.955000", "150452.955000", "150453.955000", "150454.955000", "150455.955000", "150456.955000", "150457.955000", "150458.955000", "150459.955000", "150500.955000", "150501.955000", "150502.955000", "150503.955000", "150504.955000", "150505.955000", "150506.955000", "150507.955000", "150508.955000", "150509.955000", "150510.955000", "150511.955000", "150512.955000", "150513.955000", "150514.955000", "150515.955000", "150516.955000", "150517.955000", "150518.955000", "150519.955000", "150520.955000", "150521.955000", "150522.955000", "150523.955000", "150524.955000", "150525.955000", "150526.955000", "150527.955000", "150528.955000", "150529.955000", "150530.955000", "150531.955000", "150532.955000", "150533.955000", "150534.955000", "150535.955000", "150536.955000", "150537.955000", "150538.955000", "150539.955000", "150540.955000", "150541.955000", "150542.955000", "150543.955000", "150544.955000", "150545.955000", "150546.955000", "150547.955000", "150548.955000", "150549.955000", "150550.955000", "150551.955000", "150552.955000", "150553.955000", "150554.955000", "150555.955000", "150556.955000", "150557.955000", "150558.955000", "150559.955000", "150600.955000", "150601.955000", "150602.955000", "150603.955000", "150604.955000", "150605.955000", "150606.955000", "150607.955000", "150608.955000", "150609.955000", "150610.955000", "150611.955000", "150612.955000", "150613.955000", "150614.955000", "150615.955000", "150616.955000", "150617.955000", "150618.955000", "150619.955000", "150620.955000", "150621.955000", "150622.955000", "150623.955000", "150624.955000", "150625.955000", "150626.955000", "150627.955000", "150628.955000", "150629.955000", "150630.955000", "150631.955000", "150632.955000", "150633.955000", "150634.955000", "150635.955000", "150636.955000", "150637.955000", "150638.955000", "150639.955000", "150640.955000", "150641.955000", "150642.955000", "150643.955000", "150644.955000", "150645.955000", "150646.955000", "150647.955000", "150648.955000", "150649.955000", "150650.955000", "150651.955000", "150652.955000", "150653.955000", "150654.955000", "150655.955000", "150656.955000", "150657.955000", "150658.955000", "150659.955000", "150700.955000", "150701.955000", "150702.955000", "150703.955000", "150704.955000", "150705.955000", "150706.955000", "150707.955000", "150708.955000", "150709.955000", "150710.955000", "150711.955000", "150712.955000", "150713.955000", "150714.955000", "150715.955000", "150716.955000", "150717.955000", "150718.955000", "150719.955000", "150720.955000", "150721.955000", "150722.955000", "150723.955000", "150724.955000", "150725.955000", "150726.955000", "150727.955000", "150728.955000", "150729.955000", "150730.955000", "150731.955000", "150732.955000", "150733.955000", "150734.955000", "150735.955000", "150736.955000", "150737.955000", "150738.955000", "150739.955000", "150740.955000", "150741.955000", "150742.955000", "150743.955000", "150744.955000", "150745.955000", "150746.955000", "150747.955000", "150748.955000", "150749.955000", "150750.955000", "150751.955000", "150752.955000", "150753.955000", "150754.955000", "150755.955000", "150756.955000", "150757.955000", "150758.955000", "150759.955000", "150800.955000", "150801.955000", "150802.955000", "150803.955000", "150804.955000", "150805.955000", "150806.955000", "150807.955000", "150808.955000", "150809.955000", "150810.955000", "150811.955000", "150812.955000", "150813.955000", "150814.955000", "150815.955000", "150816.955000", "150817.955000", "150818.955000", "150819.955000", "150820.955000", "150821.955000", "150822.955000", "150823.955000", "150824.955000", "150825.955000", "150826.955000", "150827.955000", "150828.955000", "150829.955000", "150830.955000", "150831.955000", "150832.955000", "150833.955000", "150834.955000", "150835.955000", "150836.955000", "150837.955000", "150838.955000", "150839.955000", "150840.955000", "150841.955000", "150842.955000", "150843.955000", "150844.955000", "150845.955000", "150846.955000", "150847.955000", "150848.955000", "150849.955000", "150850.955000", "150851.955000", "150852.955000", "150853.955000", "150854.955000", "150855.955000", "150856.955000", "150857.955000", "150858.955000", "150859.955000", "150900.955000", "150901.955000", "150902.955000", "150903.955000", "150904.955000", "150905.955000", "150906.955000", "150907.955000"],
      "ContentTime": ["150524.882000", "150524.886000", "150524.889000", "150524.892000", "150524.895000", "150524.898000", "150524.901000", "150524.904000", "150524.907000", "150524.916000", "150524.919000", "150524.930000", "150524.933000", "150524.936000", "150524.939000", "150524.942000", "150524.945000", "150524.948000", "150524.951000", "150524.954000", "150524.957000", "150524.960000", "150524.963000", "150524.974000", "150524.977000", "150524.980000", "150524.983000", "150544.843000", "150544.846000", "150544.849000", "150544.852000", "150544.857000", "150544.860000", "150544.863000", "150544.866000", "150544.869000", "150544.872000", "150544.875000", "150544.878000", "150544.889000", "150544.892000", "150544.895000", "150544.898000", "150544.901000", "150544.904000", "150544.907000", "150544.910000", "150544.913000", "150544.916000", "150544.919000", "150544.922000", "150544.925000", "150544.928000", "150544.931000", "150544.934000", "150544.936000", "150604.843000", "150604.846000", "150604.849000", "150604.852000", "150604.855000", "150604.858000", "150604.861000", "150604.864000", "150604.867000", "150604.870000", "150604.873000", "150604.876000", "150604.879000", "150604.882000", "150604.885000", "150604.888000", "150604.891000", "150604.894000", "150604.896000", "150604.899000", "150604.902000", "150604.905000", "150604.908000", "150604.911000", "150604.914000", "150604.917000", "150604.920000", "150604.923000", "150624.843000", "150624.846000", "150624.849000", "150624.852000", "150624.855000", "150624.858000", "150624.861000", "150624.864000", "150624.867000", "150624.870000", "150624.873000", "150624.876000", "150624.879000", "150624.882000", "150624.885000", "150624.888000", "150624.891000", "150624.894000", "150624.897000", "150624.900000", "150624.903000", "150624.907000", "150624.912000", "150624.916000", "150624.920000", "150624.923000", "150624.965000", "150624.968000", "150644.843000", "150644.846000", "150644.849000", "150644.852000", "150644.855000", "150644.858000", "150644.861000", "150644.864000", "150644.867000", "150644.870000", "150644.873000", "150644.876000", "150644.879000", "150644.882000", "150644.885000", "150644.888000", "150644.891000", "150644.894000", "150644.897000", "150644.900000", "150644.903000", "150644.906000", "150644.909000", "150644.912000", "150644.915000", "150644.918000", "150644.920000", "150644.923000", "150644.926000", "150704.844000", "150704.847000", "150704.850000", "150704.853000", "150704.856000", "150704.859000", "150704.862000", "150704.865000", "150704.868000", "150704.871000", "150704.874000", "150704.877000", "150704.880000", "150704.883000", "150704.886000", "150704.889000", "150704.892000", "150704.895000", "150704.898000", "150704.901000", "150704.904000", "150704.907000", "150704.910000", "150704.913000", "150704.916000", "150704.919000", "150704.922000", "150704.925000", "150724.843000", "150724.846000", "150724.849000", "150724.852000", "150724.855000", "150724.858000", "150724.861000", "150724.864000", "150724.867000", "150724.870000", "150724.873000", "150724.876000", "150724.879000", "150724.882000", "150724.885000", "150724.888000", "150724.891000", "150724.894000", "150724.897000", "150724.900000", "150724.903000", "150724.906000", "150724.909000", "150724.912000", "150724.915000", "150724.918000", "150744.843000", "150744.846000", "150744.849000", "150744.852000", "150744.855000", "150744.858000", "150744.861000", "150744.864000", "150744.867000", "150744.870000", "150744.883000", "150744.886000", "150744.889000", "150744.892000", "150744.895000", "150744.898000", "150744.901000", "150744.904000", "150744.907000", "150744.910000", "150804.844000", "150804.847000", "150804.850000", "150804.853000", "150804.856000", "150804.859000", "150804.862000", "150804.865000", "150804.868000", "150804.871000", "150804.874000", "150804.877000", "150804.880000", "150804.883000", "150804.886000", "150804.889000", "150804.892000", "150804.895000", "150804.898000", "150804.901000", "150824.843000", "150824.846000", "150824.849000", "150824.852000", "150824.855000", "150824.858000", "150824.861000", "150824.864000", "150824.867000", "150824.870000", "150824.873000", "150824.876000", "150824.879000", "150824.882000", "150824.885000", "150824.888000", "150824.891000", "150824.894000", "150824.897000", "150824.900000", "150844.843000", "150844.846000", "150844.849000", "150844.852000", "150844.855000", "150844.858000", "150844.861000", "150844.864000", "150844.867000", "150844.870000", "150844.873000", "150844.876000", "150844.879000", "150844.882000", "150844.885000", "150844.888000", "150844.891000", "150844.894000", "150844.897000", "150844.900000", "150904.843000", "150904.846000", "150904.849000", "150904.852000", "150904.855000", "150904.858000", "150904.861000", "150904.864000", "150904.867000", "150904.870000", "150904.873000", "150904.876000", "150904.879000", "150904.882000", "150904.885000", "150904.888000", "150904.891000", "150904.894000", "150904.897000", "150904.900000", "150909.400000", "150909.403000", "150909.406000", "150909.409000", "150909.412000"],
      "InstanceCreationTime": ["150524.882000", "150524.886000", "150524.889000", "150524.892000", "150524.895000", "150524.898000", "150524.901000", "150524.904000", "150524.907000", "150524.916000", "150524.919000", "150524.930000", "150524.933000", "150524.936000", "150524.939000", "150524.942000", "150524.945000", "150524.948000", "150524.951000", "150524.954000", "150524.957000", "150524.960000", "150524.963000", "150524.974000", "150524.977000", "150524.980000", "150524.983000", "150544.843000", "150544.846000", "150544.849000", "150544.852000", "150544.857000", "150544.860000", "150544.863000", "150544.866000", "150544.869000", "150544.872000", "150544.875000", "150544.878000", "150544.889000", "150544.892000", "150544.895000", "150544.898000", "150544.901000", "150544.904000", "150544.907000", "150544.910000", "150544.913000", "150544.916000", "150544.919000", "150544.922000", "150544.925000", "150544.928000", "150544.931000", "150544.934000", "150544.936000", "150604.843000", "150604.846000", "150604.849000", "150604.852000", "150604.855000", "150604.858000", "150604.861000", "150604.864000", "150604.867000", "150604.870000", "150604.873000", "150604.876000", "150604.879000", "150604.882000", "150604.885000", "150604.888000", "150604.891000", "150604.894000", "150604.896000", "150604.899000", "150604.902000", "150604.905000", "150604.908000", "150604.911000", "150604.914000", "150604.917000", "150604.920000", "150604.923000", "150624.843000", "150624.846000", "150624.849000", "150624.852000", "150624.855000", "150624.858000", "150624.861000", "150624.864000", "150624.867000", "150624.870000", "150624.873000", "150624.876000", "150624.879000", "150624.882000", "150624.885000", "150624.888000", "150624.891000", "150624.894000", "150624.897000", "150624.900000", "150624.903000", "150624.907000", "150624.912000", "150624.916000", "150624.920000", "150624.923000", "150624.965000", "150624.968000", "150644.843000", "150644.846000", "150644.849000", "150644.852000", "150644.855000", "150644.858000", "150644.861000", "150644.864000", "150644.867000", "150644.870000", "150644.873000", "150644.876000", "150644.879000", "150644.882000", "150644.885000", "150644.888000", "150644.891000", "150644.894000", "150644.897000", "150644.900000", "150644.903000", "150644.906000", "150644.909000", "150644.912000", "150644.915000", "150644.918000", "150644.920000", "150644.923000", "150644.926000", "150704.844000", "150704.847000", "150704.850000", "150704.853000", "150704.856000", "150704.859000", "150704.862000", "150704.865000", "150704.868000", "150704.871000", "150704.874000", "150704.877000", "150704.880000", "150704.883000", "150704.886000", "150704.889000", "150704.892000", "150704.895000", "150704.898000", "150704.901000", "150704.904000", "150704.907000", "150704.910000", "150704.913000", "150704.916000", "150704.919000", "150704.922000", "150704.925000", "150724.843000", "150724.846000", "150724.849000", "150724.852000", "150724.855000", "150724.858000", "150724.861000", "150724.864000", "150724.867000", "150724.870000", "150724.873000", "150724.876000", "150724.879000", "150724.882000", "150724.885000", "150724.888000", "150724.891000", "150724.894000", "150724.897000", "150724.900000", "150724.903000", "150724.906000", "150724.909000", "150724.912000", "150724.915000", "150724.918000", "150744.843000", "150744.846000", "150744.849000", "150744.852000", "150744.855000", "150744.858000", "150744.861000", "150744.864000", "150744.867000", "150744.870000", "150744.883000", "150744.886000", "150744.889000", "150744.892000", "150744.895000", "150744.898000", "150744.901000", "150744.904000", "150744.907000", "150744.910000", "150804.844000", "150804.847000", "150804.850000", "150804.853000", "150804.856000", "150804.859000", "150804.862000", "150804.865000", "150804.868000", "150804.871000", "150804.874000", "150804.877000", "150804.880000", "150804.883000", "150804.886000", "150804.889000", "150804.892000", "150804.895000", "150804.898000", "150804.901000", "150824.843000", "150824.846000", "150824.849000", "150824.852000", "150824.855000", "150824.858000", "150824.861000", "150824.864000", "150824.867000", "150824.870000", "150824.873000", "150824.876000", "150824.879000", "150824.882000", "150824.885000", "150824.888000", "150824.891000", "150824.894000", "150824.897000", "150824.900000", "150844.843000", "150844.846000", "150844.849000", "150844.852000", "150844.855000", "150844.858000", "150844.861000", "150844.864000", "150844.867000", "150844.870000", "150844.873000", "150844.876000", "150844.879000", "150844.882000", "150844.885000", "150844.888000", "150844.891000", "150844.894000", "150844.897000", "150844.900000", "150904.843000", "150904.846000", "150904.849000", "150904.852000", "150904.855000", "150904.858000", "150904.861000", "150904.864000", "150904.867000", "150904.870000", "150904.873000", "150904.876000", "150904.879000", "150904.882000", "150904.885000", "150904.888000", "150904.891000", "150904.894000", "150904.897000", "150904.900000", "150909.400000", "150909.403000", "150909.406000", "150909.409000", "150909.412000"],
      "InstanceNumber": [1, 2, 3, 4, 5, 6, 7, 8, 9, 10, 11, 12, 13, 14, 15, 16, 17, 18, 19, 20, 21, 22, 23, 24, 25, 26, 27, 28, 29, 30, 31, 32, 33, 34, 35, 36, 37, 38, 39, 40, 41, 42, 43, 44, 45, 46, 47, 48, 49, 50, 51, 52, 53, 54, 55, 56, 57, 58, 59, 60, 61, 62, 63, 64, 65, 66, 67, 68, 69, 70, 71, 72, 73, 74, 75, 76, 77, 78, 79, 80, 81, 82, 83, 84, 85, 86, 87, 88, 89, 90, 91, 92, 93, 94, 95, 96, 97, 98, 99, 100, 101, 102, 103, 104, 105, 106, 107, 108, 109, 110, 111, 112, 113, 114, 115, 116, 117, 118, 119, 120, 121, 122, 123, 124, 125, 126, 127, 128, 129, 130, 131, 132, 133, 134, 135, 136, 137, 138, 139, 140, 141, 142, 143, 144, 145, 146, 147, 148, 149, 150, 151, 152, 153, 154, 155, 156, 157, 158, 159, 160, 161, 162, 163, 164, 165, 166, 167, 168, 169, 170, 171, 172, 173, 174, 175, 176, 177, 178, 179, 180, 181, 182, 183, 184, 185, 186, 187, 188, 189, 190, 191, 192, 193, 194, 195, 196, 197, 198, 199, 200, 201, 202, 203, 204, 205, 206, 207, 208, 209, 210, 211, 212, 213, 214, 215, 216, 217, 218, 219, 220, 221, 222, 223, 224, 225, 226, 227, 228, 229, 230, 231, 232, 233, 234, 235, 236, 237, 238, 239, 240, 241, 242, 243, 244, 245, 246, 247, 248, 249, 250, 251, 252, 253, 254, 255, 256, 257, 258, 259, 260, 261, 262, 263, 264, 265, 266, 267, 268, 269, 270, 271, 272, 273, 274, 275, 276, 277, 278, 279, 280, 281, 282, 283, 284, 285, 286, 287, 288, 289, 290, 291, 292, 293, 294, 295, 296, 297, 298, 299, 300],
      "LargestImagePixelValue": [35600, 34964, 34767, 34588, 33945, 34311, 33714, 34333, 34156, 34449, 34150, 34243, 34798, 34891, 34562, 33846, 34066, 34170, 34348, 34911, 34766, 34217, 34695, 34038, 34394, 34116, 34096, 34774, 34434, 34782, 34603, 34422, 34227, 34509, 33950, 34930, 34731, 34708, 34299, 34557, 33902, 34546, 34407, 34215, 35124, 34459, 34771, 34710, 34766, 34415, 34490, 34553, 34301, 34996, 34992, 34433, 34291, 34350, 34299, 34240, 34766, 33880, 33807, 33702, 33930, 33564, 34208, 34148, 34081, 34741, 34464, 33901, 34026, 34089, 34402, 34426, 34274, 33972, 34241, 33932, 34725, 34022, 34050, 33995, 33996, 34646, 34494, 34118, 34159, 33988, 35242, 34976, 33978, 34735, 34417, 34570, 34551, 34352, 34162, 33490, 34208, 34458, 34074, 33939, 34171, 34120, 33990, 34380, 34632, 33900, 33764, 34268, 34873, 34040, 34193, 33795, 33758, 34376, 33818, 34102, 34167, 33874, 33723, 34039, 33500, 33877, 34248, 34536, 33739, 33965, 34180, 34902, 33477, 34227, 34832, 33884, 33874, 35688, 33677, 33559, 33585, 33849, 34510, 33578, 33690, 34136, 33903, 33747, 33866, 34089, 33806, 33781, 34000, 33823, 33927, 33546, 33830, 33967, 33642, 34037, 33751, 33912, 35633, 33415, 33262, 33618, 33997, 33941, 33534, 33779, 33509, 33548, 33516, 33054, 33824, 33957, 33845, 32965, 34294, 32769, 33406, 34036, 34119, 34456, 34447, 34277, 33944, 34028, 35666, 34309, 33665, 33634, 34322, 33898, 33915, 33669, 34146, 34079, 33870, 34332, 33901, 34097, 33975, 34295, 34317, 34380, 33928, 33522, 33849, 34523, 34371, 34148, 34152, 34234, 34019, 33792, 33928, 33657, 33862, 33671, 33830, 33574, 34119, 33849, 34067, 33805, 33873, 34075, 33377, 33294, 33279, 33543, 33471, 33381, 33466, 33592, 33679, 33753, 33421, 33654, 33631, 34059, 33869, 33793, 33951, 33670, 33862, 33633, 33310, 33308, 33183, 33261, 33539, 33833, 33815, 33382, 33366, 33256, 33509, 33409, 33342, 33562, 33190, 33434, 33097, 33659, 33372, 33248, 33253, 33537, 33788, 33744, 33486, 33266, 33346, 33580, 33994, 33966, 33762, 33581, 33419, 33440, 33692, 33445, 33765, 33772, 33303, 33455, 33623, 33661, 33715, 33557, 33907, 33721, 33777, 33592, 33922, 33675, 33436, 33534],
      "WindowCenter": [9804.0, 9773.0, 9769.0, 9760.0, 9762.0, 9771.0, 9760.0, 9764.0, 9762.0, 9752.0, 9743.0, 9749.0, 9764.0, 9765.0, 9768.0, 9763.0, 9763.0, 9760.0, 9759.0, 9758.0, 9765.0, 9770.0, 9787.0, 9776.0, 9781.0, 9772.0, 9762.0, 9767.0, 9764.0, 9767.0, 9785.0, 9798.0, 9798.0, 9789.0, 9767.0, 9777.0, 9776.0, 9760.0, 9742.0, 9732.0, 9717.0, 9731.0, 9730.0, 9730.0, 9744.0, 9746.0, 9745.0, 9739.0, 9746.0, 9746.0, 9748.0, 9756.0, 9759.0, 9775.0, 9782.0, 9784.0, 9781.0, 9781.0, 9786.0, 9788.0, 9795.0, 9791.0, 9793.0, 9796.0, 9803.0, 9805.0, 9812.0, 9809.0, 9794.0, 9794.0, 9786.0, 9774.0, 9772.0, 9762.0, 9766.0, 9768.0, 9755.0, 9755.0, 9762.0, 9763.0, 9773.0, 9766.0, 9774.0, 9781.0, 9781.0, 9787.0, 9779.0, 9780.0, 9780.0, 9782.0, 9799.0, 9804.0, 9792.0, 9802.0, 9796.0, 9791.0, 9790.0, 9772.0, 9763.0, 9757.0, 9771.0, 9776.0, 9773.0, 9782.0, 9790.0, 9796.0, 9789.0, 9783.0, 9780.0, 9773.0, 9774.0, 9771.0, 9768.0, 9753.0, 9757.0, 9751.0, 9748.0, 9761.0, 9761.0, 9763.0, 9769.0, 9755.0, 9748.0, 9746.0, 9746.0, 9754.0, 9763.0, 9771.0, 9766.0, 9765.0, 9756.0, 9765.0, 9748.0, 9752.0, 9756.0, 9753.0, 9755.0, 9785.0, 9766.0, 9766.0, 9767.0, 9780.0, 9785.0, 9759.0, 9755.0, 9751.0, 9737.0, 9736.0, 9735.0, 9742.0, 9750.0, 9755.0, 9764.0, 9773.0, 9776.0, 9768.0, 9764.0, 9764.0, 9759.0, 9766.0, 9759.0, 9756.0, 9772.0, 9742.0, 9739.0, 9731.0, 9745.0, 9747.0, 9749.0, 9755.0, 9751.0, 9750.0, 9747.0, 9734.0, 9738.0, 9735.0, 9724.0, 9711.0, 9721.0, 9667.0, 9690.0, 9724.0, 9721.0, 9709.0, 9692.0, 9691.0, 9653.0, 9620.0, 9626.0, 9592.0, 9578.0, 9560.0, 9564.0, 9558.0, 9565.0, 9569.0, 9591.0, 9599.0, 9616.0, 9635.0, 9655.0, 9674.0, 9684.0, 9694.0, 9704.0, 9706.0, 9706.0, 9709.0, 9717.0, 9732.0, 9734.0, 9736.0, 9744.0, 9745.0, 9745.0, 9737.0, 9737.0, 9730.0, 9737.0, 9733.0, 9738.0, 9738.0, 9738.0, 9729.0, 9735.0, 9728.0, 9726.0, 9719.0, 9711.0, 9712.0, 9721.0, 9729.0, 9736.0, 9748.0, 9758.0, 9759.0, 9761.0, 9757.0, 9742.0, 9740.0, 9739.0, 9737.0, 9733.0, 9726.0, 9718.0, 9711.0, 9718.0, 9711.0, 9704.0, 9696.0, 9703.0, 9705.0, 9703.0, 9701.0, 9699.0, 9693.0, 9701.0, 9693.0, 9701.0, 9702.0, 9704.0, 9712.0, 9705.0, 9712.0, 9707.0, 9721.0, 9715.0, 9713.0, 9715.0, 9720.0, 9720.0, 9713.0, 9702.0, 9696.0, 9696.0, 9701.0, 9700.0, 9699.0, 9707.0, 9711.0, 9715.0, 9730.0, 9738.0, 9732.0, 9729.0, 9718.0, 9703.0, 9701.0, 9710.0, 9721.0, 9737.0, 9741.0, 9756.0, 9752.0, 9758.0, 9751.0, 9750.0, 9741.0, 9743.0, 9743.0],
