{
  "AcquisitionMatrixPE": 104,
  "AcquisitionNumber": 1,
  "AcquisitionTime": "14:51:30.960000",
  "BandwidthPerPixelPhaseEncode": 16.297,
  "BaseResolution": 104,
  "BodyPartExamined": "BRAIN",
  "ConsistencyInfo": "N4_VE11C_LATEST_20160120",
  "ConversionSoftware": "dcm2niix",
  "ConversionSoftwareVersion": "v1.0.20210317",
  "DerivedVendorReportedEchoSpacing": 0.000590009,
  "DeviceSerialNumber": "166018",
  "DwellTime": 2.1e-06,
  "EchoTime": 0.0376,
  "EchoTrainLength": 104,
  "EffectiveEchoSpacing": 0.000590009,
  "FlipAngle": 68,
  "ImageComments": "Unaliased MB6/PE3/LB",
  "ImageOrientationPatientDICOM": [0.996772, 0.0758563, 0.0262909, -0.0632355, 0.943585, -0.325035],
  "ImageType": [
    "ORIGINAL",
    "PRIMARY",
    "M",
    "MB",
    "ND",
    "MOSAIC"
],
  "ImagingFrequency": 123.197,
  "InPlanePhaseEncodingDirectionDICOM": "COL",
  "InstitutionAddress": "Washington Place 6,NYC,NYC,US,10003",
  "InstitutionName": "NYU - CBI",
  "InstitutionalDepartmentName": "Department",
  "MRAcquisitionType": "2D",
  "MagneticFieldStrength": 3,
  "Manufacturer": "Siemens",
  "ManufacturersModelName": "Prisma",
  "Modality": "MR",
  "MultibandAccelerationFactor": 6,
  "PartialFourier": 1,
  "PatientPosition": "HFS",
  "PercentPhaseFOV": 100,
  "PercentSampling": 100,
  "PhaseEncodingDirection": "j",
  "PhaseEncodingSteps": 104,
  "PhaseResolution": 1,
  "PixelBandwidth": 2290,
  "ProcedureStepDescription": "Investigators^Winawer",
  "ProtocolName": "cmrr_mbepi_s6_2mm_66sl_PA_task-wedgering2",
  "PulseSequenceDetails": "%CustomerSeq%\\cmrr_mbep2d_bold",
  "ReceiveCoilActiveElements": "HC1-7",
  "ReceiveCoilName": "HeadNeck_64",
  "ReconMatrixPE": 104,
  "RepetitionTime": 1,
  "SAR": 0.0957088,
  "ScanOptions": "FS",
  "ScanningSequence": "EP",
  "SequenceName": "epfid2d1_104",
  "SequenceVariant": "SK\\SS",
  "SeriesDescription": "cmrr_mbepi_s6_2mm_66sl_PA_task-wedgering2",
  "SeriesNumber": 14,
  "ShimSetting": [288, -12654, -8449, 331, 31, -124, -218, 20],
  "SliceThickness": 2,
  "SliceTiming": [0, 0.535, 0.09, 0.625, 0.1775, 0.7125, 0.2675, 0.8025, 0.3575, 0.8925, 0.445, 0, 0.535, 0.09, 0.625, 0.1775, 0.7125, 0.2675, 0.8025, 0.3575, 0.8925, 0.445, 0, 0.535, 0.09, 0.625, 0.1775, 0.7125, 0.2675, 0.8025, 0.3575, 0.8925, 0.445, 0, 0.535, 0.09, 0.625, 0.1775, 0.7125, 0.2675, 0.8025, 0.3575, 0.8925, 0.445, 0, 0.535, 0.09, 0.625, 0.1775, 0.7125, 0.2675, 0.8025, 0.3575, 0.8925, 0.445, 0, 0.535, 0.09, 0.625, 0.1775, 0.7125, 0.2675, 0.8025, 0.3575, 0.8925, 0.445],
  "SoftwareVersions": "syngo MR E11",
  "SpacingBetweenSlices": 2,
  "StationName": "AWP166018",
  "TaskName": "wedgering2",
  "TotalReadoutTime": 0.060771,
  "TxRefAmp": 249.756,
  "VendorReportedEchoSpacing": 0.00059,
  "WipMemBlock": "65640bbd-7b9b-4c71-af41-be09e9209c28||Sequence: R016 ve11c/master r/8780670; Nov 27 2017 15:05:12 by eja",
  "dcmmeta_affine": [
    [-1.9935442209243774, -0.12647105753421783, 0.098927341401577, 111.25215911865234],
    [-0.1517125517129898, 1.8871707916259766, -0.6446468234062195, -52.29086685180664],
    [0.05258180946111679, 0.6500702500343323, 1.8906728029251099, -69.79417419433594],
    [0.0, 0.0, 0.0, 1.0]
],
  "dcmmeta_reorient_transform": [
    [0.0, -1.0, 0.0, 103.0],
    [1.0, 0.0, 0.0, 0.0],
    [0.0, 0.0, 1.0, 0.0],
    [0.0, 0.0, 0.0, 1.0]
],
  "dcmmeta_shape": [104, 104, 66, 300],
  "dcmmeta_slice_dim": 2,
  "dcmmeta_version": 0.6,
  "global": {
    "const": {
      "AccessionNumber": "Lexd0wxp",
      "AcquisitionMatrix": [104, 0, 0, 104],
      "AngioFlag": "N",
      "BitsAllocated": 16,
      "BitsStored": 16,
      "BodyPartExamined": "BRAIN",
      "Columns": 936,
      "EchoNumbers": 1,
      "EchoTime": 37.6,
      "EchoTrainLength": 104,
      "FlipAngle": 68.0,
      "HighBit": 15,
      "ImageOrientationPatient": [0.99677209696708, 0.07585627863573, 0.02629090526008, -0.063235528105, 0.94358541156218, -0.3250351351351],
      "ImagePositionPatient": [-874.92806574568, -990.26321410898, 245.71826523971],
      "ImageType": [
        "ORIGINAL",
        "PRIMARY",
        "M",
        "MB",
        "ND",
        "MOSAIC"
],
      "ImagedNucleus": "1H",
      "ImagingFrequency": 123.196804,
      "InPlanePhaseEncodingDirection": "COL",
      "MRAcquisitionType": "2D",
      "MagneticFieldStrength": 3.0,
      "Manufacturer": "SIEMENS",
      "ManufacturerModelName": "Prisma",
      "Modality": "MR",
      "NumberOfAverages": 1.0,
      "NumberOfPhaseEncodingSteps": 104,
      "PercentPhaseFieldOfView": 100.0,
      "PercentSampling": 100.0,
      "PerformedProcedureStepStartTime": "141233.009000",
      "PhotometricInterpretation": "MONOCHROME2",
      "PixelBandwidth": 2290.0,
      "PixelRepresentation": 0,
      "PixelSpacing": [2.0, 2.0],
      "ProtocolName": "cmrr_mbepi_s6_2mm_66sl_PA_task-wedgering2",
      "RepetitionTime": 1000.0,
      "Rows": 936,
      "SAR": 0.09570885009109,
      "SamplesPerPixel": 1,
      "ScanOptions": "FS",
      "ScanningSequence": "EP",
      "SequenceName": "epfid2d1_104",
      "SequenceVariant": [
        "SK",
        "SS"
],
      "SeriesDescription": "cmrr_mbepi_s6_2mm_66sl_PA_task-wedgering2",
      "SeriesNumber": 14,
      "SeriesTime": "145244.725000",
      "SliceLocation": -43.621460710853,
      "SliceThickness": 2.0,
      "SmallestImagePixelValue": 0,
      "SoftwareVersions": "syngo MR E11",
      "SpacingBetweenSlices": 1.999999936597,
      "SpecificCharacterSet": "ISO_IR 100",
      "StudyID": "1",
      "StudyTime": "141232.945000",
      "TransmitCoilName": "Body",
      "VariableFlipAngleFlag": "N",
      "WindowCenterWidthExplanation": "Algo1",
      "dBdt": 0.0},
    "slices": {}
  },
  "time": {
    "samples": {
      "AcquisitionNumber": [1, 2, 3, 4, 5, 6, 7, 8, 9, 10, 11, 12, 13, 14, 15, 16, 17, 18, 19, 20, 21, 22, 23, 24, 25, 26, 27, 28, 29, 30, 31, 32, 33, 34, 35, 36, 37, 38, 39, 40, 41, 42, 43, 44, 45, 46, 47, 48, 49, 50, 51, 52, 53, 54, 55, 56, 57, 58, 59, 60, 61, 62, 63, 64, 65, 66, 67, 68, 69, 70, 71, 72, 73, 74, 75, 76, 77, 78, 79, 80, 81, 82, 83, 84, 85, 86, 87, 88, 89, 90, 91, 92, 93, 94, 95, 96, 97, 98, 99, 100, 101, 102, 103, 104, 105, 106, 107, 108, 109, 110, 111, 112, 113, 114, 115, 116, 117, 118, 119, 120, 121, 122, 123, 124, 125, 126, 127, 128, 129, 130, 131, 132, 133, 134, 135, 136, 137, 138, 139, 140, 141, 142, 143, 144, 145, 146, 147, 148, 149, 150, 151, 152, 153, 154, 155, 156, 157, 158, 159, 160, 161, 162, 163, 164, 165, 166, 167, 168, 169, 170, 171, 172, 173, 174, 175, 176, 177, 178, 179, 180, 181, 182, 183, 184, 185, 186, 187, 188, 189, 190, 191, 192, 193, 194, 195, 196, 197, 198, 199, 200, 201, 202, 203, 204, 205, 206, 207, 208, 209, 210, 211, 212, 213, 214, 215, 216, 217, 218, 219, 220, 221, 222, 223, 224, 225, 226, 227, 228, 229, 230, 231, 232, 233, 234, 235, 236, 237, 238, 239, 240, 241, 242, 243, 244, 245, 246, 247, 248, 249, 250, 251, 252, 253, 254, 255, 256, 257, 258, 259, 260, 261, 262, 263, 264, 265, 266, 267, 268, 269, 270, 271, 272, 273, 274, 275, 276, 277, 278, 279, 280, 281, 282, 283, 284, 285, 286, 287, 288, 289, 290, 291, 292, 293, 294, 295, 296, 297, 298, 299, 300],
      "AcquisitionTime": ["145130.960000", "145131.960000", "145132.960000", "145133.960000", "145134.960000", "145135.960000", "145136.960000", "145137.960000", "145138.960000", "145139.960000", "145140.960000", "145141.960000", "145142.960000", "145143.960000", "145144.960000", "145145.960000", "145146.960000", "145147.960000", "145148.960000", "145149.960000", "145150.960000", "145151.960000", "145152.960000", "145153.960000", "145154.960000", "145155.960000", "145156.960000", "145157.960000", "145158.960000", "145159.960000", "145200.960000", "145201.960000", "145202.960000", "145203.960000", "145204.960000", "145205.960000", "145206.960000", "145207.960000", "145208.960000", "145209.960000", "145210.960000", "145211.960000", "145212.960000", "145213.960000", "145214.960000", "145215.960000", "145216.960000", "145217.960000", "145218.960000", "145219.960000", "145220.960000", "145221.960000", "145222.960000", "145223.960000", "145224.960000", "145225.960000", "145226.960000", "145227.960000", "145228.960000", "145229.960000", "145230.960000", "145231.960000", "145232.960000", "145233.960000", "145234.960000", "145235.960000", "145236.960000", "145237.960000", "145238.960000", "145239.960000", "145240.960000", "145241.960000", "145242.960000", "145243.960000", "145244.960000", "145245.960000", "145246.960000", "145247.960000", "145248.960000", "145249.960000", "145250.960000", "145251.960000", "145252.960000", "145253.960000", "145254.960000", "145255.960000", "145256.960000", "145257.960000", "145258.960000", "145259.960000", "145300.960000", "145301.960000", "145302.960000", "145303.960000", "145304.960000", "145305.960000", "145306.960000", "145307.960000", "145308.960000", "145309.960000", "145310.960000", "145311.960000", "145312.960000", "145313.960000", "145314.960000", "145315.960000", "145316.960000", "145317.960000", "145318.960000", "145319.960000", "145320.960000", "145321.960000", "145322.960000", "145323.960000", "145324.960000", "145325.960000", "145326.960000", "145327.960000", "145328.960000", "145329.960000", "145330.960000", "145331.960000", "145332.960000", "145333.960000", "145334.960000", "145335.960000", "145336.960000", "145337.960000", "145338.960000", "145339.960000", "145340.960000", "145341.960000", "145342.960000", "145343.960000", "145344.960000", "145345.960000", "145346.960000", "145347.960000", "145348.960000", "145349.960000", "145350.960000", "145351.960000", "145352.960000", "145353.960000", "145354.960000", "145355.960000", "145356.960000", "145357.960000", "145358.960000", "145359.960000", "145400.960000", "145401.960000", "145402.960000", "145403.960000", "145404.960000", "145405.960000", "145406.960000", "145407.960000", "145408.960000", "145409.960000", "145410.960000", "145411.960000", "145412.960000", "145413.960000", "145414.960000", "145415.960000", "145416.960000", "145417.960000", "145418.960000", "145419.960000", "145420.960000", "145421.960000", "145422.960000", "145423.960000", "145424.960000", "145425.960000", "145426.960000", "145427.960000", "145428.960000", "145429.960000", "145430.960000", "145431.960000", "145432.960000", "145433.960000", "145434.960000", "145435.960000", "145436.960000", "145437.960000", "145438.960000", "145439.960000", "145440.960000", "145441.960000", "145442.960000", "145443.960000", "145444.960000", "145445.960000", "145446.960000", "145447.960000", "145448.960000", "145449.960000", "145450.960000", "145451.960000", "145452.960000", "145453.960000", "145454.960000", "145455.960000", "145456.960000", "145457.960000", "145458.960000", "145459.960000", "145500.960000", "145501.960000", "145502.960000", "145503.960000", "145504.960000", "145505.960000", "145506.960000", "145507.960000", "145508.960000", "145509.960000", "145510.960000", "145511.960000", "145512.960000", "145513.960000", "145514.960000", "145515.960000", "145516.960000", "145517.960000", "145518.960000", "145519.960000", "145520.960000", "145521.960000", "145522.960000", "145523.960000", "145524.960000", "145525.960000", "145526.960000", "145527.960000", "145528.960000", "145529.960000", "145530.960000", "145531.960000", "145532.960000", "145533.960000", "145534.960000", "145535.960000", "145536.960000", "145537.960000", "145538.960000", "145539.960000", "145540.960000", "145541.960000", "145542.960000", "145543.960000", "145544.960000", "145545.960000", "145546.960000", "145547.960000", "145548.960000", "145549.960000", "145550.960000", "145551.960000", "145552.960000", "145553.960000", "145554.960000", "145555.960000", "145556.960000", "145557.960000", "145558.960000", "145559.960000", "145600.960000", "145601.960000", "145602.960000", "145603.960000", "145604.960000", "145605.960000", "145606.960000", "145607.960000", "145608.960000", "145609.960000", "145610.960000", "145611.960000", "145612.960000", "145613.960000", "145614.960000", "145615.960000", "145616.960000", "145617.960000", "145618.960000", "145619.960000", "145620.960000", "145621.960000", "145622.960000", "145623.960000", "145624.960000", "145625.960000", "145626.960000", "145627.960000", "145628.960000", "145629.960000"],
      "ContentTime": ["145244.728000", "145244.731000", "145244.734000", "145244.737000", "145244.740000", "145244.743000", "145244.746000", "145244.749000", "145244.752000", "145244.755000", "145244.762000", "145244.771000", "145244.773000", "145244.776000", "145244.779000", "145244.782000", "145244.785000", "145244.788000", "145244.791000", "145244.794000", "145244.797000", "145244.800000", "145244.803000", "145244.807000", "145304.699000", "145304.702000", "145304.705000", "145304.708000", "145304.711000", "145304.721000", "145304.723000", "145304.727000", "145304.731000", "145304.734000", "145304.737000", "145304.741000", "145304.744000", "145304.747000", "145304.750000", "145304.753000", "145304.756000", "145304.759000", "145304.762000", "145304.765000", "145304.768000", "145304.770000", "145304.773000", "145304.776000", "145304.779000", "145304.782000", "145304.785000", "145304.788000", "145324.699000", "145324.702000", "145324.705000", "145324.708000", "145324.711000", "145324.714000", "145324.717000", "145324.720000", "145324.723000", "145324.726000", "145324.729000", "145324.732000", "145324.735000", "145324.738000", "145324.741000", "145324.744000", "145324.747000", "145324.750000", "145324.753000", "145324.756000", "145324.759000", "145324.762000", "145324.765000", "145324.768000", "145324.771000", "145324.774000", "145324.777000", "145324.780000", "145324.783000", "145344.698000", "145344.701000", "145344.704000", "145344.707000", "145344.710000", "145344.713000", "145344.716000", "145344.719000", "145344.722000", "145344.725000", "145344.728000", "145344.731000", "145344.745000", "145344.748000", "145344.751000", "145344.753000", "145344.756000", "145344.759000", "145344.762000", "145344.765000", "145344.768000", "145344.771000", "145344.774000", "145344.777000", "145344.780000", "145344.783000", "145344.786000", "145344.789000", "145404.698000", "145404.701000", "145404.704000", "145404.707000", "145404.710000", "145404.713000", "145404.716000", "145404.719000", "145404.722000", "145404.725000", "145404.728000", "145404.731000", "145404.734000", "145404.737000", "145404.740000", "145404.743000", "145404.746000", "145404.749000", "145404.752000", "145404.755000", "145404.758000", "145404.761000", "145404.764000", "145404.780000", "145404.783000", "145404.786000", "145404.789000", "145404.792000", "145424.698000", "145424.701000", "145424.704000", "145424.707000", "145424.710000", "145424.713000", "145424.716000", "145424.719000", "145424.722000", "145424.725000", "145424.728000", "145424.731000", "145424.734000", "145424.737000", "145424.740000", "145424.743000", "145424.746000", "145424.749000", "145424.752000", "145424.755000", "145424.758000", "145424.761000", "145424.764000", "145424.767000", "145424.770000", "145424.773000", "145424.776000", "145424.779000", "145444.698000", "145444.701000", "145444.704000", "145444.707000", "145444.710000", "145444.713000", "145444.716000", "145444.719000", "145444.722000", "145444.725000", "145444.728000", "145444.731000", "145444.734000", "145444.737000", "145444.740000", "145444.743000", "145444.746000", "145444.749000", "145444.752000", "145444.755000", "145444.758000", "145444.761000", "145444.764000", "145444.767000", "145444.770000", "145444.773000", "145444.776000", "145444.779000", "145504.698000", "145504.701000", "145504.704000", "145504.713000", "145504.716000", "145504.719000", "145504.722000", "145504.725000", "145504.728000", "145504.731000", "145504.734000", "145504.737000", "145504.740000", "145504.743000", "145504.746000", "145504.749000", "145504.752000", "145504.755000", "145504.758000", "145504.761000", "145524.699000", "145524.702000", "145524.705000", "145524.708000", "145524.711000", "145524.714000", "145524.717000", "145524.720000", "145524.723000", "145524.726000", "145524.729000", "145524.732000", "145524.735000", "145524.738000", "145524.741000", "145524.744000", "145524.747000", "145524.750000", "145524.758000", "145524.761000", "145544.698000", "145544.701000", "145544.704000", "145544.707000", "145544.710000", "145544.713000", "145544.716000", "145544.719000", "145544.722000", "145544.725000", "145544.733000", "145544.736000", "145544.739000", "145544.742000", "145544.745000", "145544.748000", "145544.751000", "145544.754000", "145544.757000", "145544.760000", "145604.698000", "145604.702000", "145604.705000", "145604.708000", "145604.711000", "145604.714000", "145604.717000", "145604.720000", "145604.723000", "145604.726000", "145604.729000", "145604.732000", "145604.735000", "145604.738000", "145604.741000", "145604.744000", "145604.747000", "145604.750000", "145604.753000", "145604.756000", "145624.698000", "145624.701000", "145624.704000", "145624.707000", "145624.710000", "145624.713000", "145624.716000", "145624.719000", "145624.722000", "145624.725000", "145624.728000", "145624.731000", "145624.734000", "145624.737000", "145624.740000", "145624.743000", "145624.746000", "145624.749000", "145624.752000", "145624.755000", "145631.326000", "145631.329000", "145631.332000", "145631.335000", "145631.338000", "145631.341000", "145631.344000"],
      "InstanceCreationTime": ["145244.728000", "145244.731000", "145244.734000", "145244.737000", "145244.740000", "145244.743000", "145244.746000", "145244.749000", "145244.752000", "145244.755000", "145244.762000", "145244.771000", "145244.773000", "145244.776000", "145244.779000", "145244.782000", "145244.785000", "145244.788000", "145244.791000", "145244.794000", "145244.797000", "145244.800000", "145244.803000", "145244.807000", "145304.699000", "145304.702000", "145304.705000", "145304.708000", "145304.711000", "145304.721000", "145304.723000", "145304.727000", "145304.731000", "145304.734000", "145304.737000", "145304.741000", "145304.744000", "145304.747000", "145304.750000", "145304.753000", "145304.756000", "145304.759000", "145304.762000", "145304.765000", "145304.768000", "145304.770000", "145304.773000", "145304.776000", "145304.779000", "145304.782000", "145304.785000", "145304.788000", "145324.699000", "145324.702000", "145324.705000", "145324.708000", "145324.711000", "145324.714000", "145324.717000", "145324.720000", "145324.723000", "145324.726000", "145324.729000", "145324.732000", "145324.735000", "145324.738000", "145324.741000", "145324.744000", "145324.747000", "145324.750000", "145324.753000", "145324.756000", "145324.759000", "145324.762000", "145324.765000", "145324.768000", "145324.771000", "145324.774000", "145324.777000", "145324.780000", "145324.783000", "145344.698000", "145344.701000", "145344.704000", "145344.707000", "145344.710000", "145344.713000", "145344.716000", "145344.719000", "145344.722000", "145344.725000", "145344.728000", "145344.731000", "145344.745000", "145344.748000", "145344.751000", "145344.753000", "145344.756000", "145344.759000", "145344.762000", "145344.765000", "145344.768000", "145344.771000", "145344.774000", "145344.777000", "145344.780000", "145344.783000", "145344.786000", "145344.789000", "145404.698000", "145404.701000", "145404.704000", "145404.707000", "145404.710000", "145404.713000", "145404.716000", "145404.719000", "145404.722000", "145404.725000", "145404.728000", "145404.731000", "145404.734000", "145404.737000", "145404.740000", "145404.743000", "145404.746000", "145404.749000", "145404.752000", "145404.755000", "145404.758000", "145404.761000", "145404.764000", "145404.780000", "145404.783000", "145404.786000", "145404.789000", "145404.792000", "145424.698000", "145424.701000", "145424.704000", "145424.707000", "145424.710000", "145424.713000", "145424.716000", "145424.719000", "145424.722000", "145424.725000", "145424.728000", "145424.731000", "145424.734000", "145424.737000", "145424.740000", "145424.743000", "145424.746000", "145424.749000", "145424.752000", "145424.755000", "145424.758000", "145424.761000", "145424.764000", "145424.767000", "145424.770000", "145424.773000", "145424.776000", "145424.779000", "145444.698000", "145444.701000", "145444.704000", "145444.707000", "145444.710000", "145444.713000", "145444.716000", "145444.719000", "145444.722000", "145444.725000", "145444.728000", "145444.731000", "145444.734000", "145444.737000", "145444.740000", "145444.743000", "145444.746000", "145444.749000", "145444.752000", "145444.755000", "145444.758000", "145444.761000", "145444.764000", "145444.767000", "145444.770000", "145444.773000", "145444.776000", "145444.779000", "145504.698000", "145504.701000", "145504.704000", "145504.713000", "145504.716000", "145504.719000", "145504.722000", "145504.725000", "145504.728000", "145504.731000", "145504.734000", "145504.737000", "145504.740000", "145504.743000", "145504.746000", "145504.749000", "145504.752000", "145504.755000", "145504.758000", "145504.761000", "145524.699000", "145524.702000", "145524.705000", "145524.708000", "145524.711000", "145524.714000", "145524.717000", "145524.720000", "145524.723000", "145524.726000", "145524.729000", "145524.732000", "145524.735000", "145524.738000", "145524.741000", "145524.744000", "145524.747000", "145524.750000", "145524.758000", "145524.761000", "145544.698000", "145544.701000", "145544.704000", "145544.707000", "145544.710000", "145544.713000", "145544.716000", "145544.719000", "145544.722000", "145544.725000", "145544.733000", "145544.736000", "145544.739000", "145544.742000", "145544.745000", "145544.748000", "145544.751000", "145544.754000", "145544.757000", "145544.760000", "145604.698000", "145604.702000", "145604.705000", "145604.708000", "145604.711000", "145604.714000", "145604.717000", "145604.720000", "145604.723000", "145604.726000", "145604.729000", "145604.732000", "145604.735000", "145604.738000", "145604.741000", "145604.744000", "145604.747000", "145604.750000", "145604.753000", "145604.756000", "145624.698000", "145624.701000", "145624.704000", "145624.707000", "145624.710000", "145624.713000", "145624.716000", "145624.719000", "145624.722000", "145624.725000", "145624.728000", "145624.731000", "145624.734000", "145624.737000", "145624.740000", "145624.743000", "145624.746000", "145624.749000", "145624.752000", "145624.755000", "145631.326000", "145631.329000", "145631.332000", "145631.335000", "145631.338000", "145631.341000", "145631.344000"],
      "InstanceNumber": [1, 2, 3, 4, 5, 6, 7, 8, 9, 10, 11, 12, 13, 14, 15, 16, 17, 18, 19, 20, 21, 22, 23, 24, 25, 26, 27, 28, 29, 30, 31, 32, 33, 34, 35, 36, 37, 38, 39, 40, 41, 42, 43, 44, 45, 46, 47, 48, 49, 50, 51, 52, 53, 54, 55, 56, 57, 58, 59, 60, 61, 62, 63, 64, 65, 66, 67, 68, 69, 70, 71, 72, 73, 74, 75, 76, 77, 78, 79, 80, 81, 82, 83, 84, 85, 86, 87, 88, 89, 90, 91, 92, 93, 94, 95, 96, 97, 98, 99, 100, 101, 102, 103, 104, 105, 106, 107, 108, 109, 110, 111, 112, 113, 114, 115, 116, 117, 118, 119, 120, 121, 122, 123, 124, 125, 126, 127, 128, 129, 130, 131, 132, 133, 134, 135, 136, 137, 138, 139, 140, 141, 142, 143, 144, 145, 146, 147, 148, 149, 150, 151, 152, 153, 154, 155, 156, 157, 158, 159, 160, 161, 162, 163, 164, 165, 166, 167, 168, 169, 170, 171, 172, 173, 174, 175, 176, 177, 178, 179, 180, 181, 182, 183, 184, 185, 186, 187, 188, 189, 190, 191, 192, 193, 194, 195, 196, 197, 198, 199, 200, 201, 202, 203, 204, 205, 206, 207, 208, 209, 210, 211, 212, 213, 214, 215, 216, 217, 218, 219, 220, 221, 222, 223, 224, 225, 226, 227, 228, 229, 230, 231, 232, 233, 234, 235, 236, 237, 238, 239, 240, 241, 242, 243, 244, 245, 246, 247, 248, 249, 250, 251, 252, 253, 254, 255, 256, 257, 258, 259, 260, 261, 262, 263, 264, 265, 266, 267, 268, 269, 270, 271, 272, 273, 274, 275, 276, 277, 278, 279, 280, 281, 282, 283, 284, 285, 286, 287, 288, 289, 290, 291, 292, 293, 294, 295, 296, 297, 298, 299, 300],
      "LargestImagePixelValue": [37165, 36315, 35963, 35651, 35519, 35035, 34893, 35723, 35833, 36144, 36027, 35970, 35465, 35568, 35561, 36107, 35851, 35396, 35563, 35569, 34846, 35841, 35827, 35600, 35399, 35983, 35514, 35752, 35734, 35793, 35457, 35993, 35578, 35646, 35939, 36590, 35922, 35932, 35896, 35471, 35246, 35336, 36087, 35651, 35320, 35297, 35382, 35054, 35567, 35884, 35350, 35512, 35143, 35470, 35270, 35143, 35039, 35263, 34788, 35926, 35557, 35086, 35258, 35541, 35262, 34866, 34927, 34769, 35433, 35505, 35067, 35713, 35716, 35871, 34881, 34914, 35206, 34771, 35075, 35360, 35306, 35175, 35133, 35608, 35737, 35275, 35590, 35509, 34458, 34816, 35275, 35027, 34984, 35275, 35312, 34663, 34366, 34570, 34263, 34756, 34720, 34514, 34754, 34746, 34720, 34767, 34332, 34660, 35030, 34887, 34934, 34736, 34451, 34706, 34450, 34596, 34432, 34489, 34293, 34911, 34382, 34355, 34866, 34449, 34041, 34577, 34624, 34290, 34182, 34256, 34322, 34403, 34185, 34399, 34771, 34030, 34383, 34367, 34167, 33883, 33936, 33901, 34053, 33821, 33929, 33885, 34214, 34032, 34430, 33697, 34170, 34003, 34030, 34412, 34541, 33573, 34195, 34126, 34715, 33940, 34680, 34273, 34240, 33911, 34454, 34380, 34379, 33887, 34044, 33850, 34204, 34213, 33897, 34121, 34236, 33773, 33858, 33824, 34496, 34352, 33967, 34177, 34030, 34457, 33695, 33821, 33639, 33681, 34070, 34335, 33764, 33891, 33910, 33802, 34340, 33930, 33356, 33374, 33833, 36601, 34652, 34108, 33503, 33682, 33452, 33435, 33490, 35535, 36362, 35569, 35266, 34883, 34748, 34571, 34620, 34609, 34270, 34158, 34920, 34625, 34335, 34176, 34196, 34242, 34128, 34606, 34196, 34601, 34647, 34659, 33914, 34154, 34532, 34812, 34773, 34540, 34392, 34301, 34155, 34186, 34028, 34443, 34441, 34093, 34053, 34310, 34094, 33804, 34287, 34499, 34500, 34580, 34620, 34192, 34145, 34506, 34261, 34851, 34373, 34420, 33961, 34781, 34207, 34198, 34253, 34683, 34690, 34362, 34648, 34307, 34188, 34764, 34628, 34401, 34546, 34445, 33956, 34082, 33819, 34407, 35079, 34165, 33981, 34597, 34449, 34255, 34337, 34274, 34134, 34116, 34025, 34098, 34837, 34076, 33710, 33822, 34224, 34282, 34288, 34611],
      "WindowCenter": [9868.0, 9831.0, 9813.0, 9812.0, 9804.0, 9799.0, 9807.0, 9815.0, 9798.0, 9798.0, 9804.0, 9792.0, 9791.0, 9793.0, 9792.0, 9796.0, 9806.0, 9811.0, 9822.0, 9823.0, 9817.0, 9823.0, 9820.0, 9811.0, 9804.0, 9809.0, 9817.0, 9820.0, 9828.0, 9827.0, 9822.0, 9821.0, 9812.0, 9804.0, 9803.0, 9812.0, 9807.0, 9800.0, 9798.0, 9793.0, 9796.0, 9803.0, 9822.0, 9821.0, 9825.0, 9833.0, 9832.0, 9825.0, 9823.0, 9826.0, 9814.0, 9821.0, 9814.0, 9820.0, 9815.0, 9814.0, 9806.0, 9812.0, 9799.0, 9809.0, 9803.0, 9804.0, 9804.0, 9818.0, 9816.0, 9817.0, 9815.0, 9807.0, 9812.0, 9810.0, 9803.0, 9816.0, 9811.0, 9819.0, 9815.0, 9818.0, 9823.0, 9817.0, 9815.0, 9812.0, 9804.0, 9805.0, 9814.0, 9821.0, 9829.0, 9825.0, 9831.0, 9822.0, 9801.0, 9807.0, 9805.0, 9804.0, 9798.0, 9806.0, 9813.0, 9811.0, 9813.0, 9813.0, 9814.0, 9828.0, 9828.0, 9828.0, 9829.0, 9829.0, 9827.0, 9827.0, 9821.0, 9821.0, 9819.0, 9820.0, 9827.0, 9828.0, 9829.0, 9823.0, 9812.0, 9810.0, 9811.0, 9804.0, 9805.0, 9818.0, 9806.0, 9804.0, 9810.0, 9803.0, 9796.0, 9810.0, 9819.0, 9815.0, 9821.0, 9819.0, 9804.0, 9800.0, 9793.0, 9794.0, 9805.0, 9797.0, 9811.0, 9813.0, 9822.0, 9824.0, 9814.0, 9815.0, 9815.0, 9816.0, 9815.0, 9815.0, 9815.0, 9800.0, 9805.0, 9800.0, 9813.0, 9807.0, 9806.0, 9820.0, 9829.0, 9819.0, 9815.0, 9805.0, 9802.0, 9794.0, 9800.0, 9802.0, 9813.0, 9816.0, 9813.0, 9806.0, 9805.0, 9790.0, 9780.0, 9772.0, 9777.0, 9787.0, 9796.0, 9803.0, 9802.0, 9796.0, 9787.0, 9788.0, 9794.0, 9803.0, 9806.0, 9806.0, 9798.0, 9802.0, 9790.0, 9787.0, 9788.0, 9790.0, 9802.0, 9805.0, 9806.0, 9812.0, 9807.0, 9808.0, 9815.0, 9808.0, 9775.0, 9757.0, 9760.0, 9823.0, 9833.0, 9812.0, 9790.0, 9779.0, 9756.0, 9728.0, 9704.0, 9703.0, 9691.0, 9687.0, 9688.0, 9687.0, 9681.0, 9683.0, 9691.0, 9696.0, 9705.0, 9725.0, 9758.0, 9769.0, 9783.0, 9795.0, 9806.0, 9820.0, 9814.0, 9822.0, 9824.0, 9824.0, 9824.0, 9823.0, 9810.0, 9812.0, 9812.0, 9819.0, 9825.0, 9828.0, 9832.0, 9834.0, 9852.0, 9862.0, 9863.0, 9861.0, 9851.0, 9842.0, 9827.0, 9833.0, 9840.0, 9835.0, 9842.0, 9841.0, 9832.0, 9830.0, 9813.0, 9805.0, 9808.0, 9823.0, 9818.0, 9829.0, 9825.0, 9823.0, 9810.0, 9813.0, 9806.0, 9798.0, 9803.0, 9813.0, 9821.0, 9815.0, 9814.0, 9805.0, 9798.0, 9800.0, 9795.0, 9809.0, 9812.0, 9812.0, 9800.0, 9805.0, 9799.0, 9804.0, 9824.0, 9814.0, 9817.0, 9831.0, 9840.0, 9844.0, 9844.0, 9843.0, 9837.0, 9836.0, 9822.0, 9825.0, 9829.0, 9810.0, 9801.0, 9800.0, 9813.0, 9816.0, 9818.0, 9823.0],
