{
  "AcquisitionMatrixPE": 104,
  "AcquisitionNumber": 1,
  "AcquisitionTime": "14:37:34.210000",
  "BandwidthPerPixelPhaseEncode": 16.297,
  "BaseResolution": 104,
  "BodyPartExamined": "BRAIN",
  "ConsistencyInfo": "N4_VE11C_LATEST_20160120",
  "ConversionSoftware": "dcm2niix",
  "ConversionSoftwareVersion": "v1.0.20210317",
  "DerivedVendorReportedEchoSpacing": 0.000590009,
  "DeviceSerialNumber": "166018",
  "DwellTime": 2.1e-06,
  "EchoTime": 0.0376,
  "EchoTrainLength": 104,
  "EffectiveEchoSpacing": 0.000590009,
  "FlipAngle": 68,
  "ImageComments": "Unaliased MB6/PE3/LB",
  "ImageOrientationPatientDICOM": [0.996772, 0.0758563, 0.0262909, -0.0632355, 0.943585, -0.325035],
  "ImageType": [
    "ORIGINAL",
    "PRIMARY",
    "M",
    "MB",
    "ND",
    "MOSAIC"
],
  "ImagingFrequency": 123.197,
  "InPlanePhaseEncodingDirectionDICOM": "COL",
  "InstitutionAddress": "Washington Place 6,NYC,NYC,US,10003",
  "InstitutionName": "NYU - CBI",
  "InstitutionalDepartmentName": "Department",
  "MRAcquisitionType": "2D",
  "MagneticFieldStrength": 3,
  "Manufacturer": "Siemens",
  "ManufacturersModelName": "Prisma",
  "Modality": "MR",
  "MultibandAccelerationFactor": 6,
  "PartialFourier": 1,
  "PatientPosition": "HFS",
  "PercentPhaseFOV": 100,
  "PercentSampling": 100,
  "PhaseEncodingDirection": "j",
  "PhaseEncodingSteps": 104,
  "PhaseResolution": 1,
  "PixelBandwidth": 2290,
  "ProcedureStepDescription": "Investigators^Winawer",
  "ProtocolName": "cmrr_mbepi_s6_2mm_66sl_PA_task-wedgering1",
  "PulseSequenceDetails": "%CustomerSeq%\\cmrr_mbep2d_bold",
  "ReceiveCoilActiveElements": "HC1-7",
  "ReceiveCoilName": "HeadNeck_64",
  "ReconMatrixPE": 104,
  "RepetitionTime": 1,
  "SAR": 0.0957088,
  "ScanOptions": "FS",
  "ScanningSequence": "EP",
  "SequenceName": "epfid2d1_104",
  "SequenceVariant": "SK\\SS",
  "SeriesDescription": "cmrr_mbepi_s6_2mm_66sl_PA_task-wedgering1",
  "SeriesNumber": 10,
  "ShimSetting": [288, -12654, -8449, 331, 31, -124, -218, 20],
  "SliceThickness": 2,
  "SliceTiming": [0, 0.5325, 0.0875, 0.6225, 0.1775, 0.7125, 0.2675, 0.8, 0.355, 0.89, 0.445, 0, 0.5325, 0.0875, 0.6225, 0.1775, 0.7125, 0.2675, 0.8, 0.355, 0.89, 0.445, 0, 0.5325, 0.0875, 0.6225, 0.1775, 0.7125, 0.2675, 0.8, 0.355, 0.89, 0.445, 0, 0.5325, 0.0875, 0.6225, 0.1775, 0.7125, 0.2675, 0.8, 0.355, 0.89, 0.445, 0, 0.5325, 0.0875, 0.6225, 0.1775, 0.7125, 0.2675, 0.8, 0.355, 0.89, 0.445, 0, 0.5325, 0.0875, 0.6225, 0.1775, 0.7125, 0.2675, 0.8, 0.355, 0.89, 0.445],
  "SoftwareVersions": "syngo MR E11",
  "SpacingBetweenSlices": 2,
  "StationName": "AWP166018",
  "TaskName": "wedgering1",
  "TotalReadoutTime": 0.060771,
  "TxRefAmp": 249.756,
  "VendorReportedEchoSpacing": 0.00059,
  "WipMemBlock": "c7e7924a-d711-4e04-9191-5deb041c556c||Sequence: R016 ve11c/master r/8780670; Nov 27 2017 15:05:12 by eja",
  "dcmmeta_affine": [
    [-1.9935442209243774, -0.12647105753421783, 0.098927341401577, 111.25215911865234],
    [-0.1517125517129898, 1.8871707916259766, -0.6446468234062195, -52.29086685180664],
    [0.05258180946111679, 0.6500702500343323, 1.8906728029251099, -69.79417419433594],
    [0.0, 0.0, 0.0, 1.0]
],
  "dcmmeta_reorient_transform": [
    [0.0, -1.0, 0.0, 103.0],
    [1.0, 0.0, 0.0, 0.0],
    [0.0, 0.0, 1.0, 0.0],
    [0.0, 0.0, 0.0, 1.0]
],
  "dcmmeta_shape": [104, 104, 66, 300],
  "dcmmeta_slice_dim": 2,
  "dcmmeta_version": 0.6,
  "global": {
    "const": {
      "AccessionNumber": "Lexd0wxp",
      "AcquisitionMatrix": [104, 0, 0, 104],
      "AngioFlag": "N",
      "BitsAllocated": 16,
      "BitsStored": 16,
      "BodyPartExamined": "BRAIN",
      "Columns": 936,
      "EchoNumbers": 1,
      "EchoTime": 37.6,
      "EchoTrainLength": 104,
      "FlipAngle": 68.0,
      "HighBit": 15,
      "ImageOrientationPatient": [0.99677209696708, 0.07585627863573, 0.02629090526008, -0.063235528105, 0.94358541156218, -0.3250351351351],
      "ImagePositionPatient": [-874.92806574568, -990.26321410898, 245.71826523971],
      "ImageType": [
        "ORIGINAL",
        "PRIMARY",
        "M",
        "MB",
        "ND",
        "MOSAIC"
],
      "ImagedNucleus": "1H",
      "ImagingFrequency": 123.196795,
      "InPlanePhaseEncodingDirection": "COL",
      "MRAcquisitionType": "2D",
      "MagneticFieldStrength": 3.0,
      "Manufacturer": "SIEMENS",
      "ManufacturerModelName": "Prisma",
      "Modality": "MR",
      "NumberOfAverages": 1.0,
      "NumberOfPhaseEncodingSteps": 104,
      "PercentPhaseFieldOfView": 100.0,
      "PercentSampling": 100.0,
      "PerformedProcedureStepStartTime": "141233.009000",
      "PhotometricInterpretation": "MONOCHROME2",
      "PixelBandwidth": 2290.0,
      "PixelRepresentation": 0,
      "PixelSpacing": [2.0, 2.0],
      "ProtocolName": "cmrr_mbepi_s6_2mm_66sl_PA_task-wedgering1",
      "RepetitionTime": 1000.0,
      "Rows": 936,
      "SAR": 0.09570885009109,
      "SamplesPerPixel": 1,
      "ScanOptions": "FS",
      "ScanningSequence": "EP",
      "SequenceName": "epfid2d1_104",
      "SequenceVariant": [
        "SK",
        "SS"
],
      "SeriesDescription": "cmrr_mbepi_s6_2mm_66sl_PA_task-wedgering1",
      "SeriesNumber": 10,
      "SeriesTime": "143844.804000",
      "SliceLocation": -43.621460710853,
      "SliceThickness": 2.0,
      "SmallestImagePixelValue": 0,
      "SoftwareVersions": "syngo MR E11",
      "SpacingBetweenSlices": 1.999999936597,
      "SpecificCharacterSet": "ISO_IR 100",
      "StudyID": "1",
      "StudyTime": "141232.945000",
      "TransmitCoilName": "Body",
      "VariableFlipAngleFlag": "N",
      "WindowCenterWidthExplanation": "Algo1",
      "dBdt": 0.0},
    "slices": {}
  },
  "time": {
    "samples": {
      "AcquisitionNumber": [1, 2, 3, 4, 5, 6, 7, 8, 9, 10, 11, 12, 13, 14, 15, 16, 17, 18, 19, 20, 21, 22, 23, 24, 25, 26, 27, 28, 29, 30, 31, 32, 33, 34, 35, 36, 37, 38, 39, 40, 41, 42, 43, 44, 45, 46, 47, 48, 49, 50, 51, 52, 53, 54, 55, 56, 57, 58, 59, 60, 61, 62, 63, 64, 65, 66, 67, 68, 69, 70, 71, 72, 73, 74, 75, 76, 77, 78, 79, 80, 81, 82, 83, 84, 85, 86, 87, 88, 89, 90, 91, 92, 93, 94, 95, 96, 97, 98, 99, 100, 101, 102, 103, 104, 105, 106, 107, 108, 109, 110, 111, 112, 113, 114, 115, 116, 117, 118, 119, 120, 121, 122, 123, 124, 125, 126, 127, 128, 129, 130, 131, 132, 133, 134, 135, 136, 137, 138, 139, 140, 141, 142, 143, 144, 145, 146, 147, 148, 149, 150, 151, 152, 153, 154, 155, 156, 157, 158, 159, 160, 161, 162, 163, 164, 165, 166, 167, 168, 169, 170, 171, 172, 173, 174, 175, 176, 177, 178, 179, 180, 181, 182, 183, 184, 185, 186, 187, 188, 189, 190, 191, 192, 193, 194, 195, 196, 197, 198, 199, 200, 201, 202, 203, 204, 205, 206, 207, 208, 209, 210, 211, 212, 213, 214, 215, 216, 217, 218, 219, 220, 221, 222, 223, 224, 225, 226, 227, 228, 229, 230, 231, 232, 233, 234, 235, 236, 237, 238, 239, 240, 241, 242, 243, 244, 245, 246, 247, 248, 249, 250, 251, 252, 253, 254, 255, 256, 257, 258, 259, 260, 261, 262, 263, 264, 265, 266, 267, 268, 269, 270, 271, 272, 273, 274, 275, 276, 277, 278, 279, 280, 281, 282, 283, 284, 285, 286, 287, 288, 289, 290, 291, 292, 293, 294, 295, 296, 297, 298, 299, 300],
      "AcquisitionTime": ["143734.210000", "143735.210000", "143736.210000", "143737.210000", "143738.210000", "143739.210000", "143740.210000", "143741.210000", "143742.210000", "143743.210000", "143744.210000", "143745.210000", "143746.210000", "143747.210000", "143748.210000", "143749.210000", "143750.210000", "143751.210000", "143752.210000", "143753.210000", "143754.210000", "143755.210000", "143756.210000", "143757.210000", "143758.210000", "143759.210000", "143800.210000", "143801.210000", "143802.210000", "143803.210000", "143804.210000", "143805.210000", "143806.210000", "143807.210000", "143808.210000", "143809.210000", "143810.210000", "143811.210000", "143812.210000", "143813.210000", "143814.210000", "143815.210000", "143816.210000", "143817.210000", "143818.210000", "143819.210000", "143820.210000", "143821.210000", "143822.210000", "143823.210000", "143824.210000", "143825.210000", "143826.210000", "143827.210000", "143828.210000", "143829.210000", "143830.210000", "143831.210000", "143832.210000", "143833.210000", "143834.210000", "143835.210000", "143836.210000", "143837.210000", "143838.210000", "143839.210000", "143840.210000", "143841.210000", "143842.210000", "143843.210000", "143844.210000", "143845.210000", "143846.210000", "143847.210000", "143848.210000", "143849.210000", "143850.210000", "143851.210000", "143852.210000", "143853.210000", "143854.210000", "143855.210000", "143856.210000", "143857.210000", "143858.210000", "143859.210000", "143900.210000", "143901.210000", "143902.210000", "143903.210000", "143904.210000", "143905.210000", "143906.210000", "143907.210000", "143908.210000", "143909.210000", "143910.210000", "143911.210000", "143912.210000", "143913.210000", "143914.210000", "143915.210000", "143916.210000", "143917.210000", "143918.210000", "143919.210000", "143920.210000", "143921.210000", "143922.210000", "143923.210000", "143924.210000", "143925.210000", "143926.210000", "143927.210000", "143928.210000", "143929.210000", "143930.210000", "143931.210000", "143932.210000", "143933.210000", "143934.210000", "143935.210000", "143936.210000", "143937.210000", "143938.210000", "143939.210000", "143940.210000", "143941.210000", "143942.210000", "143943.210000", "143944.210000", "143945.210000", "143946.210000", "143947.210000", "143948.210000", "143949.210000", "143950.210000", "143951.210000", "143952.210000", "143953.210000", "143954.210000", "143955.210000", "143956.210000", "143957.210000", "143958.210000", "143959.210000", "144000.210000", "144001.210000", "144002.210000", "144003.210000", "144004.210000", "144005.210000", "144006.210000", "144007.210000", "144008.210000", "144009.210000", "144010.210000", "144011.210000", "144012.210000", "144013.210000", "144014.210000", "144015.210000", "144016.210000", "144017.210000", "144018.210000", "144019.210000", "144020.210000", "144021.210000", "144022.210000", "144023.210000", "144024.210000", "144025.210000", "144026.210000", "144027.210000", "144028.210000", "144029.210000", "144030.210000", "144031.210000", "144032.210000", "144033.210000", "144034.210000", "144035.210000", "144036.210000", "144037.210000", "144038.210000", "144039.210000", "144040.210000", "144041.210000", "144042.210000", "144043.210000", "144044.210000", "144045.210000", "144046.210000", "144047.210000", "144048.210000", "144049.210000", "144050.210000", "144051.210000", "144052.210000", "144053.210000", "144054.210000", "144055.210000", "144056.210000", "144057.210000", "144058.210000", "144059.210000", "144100.210000", "144101.210000", "144102.210000", "144103.210000", "144104.210000", "144105.210000", "144106.210000", "144107.210000", "144108.210000", "144109.210000", "144110.210000", "144111.210000", "144112.210000", "144113.210000", "144114.210000", "144115.210000", "144116.210000", "144117.210000", "144118.210000", "144119.210000", "144120.210000", "144121.210000", "144122.210000", "144123.210000", "144124.210000", "144125.210000", "144126.210000", "144127.210000", "144128.210000", "144129.210000", "144130.210000", "144131.210000", "144132.210000", "144133.210000", "144134.210000", "144135.210000", "144136.210000", "144137.210000", "144138.210000", "144139.210000", "144140.210000", "144141.210000", "144142.210000", "144143.210000", "144144.210000", "144145.210000", "144146.210000", "144147.210000", "144148.210000", "144149.210000", "144150.210000", "144151.210000", "144152.210000", "144153.210000", "144154.210000", "144155.210000", "144156.210000", "144157.210000", "144158.210000", "144159.210000", "144200.210000", "144201.210000", "144202.210000", "144203.210000", "144204.210000", "144205.210000", "144206.210000", "144207.210000", "144208.210000", "144209.210000", "144210.210000", "144211.210000", "144212.210000", "144213.210000", "144214.210000", "144215.210000", "144216.210000", "144217.210000", "144218.210000", "144219.210000", "144220.210000", "144221.210000", "144222.210000", "144223.210000", "144224.210000", "144225.210000", "144226.210000", "144227.210000", "144228.210000", "144229.210000", "144230.210000", "144231.210000", "144232.210000", "144233.210000"],
      "ContentTime": ["143844.807000", "143844.810000", "143844.813000", "143844.816000", "143844.819000", "143844.826000", "143844.834000", "143844.837000", "143844.840000", "143844.843000", "143844.846000", "143844.849000", "143844.852000", "143844.855000", "143844.858000", "143844.861000", "143844.864000", "143844.867000", "143844.877000", "143844.880000", "143844.883000", "143844.886000", "143844.889000", "143844.892000", "143844.895000", "143844.898000", "143844.901000", "143904.771000", "143904.774000", "143904.777000", "143904.780000", "143904.783000", "143904.786000", "143904.789000", "143904.792000", "143904.795000", "143904.798000", "143904.801000", "143904.804000", "143904.807000", "143904.810000", "143904.813000", "143904.815000", "143904.818000", "143904.821000", "143904.824000", "143904.827000", "143904.830000", "143904.833000", "143904.836000", "143904.839000", "143904.842000", "143904.845000", "143904.848000", "143904.851000", "143924.772000", "143924.775000", "143924.778000", "143924.781000", "143924.793000", "143924.796000", "143924.798000", "143924.801000", "143924.804000", "143924.807000", "143924.810000", "143924.813000", "143924.816000", "143924.819000", "143924.822000", "143924.825000", "143924.828000", "143924.831000", "143924.834000", "143924.837000", "143924.840000", "143924.843000", "143924.846000", "143924.849000", "143924.852000", "143924.855000", "143924.858000", "143924.860000", "143924.863000", "143944.771000", "143944.774000", "143944.777000", "143944.780000", "143944.783000", "143944.791000", "143944.794000", "143944.797000", "143944.800000", "143944.803000", "143944.806000", "143944.809000", "143944.812000", "143944.815000", "143944.818000", "143944.821000", "143944.824000", "143944.827000", "143944.830000", "143944.833000", "143944.836000", "143944.839000", "143944.842000", "143944.845000", "143944.848000", "143944.851000", "143944.854000", "143944.857000", "144004.771000", "144004.774000", "144004.777000", "144004.780000", "144004.783000", "144004.786000", "144004.789000", "144004.792000", "144004.795000", "144004.798000", "144004.801000", "144004.804000", "144004.807000", "144004.810000", "144004.813000", "144004.816000", "144004.819000", "144004.822000", "144004.825000", "144004.828000", "144004.831000", "144004.834000", "144004.837000", "144004.840000", "144004.843000", "144004.846000", "144004.849000", "144004.852000", "144024.771000", "144024.774000", "144024.786000", "144024.789000", "144024.792000", "144024.795000", "144024.798000", "144024.801000", "144024.804000", "144024.807000", "144024.810000", "144024.813000", "144024.816000", "144024.819000", "144024.822000", "144024.825000", "144024.828000", "144024.831000", "144024.834000", "144024.837000", "144024.840000", "144024.843000", "144024.846000", "144024.849000", "144024.852000", "144024.855000", "144024.858000", "144024.861000", "144044.771000", "144044.774000", "144044.777000", "144044.780000", "144044.783000", "144044.786000", "144044.789000", "144044.792000", "144044.795000", "144044.798000", "144044.801000", "144044.804000", "144044.807000", "144044.810000", "144044.813000", "144044.816000", "144044.819000", "144044.822000", "144044.825000", "144044.828000", "144044.831000", "144104.771000", "144104.774000", "144104.777000", "144104.780000", "144104.783000", "144104.786000", "144104.789000", "144104.792000", "144104.795000", "144104.798000", "144104.801000", "144104.804000", "144104.811000", "144104.814000", "144104.817000", "144104.820000", "144104.823000", "144104.825000", "144104.828000", "144104.831000", "144124.771000", "144124.774000", "144124.777000", "144124.780000", "144124.783000", "144124.786000", "144124.789000", "144124.792000", "144124.795000", "144124.798000", "144124.801000", "144124.804000", "144124.807000", "144124.810000", "144124.813000", "144124.816000", "144124.819000", "144124.822000", "144124.825000", "144124.828000", "144144.772000", "144144.776000", "144144.779000", "144144.782000", "144144.785000", "144144.788000", "144144.791000", "144144.794000", "144144.797000", "144144.800000", "144144.803000", "144144.806000", "144144.809000", "144144.821000", "144144.825000", "144144.828000", "144144.831000", "144144.834000", "144144.837000", "144144.840000", "144204.771000", "144204.774000", "144204.777000", "144204.780000", "144204.783000", "144204.786000", "144204.789000", "144204.792000", "144204.795000", "144204.798000", "144204.801000", "144204.804000", "144204.807000", "144204.810000", "144204.813000", "144204.816000", "144204.819000", "144204.822000", "144204.825000", "144204.828000", "144224.771000", "144224.774000", "144224.777000", "144224.780000", "144224.783000", "144224.786000", "144224.789000", "144224.792000", "144224.795000", "144224.798000", "144224.801000", "144224.804000", "144224.807000", "144224.810000", "144224.813000", "144224.816000", "144224.819000", "144224.822000", "144224.825000", "144224.828000", "144235.339000", "144235.342000", "144235.345000", "144235.348000", "144235.351000", "144235.354000", "144235.357000", "144235.360000", "144235.363000", "144235.366000", "144235.369000"],
      "InstanceCreationTime": ["143844.807000", "143844.810000", "143844.813000", "143844.816000", "143844.819000", "143844.826000", "143844.834000", "143844.837000", "143844.840000", "143844.843000", "143844.846000", "143844.849000", "143844.852000", "143844.855000", "143844.858000", "143844.861000", "143844.864000", "143844.867000", "143844.877000", "143844.880000", "143844.883000", "143844.886000", "143844.889000", "143844.892000", "143844.895000", "143844.898000", "143844.901000", "143904.771000", "143904.774000", "143904.777000", "143904.780000", "143904.783000", "143904.786000", "143904.789000", "143904.792000", "143904.795000", "143904.798000", "143904.801000", "143904.804000", "143904.807000", "143904.810000", "143904.813000", "143904.815000", "143904.818000", "143904.821000", "143904.824000", "143904.827000", "143904.830000", "143904.833000", "143904.836000", "143904.839000", "143904.842000", "143904.845000", "143904.848000", "143904.851000", "143924.772000", "143924.775000", "143924.778000", "143924.781000", "143924.793000", "143924.796000", "143924.798000", "143924.801000", "143924.804000", "143924.807000", "143924.810000", "143924.813000", "143924.816000", "143924.819000", "143924.822000", "143924.825000", "143924.828000", "143924.831000", "143924.834000", "143924.837000", "143924.840000", "143924.843000", "143924.846000", "143924.849000", "143924.852000", "143924.855000", "143924.858000", "143924.860000", "143924.863000", "143944.771000", "143944.774000", "143944.777000", "143944.780000", "143944.783000", "143944.791000", "143944.794000", "143944.797000", "143944.800000", "143944.803000", "143944.806000", "143944.809000", "143944.812000", "143944.815000", "143944.818000", "143944.821000", "143944.824000", "143944.827000", "143944.830000", "143944.833000", "143944.836000", "143944.839000", "143944.842000", "143944.845000", "143944.848000", "143944.851000", "143944.854000", "143944.857000", "144004.771000", "144004.774000", "144004.777000", "144004.780000", "144004.783000", "144004.786000", "144004.789000", "144004.792000", "144004.795000", "144004.798000", "144004.801000", "144004.804000", "144004.807000", "144004.810000", "144004.813000", "144004.816000", "144004.819000", "144004.822000", "144004.825000", "144004.828000", "144004.831000", "144004.834000", "144004.837000", "144004.840000", "144004.843000", "144004.846000", "144004.849000", "144004.852000", "144024.771000", "144024.774000", "144024.786000", "144024.789000", "144024.792000", "144024.795000", "144024.798000", "144024.801000", "144024.804000", "144024.807000", "144024.810000", "144024.813000", "144024.816000", "144024.819000", "144024.822000", "144024.825000", "144024.828000", "144024.831000", "144024.834000", "144024.837000", "144024.840000", "144024.843000", "144024.846000", "144024.849000", "144024.852000", "144024.855000", "144024.858000", "144024.861000", "144044.771000", "144044.774000", "144044.777000", "144044.780000", "144044.783000", "144044.786000", "144044.789000", "144044.792000", "144044.795000", "144044.798000", "144044.801000", "144044.804000", "144044.807000", "144044.810000", "144044.813000", "144044.816000", "144044.819000", "144044.822000", "144044.825000", "144044.828000", "144044.831000", "144104.771000", "144104.774000", "144104.777000", "144104.780000", "144104.783000", "144104.786000", "144104.789000", "144104.792000", "144104.795000", "144104.798000", "144104.801000", "144104.804000", "144104.811000", "144104.814000", "144104.817000", "144104.820000", "144104.823000", "144104.825000", "144104.828000", "144104.831000", "144124.771000", "144124.774000", "144124.777000", "144124.780000", "144124.783000", "144124.786000", "144124.789000", "144124.792000", "144124.795000", "144124.798000", "144124.801000", "144124.804000", "144124.807000", "144124.810000", "144124.813000", "144124.816000", "144124.819000", "144124.822000", "144124.825000", "144124.828000", "144144.772000", "144144.776000", "144144.779000", "144144.782000", "144144.785000", "144144.788000", "144144.791000", "144144.794000", "144144.797000", "144144.800000", "144144.803000", "144144.806000", "144144.809000", "144144.821000", "144144.825000", "144144.828000", "144144.831000", "144144.834000", "144144.837000", "144144.840000", "144204.771000", "144204.774000", "144204.777000", "144204.780000", "144204.783000", "144204.786000", "144204.789000", "144204.792000", "144204.795000", "144204.798000", "144204.801000", "144204.804000", "144204.807000", "144204.810000", "144204.813000", "144204.816000", "144204.819000", "144204.822000", "144204.825000", "144204.828000", "144224.771000", "144224.774000", "144224.777000", "144224.780000", "144224.783000", "144224.786000", "144224.789000", "144224.792000", "144224.795000", "144224.798000", "144224.801000", "144224.804000", "144224.807000", "144224.810000", "144224.813000", "144224.816000", "144224.819000", "144224.822000", "144224.825000", "144224.828000", "144235.339000", "144235.342000", "144235.345000", "144235.348000", "144235.351000", "144235.354000", "144235.357000", "144235.360000", "144235.363000", "144235.366000", "144235.369000"],
      "InstanceNumber": [1, 2, 3, 4, 5, 6, 7, 8, 9, 10, 11, 12, 13, 14, 15, 16, 17, 18, 19, 20, 21, 22, 23, 24, 25, 26, 27, 28, 29, 30, 31, 32, 33, 34, 35, 36, 37, 38, 39, 40, 41, 42, 43, 44, 45, 46, 47, 48, 49, 50, 51, 52, 53, 54, 55, 56, 57, 58, 59, 60, 61, 62, 63, 64, 65, 66, 67, 68, 69, 70, 71, 72, 73, 74, 75, 76, 77, 78, 79, 80, 81, 82, 83, 84, 85, 86, 87, 88, 89, 90, 91, 92, 93, 94, 95, 96, 97, 98, 99, 100, 101, 102, 103, 104, 105, 106, 107, 108, 109, 110, 111, 112, 113, 114, 115, 116, 117, 118, 119, 120, 121, 122, 123, 124, 125, 126, 127, 128, 129, 130, 131, 132, 133, 134, 135, 136, 137, 138, 139, 140, 141, 142, 143, 144, 145, 146, 147, 148, 149, 150, 151, 152, 153, 154, 155, 156, 157, 158, 159, 160, 161, 162, 163, 164, 165, 166, 167, 168, 169, 170, 171, 172, 173, 174, 175, 176, 177, 178, 179, 180, 181, 182, 183, 184, 185, 186, 187, 188, 189, 190, 191, 192, 193, 194, 195, 196, 197, 198, 199, 200, 201, 202, 203, 204, 205, 206, 207, 208, 209, 210, 211, 212, 213, 214, 215, 216, 217, 218, 219, 220, 221, 222, 223, 224, 225, 226, 227, 228, 229, 230, 231, 232, 233, 234, 235, 236, 237, 238, 239, 240, 241, 242, 243, 244, 245, 246, 247, 248, 249, 250, 251, 252, 253, 254, 255, 256, 257, 258, 259, 260, 261, 262, 263, 264, 265, 266, 267, 268, 269, 270, 271, 272, 273, 274, 275, 276, 277, 278, 279, 280, 281, 282, 283, 284, 285, 286, 287, 288, 289, 290, 291, 292, 293, 294, 295, 296, 297, 298, 299, 300],
      "LargestImagePixelValue": [36004, 35443, 35444, 34939, 35168, 35209, 34988, 35047, 34467, 34606, 35001, 34996, 35332, 35248, 34727, 34235, 34479, 34612, 35131, 35133, 34919, 35313, 34775, 34549, 35368, 35405, 35290, 35424, 35100, 34639, 34348, 34213, 34684, 34867, 34695, 34520, 34688, 35525, 35208, 35109, 34362, 34248, 34619, 34584, 34521, 34637, 34977, 34045, 34398, 34715, 34417, 34471, 34801, 34485, 34623, 35237, 34055, 34685, 34757, 34346, 34409, 34910, 34589, 34844, 34257, 34623, 34331, 34465, 34699, 34793, 34382, 34939, 34769, 34469, 34274, 34925, 35093, 34276, 34328, 34746, 34219, 34567, 34763, 34051, 34277, 34095, 34019, 34415, 34552, 34688, 34598, 34791, 34371, 34632, 34401, 34619, 34652, 34629, 34729, 34303, 34234, 34428, 34396, 34334, 34423, 34319, 34434, 34696, 34739, 34540, 34860, 34881, 34823, 34804, 35100, 34880, 34544, 34124, 34792, 35060, 35141, 34860, 34869, 34974, 35593, 34933, 34251, 34254, 34519, 34937, 34428, 34075, 34520, 34718, 34229, 34435, 34486, 34518, 34904, 34199, 33993, 34518, 34988, 34392, 34206, 34423, 34192, 34521, 34634, 34007, 34239, 34400, 34482, 34508, 34472, 34507, 34365, 34848, 34941, 34244, 34286, 34068, 34468, 34331, 34529, 34935, 34632, 34843, 34647, 34590, 34681, 34556, 34707, 34595, 34333, 34987, 34559, 34685, 34660, 34561, 34062, 34781, 34304, 34908, 34321, 34612, 34369, 34617, 34477, 34800, 34350, 34339, 34485, 34468, 34607, 34878, 34826, 34131, 34848, 34888, 34430, 34281, 34501, 34326, 34955, 34671, 34651, 34564, 34414, 34591, 34353, 34688, 34043, 34247, 34568, 34820, 34552, 34607, 34648, 34780, 34527, 34223, 34295, 34301, 34446, 34194, 34436, 34855, 34323, 34619, 34721, 34480, 34463, 34263, 34244, 34375, 34625, 34745, 34461, 34448, 34461, 34806, 34912, 34202, 34428, 34310, 34688, 34639, 35041, 34681, 34073, 34467, 34601, 34621, 34643, 34708, 34031, 34239, 34669, 34705, 34412, 34435, 34771, 34130, 34304, 34143, 34559, 34867, 34840, 34450, 34109, 34591, 34577, 34720, 34652, 34791, 34963, 34561, 34161, 34051, 34784, 34900, 34950, 34923, 34736, 34540, 34383, 34464, 34887, 34613, 34867, 34307, 34420, 34752, 35073, 34829, 34688, 34291, 34211, 34310],
      "WindowCenter": [9889.0, 9862.0, 9860.0, 9862.0, 9869.0, 9885.0, 9881.0, 9898.0, 9896.0, 9905.0, 9920.0, 9922.0, 9925.0, 9920.0, 9912.0, 9898.0, 9904.0, 9911.0, 9918.0, 9923.0, 9921.0, 9937.0, 9939.0, 9934.0, 9944.0, 9936.0, 9922.0, 9927.0, 9929.0, 9916.0, 9916.0, 9917.0, 9917.0, 9922.0, 9923.0, 9917.0, 9913.0, 9914.0, 9902.0, 9900.0, 9887.0, 9886.0, 9878.0, 9876.0, 9884.0, 9886.0, 9891.0, 9880.0, 9879.0, 9875.0, 9865.0, 9856.0, 9853.0, 9853.0, 9863.0, 9878.0, 9869.0, 9877.0, 9880.0, 9861.0, 9860.0, 9862.0, 9856.0, 9865.0, 9853.0, 9866.0, 9863.0, 9868.0, 9867.0, 9865.0, 9859.0, 9872.0, 9874.0, 9876.0, 9877.0, 9884.0, 9876.0, 9868.0, 9861.0, 9864.0, 9852.0, 9857.0, 9857.0, 9851.0, 9865.0, 9866.0, 9860.0, 9874.0, 9876.0, 9877.0, 9876.0, 9881.0, 9867.0, 9858.0, 9856.0, 9858.0, 9864.0, 9867.0, 9875.0, 9876.0, 9879.0, 9886.0, 9881.0, 9880.0, 9879.0, 9877.0, 9876.0, 9877.0, 9876.0, 9877.0, 9893.0, 9902.0, 9903.0, 9911.0, 9912.0, 9904.0, 9897.0, 9892.0, 9897.0, 9902.0, 9910.0, 9910.0, 9895.0, 9887.0, 9897.0, 9888.0, 9880.0, 9864.0, 9869.0, 9881.0, 9876.0, 9872.0, 9879.0, 9875.0, 9867.0, 9874.0, 9858.0, 9858.0, 9857.0, 9849.0, 9850.0, 9867.0, 9875.0, 9870.0, 9871.0, 9873.0, 9853.0, 9851.0, 9847.0, 9835.0, 9834.0, 9838.0, 9843.0, 9848.0, 9856.0, 9856.0, 9852.0, 9855.0, 9853.0, 9844.0, 9850.0, 9851.0, 9859.0, 9860.0, 9866.0, 9873.0, 9860.0, 9858.0, 9856.0, 9856.0, 9858.0, 9865.0, 9868.0, 9870.0, 9877.0, 9885.0, 9870.0, 9875.0, 9869.0, 9868.0, 9863.0, 9875.0, 9871.0, 9884.0, 9882.0, 9895.0, 9889.0, 9887.0, 9885.0, 9884.0, 9873.0, 9871.0, 9879.0, 9879.0, 9878.0, 9885.0, 9892.0, 9884.0, 9895.0, 9896.0, 9897.0, 9882.0, 9879.0, 9875.0, 9886.0, 9887.0, 9898.0, 9901.0, 9901.0, 9892.0, 9890.0, 9882.0, 9865.0, 9864.0, 9861.0, 9859.0, 9866.0, 9869.0, 9876.0, 9877.0, 9882.0, 9882.0, 9874.0, 9873.0, 9864.0, 9855.0, 9861.0, 9867.0, 9853.0, 9859.0, 9867.0, 9868.0, 9869.0, 9871.0, 9873.0, 9873.0, 9880.0, 9885.0, 9879.0, 9879.0, 9879.0, 9870.0, 9875.0, 9870.0, 9869.0, 9873.0, 9889.0, 9895.0, 9903.0, 9898.0, 9885.0, 9882.0, 9880.0, 9880.0, 9881.0, 9879.0, 9875.0, 9885.0, 9891.0, 9891.0, 9889.0, 9889.0, 9887.0, 9881.0, 9890.0, 9891.0, 9907.0, 9917.0, 9909.0, 9901.0, 9892.0, 9883.0, 9873.0, 9877.0, 9878.0, 9878.0, 9885.0, 9888.0, 9892.0, 9889.0, 9907.0, 9907.0, 9907.0, 9905.0, 9905.0, 9892.0, 9891.0, 9891.0, 9898.0, 9898.0, 9899.0, 9894.0, 9898.0, 9896.0, 9886.0, 9870.0, 9870.0, 9864.0, 9863.0, 9873.0],
