{
  "AcquisitionMatrixPE": 104,
  "AcquisitionNumber": 1,
  "AcquisitionTime": "11:28:22.485000",
  "BandwidthPerPixelPhaseEncode": 16.297,
  "BaseResolution": 104,
  "BodyPartExamined": "BRAIN",
  "CoilString": "HC2_4_6_7;NC2",
  "ConsistencyInfo": "N4_VE11C_LATEST_20160120",
  "ConversionSoftware": "dcm2niix",
  "ConversionSoftwareVersion": "v1.0.20190902",
  "DerivedVendorReportedEchoSpacing": 0.000590009,
  "DeviceSerialNumber": "166018",
  "DwellTime": 2.1e-06,
  "EchoTime": 0.0376,
  "EchoTrainLength": 104,
  "EffectiveEchoSpacing": 0.000590009,
  "FlipAngle": 68,
  "ImageComments": "Unaliased_MB6_PE3_LB",
  "ImageOrientationPatientDICOM": [0.998319, 0.0136682, 0.0563213, -0.00714394, 0.993403, -0.114453],
  "ImageType": [
    "ORIGINAL",
    "PRIMARY",
    "M",
    "MB",
    "ND",
    "MOSAIC"
],
  "ImagingFrequency": 123.191,
  "InPlanePhaseEncodingDirectionDICOM": "COL",
  "InstitutionAddress": "Washington_Place_6_NYC_NYC_US_10003",
  "InstitutionName": "NYU_-_CBI",
  "InstitutionalDepartmentName": "Department",
  "MRAcquisitionType": "2D",
  "MagneticFieldStrength": 3,
  "Manufacturer": "Siemens",
  "ManufacturersModelName": "Prisma",
  "Modality": "MR",
  "MultibandAccelerationFactor": 6,
  "PartialFourier": 1,
  "PatientPosition": "HFS",
  "PercentPhaseFOV": 100,
  "PhaseEncodingDirection": "j",
  "PhaseEncodingSteps": 104,
  "PhaseResolution": 1,
  "PixelBandwidth": 2290,
  "ProcedureStepDescription": "Investigators_Winawer",
  "ProtocolName": "cmrr_mbepi_s6_2mm_66sl_PA_task-prf",
  "PulseSequenceDetails": "%CustomerSeq%_cmrr_mbep2d_bold",
  "ReceiveCoilActiveElements": "HC2,4,6,7;NC2",
  "ReceiveCoilName": "HeadNeck_64",
  "ReconMatrixPE": 104,
  "RepetitionTime": 1,
  "SAR": 0.0600589,
  "ScanOptions": "FS",
  "ScanningSequence": "EP",
  "SequenceName": "epfid2d1_104",
  "SequenceVariant": "SK_SS",
  "SeriesDescription": "cmrr_mbepi_s6_2mm_66sl_PA_task-prf",
  "SeriesNumber": 22,
  "ShimSetting": [276, -12609, -8462, 556, 12, 147, 24, -29],
  "SliceThickness": 2,
  "SliceTiming": [0, 0.535, 0.09, 0.6225, 0.1775, 0.7125, 0.2675, 0.8025, 0.355, 0.89, 0.445, 0, 0.535, 0.09, 0.6225, 0.1775, 0.7125, 0.2675, 0.8025, 0.355, 0.89, 0.445, 0, 0.535, 0.09, 0.6225, 0.1775, 0.7125, 0.2675, 0.8025, 0.355, 0.89, 0.445, 0, 0.535, 0.09, 0.6225, 0.1775, 0.7125, 0.2675, 0.8025, 0.355, 0.89, 0.445, 0, 0.535, 0.09, 0.6225, 0.1775, 0.7125, 0.2675, 0.8025, 0.355, 0.89, 0.445, 0, 0.535, 0.09, 0.6225, 0.1775, 0.7125, 0.2675, 0.8025, 0.355, 0.89, 0.445],
  "SoftwareVersions": "syngo_MR_E11",
  "SpacingBetweenSlices": 2,
  "StationName": "AWP166018",
  "TaskName": "prf",
  "TotalReadoutTime": 0.060771,
  "TxRefAmp": 210.784,
  "VendorReportedEchoSpacing": 0.00059,
  "WipMemBlock": "aa653d72-c920-413e-8a58-297189b94cd0||Sequence: R016 ve11c/master r/8780670; Nov 27 2017 15:05:12 by eja",
  "dcmmeta_affine": [
    [-1.996638298034668, -0.014287878759205341, 0.1150282472372055, 106.96871185302734],
    [-0.027336489409208298, 1.9868059158325195, -0.2277165651321411, -80.09649658203125],
    [0.11264261603355408, 0.22890605032444, 1.9836616516113281, -66.66742706298828],
    [0.0, 0.0, 0.0, 1.0]
],
  "dcmmeta_reorient_transform": [
    [0.0, -1.0, 0.0, 103.0],
    [1.0, 0.0, 0.0, 0.0],
    [0.0, 0.0, 1.0, 0.0],
    [0.0, 0.0, 0.0, 1.0]
],
  "dcmmeta_shape": [104, 104, 66, 192],
  "dcmmeta_slice_dim": 2,
  "dcmmeta_version": 0.6,
  "global": {
    "const": {
      "AccessionNumber": "k7gfkyn9",
      "AcquisitionMatrix": [104, 0, 0, 104],
      "AngioFlag": "N",
      "BitsAllocated": 16,
      "BitsStored": 16,
      "BodyPartExamined": "BRAIN",
      "Columns": 936,
      "EchoNumbers": 1,
      "EchoTime": 37.6,
      "EchoTrainLength": 104,
      "FlipAngle": 68.0,
      "HighBit": 15,
      "ImageOrientationPatient": [0.99831913210548, 0.01366824469194, 0.05632130644077, -0.0071439392315, 0.99340297458014, -0.1144530219242],
      "ImagePositionPatient": [-930.15482098988, -962.42776997279, 5.2754862845493],
      "ImageType": [
        "ORIGINAL",
        "PRIMARY",
        "M",
        "MB",
        "ND",
        "MOSAIC"
],
      "ImagedNucleus": "1H",
      "ImagingFrequency": 123.190741,
      "InPlanePhaseEncodingDirection": "COL",
      "MRAcquisitionType": "2D",
      "MagneticFieldStrength": 3.0,
      "Manufacturer": "SIEMENS",
      "ManufacturerModelName": "Prisma",
      "Modality": "MR",
      "NumberOfAverages": 1.0,
      "NumberOfPhaseEncodingSteps": 104,
      "PercentPhaseFieldOfView": 100.0,
      "PercentSampling": 100.0,
      "PerformedProcedureStepStartTime": "104151.005000",
      "PhotometricInterpretation": "MONOCHROME2",
      "PixelBandwidth": 2290.0,
      "PixelRepresentation": 0,
      "PixelSpacing": [2.0, 2.0],
      "ProtocolName": "cmrr_mbepi_s6_2mm_66sl_PA_task-prf",
      "RepetitionTime": 1000.0,
      "Rows": 936,
      "SAR": 0.06005889938346,
      "SamplesPerPixel": 1,
      "ScanOptions": "FS",
      "ScanningSequence": "EP",
      "SequenceName": "epfid2d1_104",
      "SequenceVariant": [
        "SK",
        "SS"
],
      "SeriesDescription": "cmrr_mbepi_s6_2mm_66sl_PA_task-prf",
      "SeriesNumber": 22,
      "SeriesTime": "112912.972000",
      "SliceLocation": -50.850944948111,
      "SliceThickness": 2.0,
      "SmallestImagePixelValue": 0,
      "SoftwareVersions": "syngo MR E11",
      "SpacingBetweenSlices": 1.9999999725694,
      "SpecificCharacterSet": "ISO_IR 100",
      "StudyID": "2",
      "StudyTime": "104150.948000",
      "TransmitCoilName": "Body",
      "VariableFlipAngleFlag": "N",
      "WindowCenterWidthExplanation": "Algo1",
      "dBdt": 0.0},
    "slices": {}
  },
  "time": {
    "samples": {
      "AcquisitionNumber": [1, 2, 3, 4, 5, 6, 7, 8, 9, 10, 11, 12, 13, 14, 15, 16, 17, 18, 19, 20, 21, 22, 23, 24, 25, 26, 27, 28, 29, 30, 31, 32, 33, 34, 35, 36, 37, 38, 39, 40, 41, 42, 43, 44, 45, 46, 47, 48, 49, 50, 51, 52, 53, 54, 55, 56, 57, 58, 59, 60, 61, 62, 63, 64, 65, 66, 67, 68, 69, 70, 71, 72, 73, 74, 75, 76, 77, 78, 79, 80, 81, 82, 83, 84, 85, 86, 87, 88, 89, 90, 91, 92, 93, 94, 95, 96, 97, 98, 99, 100, 101, 102, 103, 104, 105, 106, 107, 108, 109, 110, 111, 112, 113, 114, 115, 116, 117, 118, 119, 120, 121, 122, 123, 124, 125, 126, 127, 128, 129, 130, 131, 132, 133, 134, 135, 136, 137, 138, 139, 140, 141, 142, 143, 144, 145, 146, 147, 148, 149, 150, 151, 152, 153, 154, 155, 156, 157, 158, 159, 160, 161, 162, 163, 164, 165, 166, 167, 168, 169, 170, 171, 172, 173, 174, 175, 176, 177, 178, 179, 180, 181, 182, 183, 184, 185, 186, 187, 188, 189, 190, 191, 192],
      "AcquisitionTime": ["112822.485000", "112823.485000", "112824.485000", "112825.485000", "112826.485000", "112827.485000", "112828.485000", "112829.485000", "112830.485000", "112831.485000", "112832.485000", "112833.485000", "112834.485000", "112835.485000", "112836.485000", "112837.485000", "112838.485000", "112839.485000", "112840.485000", "112841.485000", "112842.485000", "112843.485000", "112844.485000", "112845.485000", "112846.485000", "112847.485000", "112848.485000", "112849.485000", "112850.485000", "112851.485000", "112852.485000", "112853.485000", "112854.485000", "112855.485000", "112856.485000", "112857.485000", "112858.485000", "112859.485000", "112900.485000", "112901.485000", "112902.485000", "112903.485000", "112904.485000", "112905.485000", "112906.485000", "112907.485000", "112908.485000", "112909.485000", "112910.485000", "112911.485000", "112912.485000", "112913.485000", "112914.485000", "112915.485000", "112916.485000", "112917.485000", "112918.485000", "112919.485000", "112920.485000", "112921.485000", "112922.485000", "112923.485000", "112924.485000", "112925.485000", "112926.485000", "112927.485000", "112928.485000", "112929.485000", "112930.485000", "112931.485000", "112932.485000", "112933.485000", "112934.485000", "112935.485000", "112936.485000", "112937.485000", "112938.485000", "112939.485000", "112940.485000", "112941.485000", "112942.485000", "112943.485000", "112944.485000", "112945.485000", "112946.485000", "112947.485000", "112948.485000", "112949.485000", "112950.485000", "112951.485000", "112952.485000", "112953.485000", "112954.485000", "112955.485000", "112956.485000", "112957.485000", "112958.485000", "112959.485000", "113000.485000", "113001.485000", "113002.485000", "113003.485000", "113004.485000", "113005.485000", "113006.485000", "113007.485000", "113008.485000", "113009.485000", "113010.485000", "113011.485000", "113012.485000", "113013.485000", "113014.485000", "113015.485000", "113016.485000", "113017.485000", "113018.485000", "113019.485000", "113020.485000", "113021.485000", "113022.485000", "113023.485000", "113024.485000", "113025.485000", "113026.485000", "113027.485000", "113028.485000", "113029.485000", "113030.485000", "113031.485000", "113032.485000", "113033.485000", "113034.485000", "113035.485000", "113036.485000", "113037.485000", "113038.485000", "113039.485000", "113040.485000", "113041.485000", "113042.485000", "113043.485000", "113044.485000", "113045.485000", "113046.485000", "113047.485000", "113048.485000", "113049.485000", "113050.485000", "113051.485000", "113052.485000", "113053.485000", "113054.485000", "113055.485000", "113056.485000", "113057.485000", "113058.485000", "113059.485000", "113100.485000", "113101.485000", "113102.485000", "113103.485000", "113104.485000", "113105.485000", "113106.485000", "113107.485000", "113108.485000", "113109.485000", "113110.485000", "113111.485000", "113112.485000", "113113.485000", "113114.485000", "113115.485000", "113116.485000", "113117.485000", "113118.485000", "113119.485000", "113120.485000", "113121.485000", "113122.485000", "113123.485000", "113124.485000", "113125.485000", "113126.485000", "113127.485000", "113128.485000", "113129.485000", "113130.485000", "113131.485000", "113132.485000", "113133.485000"],
      "ContentTime": ["112912.974000", "112912.978000", "112912.981000", "112912.984000", "112912.989000", "112912.991000", "112912.994000", "112912.997000", "112913.001000", "112913.004000", "112913.007000", "112913.010000", "112913.016000", "112913.019000", "112913.022000", "112913.024000", "112913.027000", "112913.030000", "112913.033000", "112913.036000", "112913.038000", "112913.041000", "112913.044000", "112913.047000", "112913.050000", "112913.053000", "112913.055000", "112913.058000", "112913.061000", "112913.064000", "112913.067000", "112913.070000", "112913.072000", "112913.075000", "112913.078000", "112913.081000", "112913.084000", "112913.087000", "112932.942000", "112932.954000", "112932.957000", "112932.960000", "112932.963000", "112932.966000", "112932.968000", "112932.971000", "112932.974000", "112932.977000", "112932.980000", "112932.983000", "112932.986000", "112932.988000", "112932.991000", "112932.994000", "112932.997000", "112933.001000", "112933.004000", "112933.007000", "112933.010000", "112933.012000", "112933.015000", "112933.018000", "112933.021000", "112933.024000", "112933.028000", "112933.032000", "112933.036000", "112933.039000", "112933.049000", "112952.942000", "112952.945000", "112952.948000", "112952.951000", "112952.954000", "112952.956000", "112952.959000", "112952.962000", "112952.965000", "112952.968000", "112952.971000", "112952.974000", "112952.976000", "112952.979000", "112952.982000", "112952.985000", "112952.988000", "112952.997000", "112953.001000", "112953.004000", "113012.942000", "113012.945000", "113012.948000", "113012.951000", "113012.953000", "113012.956000", "113012.964000", "113012.967000", "113012.969000", "113012.983000", "113012.986000", "113012.989000", "113012.992000", "113012.995000", "113012.997000", "113013.001000", "113013.004000", "113013.007000", "113013.010000", "113013.013000", "113032.942000", "113032.945000", "113032.948000", "113032.951000", "113032.954000", "113032.956000", "113032.959000", "113032.962000", "113032.966000", "113032.969000", "113032.972000", "113032.974000", "113032.977000", "113032.980000", "113032.983000", "113032.986000", "113032.989000", "113032.992000", "113032.995000", "113032.998000", "113052.942000", "113052.945000", "113052.948000", "113052.951000", "113052.953000", "113052.956000", "113052.959000", "113052.962000", "113052.965000", "113052.968000", "113052.971000", "113052.974000", "113052.976000", "113052.979000", "113052.982000", "113052.985000", "113052.988000", "113052.991000", "113052.994000", "113052.997000", "113112.942000", "113112.945000", "113112.948000", "113112.951000", "113112.953000", "113112.956000", "113112.959000", "113112.962000", "113112.965000", "113112.968000", "113112.971000", "113112.973000", "113112.976000", "113112.979000", "113112.982000", "113112.985000", "113112.988000", "113112.991000", "113112.994000", "113112.997000", "113132.942000", "113132.945000", "113132.948000", "113132.951000", "113132.954000", "113132.956000", "113132.959000", "113132.962000", "113132.965000", "113132.968000", "113132.971000", "113132.974000", "113132.977000", "113132.979000", "113132.982000", "113132.985000", "113132.988000", "113132.991000", "113132.994000", "113132.997000", "113135.101000", "113135.104000", "113135.107000"],
      "InstanceCreationTime": ["112912.974000", "112912.978000", "112912.981000", "112912.984000", "112912.989000", "112912.991000", "112912.994000", "112912.997000", "112913.001000", "112913.004000", "112913.007000", "112913.010000", "112913.016000", "112913.019000", "112913.022000", "112913.024000", "112913.027000", "112913.030000", "112913.033000", "112913.036000", "112913.038000", "112913.041000", "112913.044000", "112913.047000", "112913.050000", "112913.053000", "112913.055000", "112913.058000", "112913.061000", "112913.064000", "112913.067000", "112913.070000", "112913.072000", "112913.075000", "112913.078000", "112913.081000", "112913.084000", "112913.087000", "112932.942000", "112932.954000", "112932.957000", "112932.960000", "112932.963000", "112932.966000", "112932.968000", "112932.971000", "112932.974000", "112932.977000", "112932.980000", "112932.983000", "112932.986000", "112932.988000", "112932.991000", "112932.994000", "112932.997000", "112933.001000", "112933.004000", "112933.007000", "112933.010000", "112933.012000", "112933.015000", "112933.018000", "112933.021000", "112933.024000", "112933.028000", "112933.032000", "112933.036000", "112933.039000", "112933.049000", "112952.942000", "112952.945000", "112952.948000", "112952.951000", "112952.954000", "112952.956000", "112952.959000", "112952.962000", "112952.965000", "112952.968000", "112952.971000", "112952.974000", "112952.976000", "112952.979000", "112952.982000", "112952.985000", "112952.988000", "112952.997000", "112953.001000", "112953.004000", "113012.942000", "113012.945000", "113012.948000", "113012.951000", "113012.953000", "113012.956000", "113012.964000", "113012.967000", "113012.969000", "113012.983000", "113012.986000", "113012.989000", "113012.992000", "113012.995000", "113012.997000", "113013.001000", "113013.004000", "113013.007000", "113013.010000", "113013.013000", "113032.942000", "113032.945000", "113032.948000", "113032.951000", "113032.954000", "113032.956000", "113032.959000", "113032.962000", "113032.966000", "113032.969000", "113032.972000", "113032.974000", "113032.977000", "113032.980000", "113032.983000", "113032.986000", "113032.989000", "113032.992000", "113032.995000", "113032.998000", "113052.942000", "113052.945000", "113052.948000", "113052.951000", "113052.953000", "113052.956000", "113052.959000", "113052.962000", "113052.965000", "113052.968000", "113052.971000", "113052.974000", "113052.976000", "113052.979000", "113052.982000", "113052.985000", "113052.988000", "113052.991000", "113052.994000", "113052.997000", "113112.942000", "113112.945000", "113112.948000", "113112.951000", "113112.953000", "113112.956000", "113112.959000", "113112.962000", "113112.965000", "113112.968000", "113112.971000", "113112.973000", "113112.976000", "113112.979000", "113112.982000", "113112.985000", "113112.988000", "113112.991000", "113112.994000", "113112.997000", "113132.942000", "113132.945000", "113132.948000", "113132.951000", "113132.954000", "113132.956000", "113132.959000", "113132.962000", "113132.965000", "113132.968000", "113132.971000", "113132.974000", "113132.977000", "113132.979000", "113132.982000", "113132.985000", "113132.988000", "113132.991000", "113132.994000", "113132.997000", "113135.101000", "113135.104000", "113135.107000"],
      "InstanceNumber": [1, 2, 3, 4, 5, 6, 7, 8, 9, 10, 11, 12, 13, 14, 15, 16, 17, 18, 19, 20, 21, 22, 23, 24, 25, 26, 27, 28, 29, 30, 31, 32, 33, 34, 35, 36, 37, 38, 39, 40, 41, 42, 43, 44, 45, 46, 47, 48, 49, 50, 51, 52, 53, 54, 55, 56, 57, 58, 59, 60, 61, 62, 63, 64, 65, 66, 67, 68, 69, 70, 71, 72, 73, 74, 75, 76, 77, 78, 79, 80, 81, 82, 83, 84, 85, 86, 87, 88, 89, 90, 91, 92, 93, 94, 95, 96, 97, 98, 99, 100, 101, 102, 103, 104, 105, 106, 107, 108, 109, 110, 111, 112, 113, 114, 115, 116, 117, 118, 119, 120, 121, 122, 123, 124, 125, 126, 127, 128, 129, 130, 131, 132, 133, 134, 135, 136, 137, 138, 139, 140, 141, 142, 143, 144, 145, 146, 147, 148, 149, 150, 151, 152, 153, 154, 155, 156, 157, 158, 159, 160, 161, 162, 163, 164, 165, 166, 167, 168, 169, 170, 171, 172, 173, 174, 175, 176, 177, 178, 179, 180, 181, 182, 183, 184, 185, 186, 187, 188, 189, 190, 191, 192],
      "LargestImagePixelValue": [35211, 34699, 33616, 33800, 34218, 38998, 33428, 33671, 40127, 37165, 33522, 36980, 33532, 33897, 33785, 34366, 34299, 34003, 36469, 33480, 34434, 34298, 33575, 35970, 40491, 35186, 34028, 34151, 35522, 33411, 36258, 32977, 35366, 34096, 33426, 33729, 33497, 33566, 33310, 33699, 34252, 34013, 33825, 33668, 34277, 34213, 33797, 33810, 33282, 32649, 34290, 35024, 32981, 33647, 33257, 33781, 32882, 33531, 33767, 33314, 33077, 34207, 34339, 33435, 33958, 35945, 33959, 38418, 33306, 34004, 42118, 38455, 35805, 33628, 33499, 33130, 33396, 32948, 33465, 33610, 34811, 34265, 34788, 36329, 34537, 34642, 33776, 34184, 33875, 33865, 33940, 33491, 33662, 33302, 33671, 33404, 33504, 34676, 34176, 34281, 37803, 33803, 34175, 37390, 36178, 34861, 35839, 34122, 33951, 33582, 33783, 34148, 33247, 33009, 33332, 33753, 33749, 33252, 33881, 34459, 34280, 34080, 33994, 33932, 33352, 33466, 33765, 33769, 34004, 37077, 35188, 34307, 33563, 36538, 34637, 34251, 36884, 33474, 33654, 33825, 33860, 33764, 34577, 34324, 34441, 34025, 33171, 33192, 33523, 33596, 33242, 34425, 34212, 32787, 34330, 35043, 33933, 36011, 36346, 37261, 40095, 39193, 35382, 33589, 38556, 34502, 34086, 34012, 34761, 35311, 33130, 34886, 34523, 34351, 33763, 36161, 32915, 34027, 35872, 34721, 34102, 34714, 34845, 34586, 34228, 33820, 33507, 34234, 33603, 33931, 34652, 34548],
      "WindowCenter": [9366.0, 9320.0, 9304.0, 9304.0, 9309.0, 9368.0, 9307.0, 9327.0, 9390.0, 9362.0, 9304.0, 9321.0, 9276.0, 9266.0, 9265.0, 9270.0, 9273.0, 9269.0, 9300.0, 9288.0, 9303.0, 9304.0, 9309.0, 9340.0, 9375.0, 9309.0, 9279.0, 9278.0, 9296.0, 9255.0, 9276.0, 9243.0, 9255.0, 9227.0, 9223.0, 9238.0, 9230.0, 9223.0, 9216.0, 9223.0, 9243.0, 9245.0, 9246.0, 9249.0, 9255.0, 9254.0, 9264.0, 9264.0, 9245.0, 9237.0, 9267.0, 9283.0, 9267.0, 9270.0, 9254.0, 9249.0, 9229.0, 9247.0, 9259.0, 9249.0, 9266.0, 9268.0, 9277.0, 9276.0, 9288.0, 9322.0, 9315.0, 9380.0, 9332.0, 9360.0, 9427.0, 9375.0, 9327.0, 9271.0, 9252.0, 9230.0, 9246.0, 9274.0, 9300.0, 9301.0, 9312.0, 9307.0, 9304.0, 9303.0, 9269.0, 9265.0, 9249.0, 9243.0, 9253.0, 9253.0, 9245.0, 9234.0, 9232.0, 9232.0, 9247.0, 9256.0, 9278.0, 9308.0, 9323.0, 9314.0, 9356.0, 9313.0, 9320.0, 9347.0, 9318.0, 9288.0, 9266.0, 9228.0, 9210.0, 9195.0, 9199.0, 9212.0, 9220.0, 9225.0, 9240.0, 9264.0, 9280.0, 9285.0, 9289.0, 9294.0, 9280.0, 9272.0, 9264.0, 9263.0, 9251.0, 9258.0, 9274.0, 9286.0, 9302.0, 9334.0, 9299.0, 9288.0, 9291.0, 9319.0, 9305.0, 9315.0, 9336.0, 9285.0, 9259.0, 9230.0, 9201.0, 9184.0, 9186.0, 9193.0, 9218.0, 9231.0, 9235.0, 9253.0, 9263.0, 9261.0, 9269.0, 9271.0, 9274.0, 9259.0, 9282.0, 9294.0, 9287.0, 9326.0, 9340.0, 9347.0, 9375.0, 9357.0, 9312.0, 9279.0, 9328.0, 9292.0, 9297.0, 9309.0, 9313.0, 9310.0, 9277.0, 9286.0, 9271.0, 9273.0, 9284.0, 9319.0, 9265.0, 9277.0, 9310.0, 9302.0, 9284.0, 9281.0, 9271.0, 9257.0, 9244.0, 9221.0, 9219.0, 9216.0, 9218.0, 9233.0, 9240.0, 9247.0],
      "WindowWidth": [20171.0, 20057.0, 20017.0, 20013.0, 20016.0, 20115.0, 20016.0, 20057.0, 20167.0, 20122.0, 20017.0, 20029.0, 19943.0, 19918.0, 19914.0, 19923.0, 19934.0, 19920.0, 19973.0, 19963.0, 19994.0, 19996.0, 20014.0, 20068.0, 20118.0, 20000.0, 19941.0, 19940.0, 19968.0, 19889.0, 19919.0, 19867.0, 19880.0, 19823.0, 19819.0, 19846.0, 19832.0, 19818.0, 19805.0, 19820.0, 19857.0, 19866.0, 19868.0, 19871.0, 19881.0, 19880.0, 19902.0, 19901.0, 19866.0, 19849.0, 19905.0, 19935.0, 19914.0, 19914.0, 19880.0, 19862.0, 19823.0, 19862.0, 19881.0, 19866.0, 19909.0, 19909.0, 19933.0, 19936.0, 19960.0, 20022.0, 20022.0, 20147.0, 20072.0, 20131.0, 20242.0, 20142.0, 20046.0, 19935.0, 19890.0, 19844.0, 19879.0, 19943.0, 20000.0, 20005.0, 20025.0, 20016.0, 20006.0, 19990.0, 19925.0, 19910.0, 19879.0, 19860.0, 19881.0, 19882.0, 19865.0, 19847.0, 19843.0, 19842.0, 19871.0, 19897.0, 19942.0, 19999.0, 20035.0, 20010.0, 20086.0, 20019.0, 20037.0, 20083.0, 20027.0, 19964.0, 19906.0, 19824.0, 19782.0, 19754.0, 19761.0, 19790.0, 19817.0, 19833.0, 19863.0, 19913.0, 19945.0, 19962.0, 19965.0, 19972.0, 19946.0, 19930.0, 19911.0, 19906.0, 19886.0, 19898.0, 19934.0, 19963.0, 19997.0, 20053.0, 19980.0, 19962.0, 19973.0, 20017.0, 20001.0, 20024.0, 20058.0, 19964.0, 19906.0, 19835.0, 19764.0, 19724.0, 19723.0, 19741.0, 19797.0, 19829.0, 19840.0, 19880.0, 19903.0, 19898.0, 19918.0, 19915.0, 19925.0, 19904.0, 19944.0, 19968.0, 19965.0, 20040.0, 20073.0, 20089.0, 20138.0, 20103.0, 20020.0, 19956.0, 20027.0, 19962.0, 19977.0, 20009.0, 20013.0, 20002.0, 19938.0, 19947.0, 19913.0, 19922.0, 19948.0, 20020.0, 19919.0, 19937.0, 19998.0, 19985.0, 19952.0, 19945.0, 19923.0, 19895.0, 19863.0, 19809.0, 19799.0, 19790.0, 19798.0, 19827.0, 19838.0, 19853.0]
    },
    "slices": {}
  },
  "NumberOfVolumes": 192
}