{
  "AcquisitionMatrixPE": 104,
  "AcquisitionNumber": 1,
  "AcquisitionTime": "11:15:55.450000",
  "BandwidthPerPixelPhaseEncode": 16.297,
  "BaseResolution": 104,
  "BodyPartExamined": "BRAIN",
  "CoilString": "HC2_4_6_7;NC2",
  "ConsistencyInfo": "N4_VE11C_LATEST_20160120",
  "ConversionSoftware": "dcm2niix",
  "ConversionSoftwareVersion": "v1.0.20190902",
  "DerivedVendorReportedEchoSpacing": 0.000590009,
  "DeviceSerialNumber": "166018",
  "DwellTime": 2.1e-06,
  "EchoTime": 0.0376,
  "EchoTrainLength": 104,
  "EffectiveEchoSpacing": 0.000590009,
  "FlipAngle": 68,
  "ImageComments": "Unaliased_MB6_PE3_LB",
  "ImageOrientationPatientDICOM": [0.998319, 0.0136682, 0.0563213, -0.00714394, 0.993403, -0.114453],
  "ImageType": [
    "ORIGINAL",
    "PRIMARY",
    "M",
    "MB",
    "ND",
    "MOSAIC"
],
  "ImagingFrequency": 123.191,
  "InPlanePhaseEncodingDirectionDICOM": "COL",
  "InstitutionAddress": "Washington_Place_6_NYC_NYC_US_10003",
  "InstitutionName": "NYU_-_CBI",
  "InstitutionalDepartmentName": "Department",
  "MRAcquisitionType": "2D",
  "MagneticFieldStrength": 3,
  "Manufacturer": "Siemens",
  "ManufacturersModelName": "Prisma",
  "Modality": "MR",
  "MultibandAccelerationFactor": 6,
  "PartialFourier": 1,
  "PatientPosition": "HFS",
  "PercentPhaseFOV": 100,
  "PhaseEncodingDirection": "j",
  "PhaseEncodingSteps": 104,
  "PhaseResolution": 1,
  "PixelBandwidth": 2290,
  "ProcedureStepDescription": "Investigators_Winawer",
  "ProtocolName": "cmrr_mbepi_s6_2mm_66sl_PA_task-prf",
  "PulseSequenceDetails": "%CustomerSeq%_cmrr_mbep2d_bold",
  "ReceiveCoilActiveElements": "HC2,4,6,7;NC2",
  "ReceiveCoilName": "HeadNeck_64",
  "ReconMatrixPE": 104,
  "RepetitionTime": 1,
  "SAR": 0.0600589,
  "ScanOptions": "FS",
  "ScanningSequence": "EP",
  "SequenceName": "epfid2d1_104",
  "SequenceVariant": "SK_SS",
  "SeriesDescription": "cmrr_mbepi_s6_2mm_66sl_PA_task-prf",
  "SeriesNumber": 16,
  "ShimSetting": [276, -12609, -8462, 556, 12, 147, 24, -29],
  "SliceThickness": 2,
  "SliceTiming": [0, 0.535, 0.09, 0.625, 0.18, 0.7125, 0.2675, 0.8025, 0.3575, 0.8925, 0.445, 0, 0.535, 0.09, 0.625, 0.18, 0.7125, 0.2675, 0.8025, 0.3575, 0.8925, 0.445, 0, 0.535, 0.09, 0.625, 0.18, 0.7125, 0.2675, 0.8025, 0.3575, 0.8925, 0.445, 0, 0.535, 0.09, 0.625, 0.18, 0.7125, 0.2675, 0.8025, 0.3575, 0.8925, 0.445, 0, 0.535, 0.09, 0.625, 0.18, 0.7125, 0.2675, 0.8025, 0.3575, 0.8925, 0.445, 0, 0.535, 0.09, 0.625, 0.18, 0.7125, 0.2675, 0.8025, 0.3575, 0.8925, 0.445],
  "SoftwareVersions": "syngo_MR_E11",
  "SpacingBetweenSlices": 2,
  "StationName": "AWP166018",
  "TaskName": "prf",
  "TotalReadoutTime": 0.060771,
  "TxRefAmp": 210.784,
  "VendorReportedEchoSpacing": 0.00059,
  "WipMemBlock": "aa653d72-c920-413e-8a58-297189b94cd0||Sequence: R016 ve11c/master r/8780670; Nov 27 2017 15:05:12 by eja",
  "dcmmeta_affine": [
    [-1.996638298034668, -0.014287878759205341, 0.1150282472372055, 106.96871185302734],
    [-0.027336489409208298, 1.9868059158325195, -0.2277165651321411, -80.09649658203125],
    [0.11264261603355408, 0.22890605032444, 1.9836616516113281, -66.66742706298828],
    [0.0, 0.0, 0.0, 1.0]
],
  "dcmmeta_reorient_transform": [
    [0.0, -1.0, 0.0, 103.0],
    [1.0, 0.0, 0.0, 0.0],
    [0.0, 0.0, 1.0, 0.0],
    [0.0, 0.0, 0.0, 1.0]
],
  "dcmmeta_shape": [104, 104, 66, 192],
  "dcmmeta_slice_dim": 2,
  "dcmmeta_version": 0.6,
  "global": {
    "const": {
      "AccessionNumber": "k7gfkyn9",
      "AcquisitionMatrix": [104, 0, 0, 104],
      "AngioFlag": "N",
      "BitsAllocated": 16,
      "BitsStored": 16,
      "BodyPartExamined": "BRAIN",
      "Columns": 936,
      "EchoNumbers": 1,
      "EchoTime": 37.6,
      "EchoTrainLength": 104,
      "FlipAngle": 68.0,
      "HighBit": 15,
      "ImageOrientationPatient": [0.99831913210548, 0.01366824469194, 0.05632130644077, -0.0071439392315, 0.99340297458014, -0.1144530219242],
      "ImagePositionPatient": [-930.15482098988, -962.42776997279, 5.2754862845493],
      "ImageType": [
        "ORIGINAL",
        "PRIMARY",
        "M",
        "MB",
        "ND",
        "MOSAIC"
],
      "ImagedNucleus": "1H",
      "ImagingFrequency": 123.190741,
      "InPlanePhaseEncodingDirection": "COL",
      "MRAcquisitionType": "2D",
      "MagneticFieldStrength": 3.0,
      "Manufacturer": "SIEMENS",
      "ManufacturerModelName": "Prisma",
      "Modality": "MR",
      "NumberOfAverages": 1.0,
      "NumberOfPhaseEncodingSteps": 104,
      "PercentPhaseFieldOfView": 100.0,
      "PercentSampling": 100.0,
      "PerformedProcedureStepStartTime": "104151.005000",
      "PhotometricInterpretation": "MONOCHROME2",
      "PixelBandwidth": 2290.0,
      "PixelRepresentation": 0,
      "PixelSpacing": [2.0, 2.0],
      "ProtocolName": "cmrr_mbepi_s6_2mm_66sl_PA_task-prf",
      "RepetitionTime": 1000.0,
      "Rows": 936,
      "SAR": 0.06005889938346,
      "SamplesPerPixel": 1,
      "ScanOptions": "FS",
      "ScanningSequence": "EP",
      "SequenceName": "epfid2d1_104",
      "SequenceVariant": [
        "SK",
        "SS"
],
      "SeriesDescription": "cmrr_mbepi_s6_2mm_66sl_PA_task-prf",
      "SeriesNumber": 16,
      "SeriesTime": "111652.974000",
      "SliceLocation": -50.850944948111,
      "SliceThickness": 2.0,
      "SmallestImagePixelValue": 0,
      "SoftwareVersions": "syngo MR E11",
      "SpacingBetweenSlices": 1.9999999725694,
      "SpecificCharacterSet": "ISO_IR 100",
      "StudyID": "2",
      "StudyTime": "104150.948000",
      "TransmitCoilName": "Body",
      "VariableFlipAngleFlag": "N",
      "WindowCenterWidthExplanation": "Algo1",
      "dBdt": 0.0},
    "slices": {}
  },
  "time": {
    "samples": {
      "AcquisitionNumber": [1, 2, 3, 4, 5, 6, 7, 8, 9, 10, 11, 12, 13, 14, 15, 16, 17, 18, 19, 20, 21, 22, 23, 24, 25, 26, 27, 28, 29, 30, 31, 32, 33, 34, 35, 36, 37, 38, 39, 40, 41, 42, 43, 44, 45, 46, 47, 48, 49, 50, 51, 52, 53, 54, 55, 56, 57, 58, 59, 60, 61, 62, 63, 64, 65, 66, 67, 68, 69, 70, 71, 72, 73, 74, 75, 76, 77, 78, 79, 80, 81, 82, 83, 84, 85, 86, 87, 88, 89, 90, 91, 92, 93, 94, 95, 96, 97, 98, 99, 100, 101, 102, 103, 104, 105, 106, 107, 108, 109, 110, 111, 112, 113, 114, 115, 116, 117, 118, 119, 120, 121, 122, 123, 124, 125, 126, 127, 128, 129, 130, 131, 132, 133, 134, 135, 136, 137, 138, 139, 140, 141, 142, 143, 144, 145, 146, 147, 148, 149, 150, 151, 152, 153, 154, 155, 156, 157, 158, 159, 160, 161, 162, 163, 164, 165, 166, 167, 168, 169, 170, 171, 172, 173, 174, 175, 176, 177, 178, 179, 180, 181, 182, 183, 184, 185, 186, 187, 188, 189, 190, 191, 192],
      "AcquisitionTime": ["111555.450000", "111556.450000", "111557.450000", "111558.450000", "111559.450000", "111600.450000", "111601.450000", "111602.450000", "111603.450000", "111604.450000", "111605.450000", "111606.450000", "111607.450000", "111608.450000", "111609.450000", "111610.450000", "111611.450000", "111612.450000", "111613.450000", "111614.450000", "111615.450000", "111616.450000", "111617.450000", "111618.450000", "111619.450000", "111620.450000", "111621.450000", "111622.450000", "111623.450000", "111624.450000", "111625.450000", "111626.450000", "111627.450000", "111628.450000", "111629.450000", "111630.450000", "111631.450000", "111632.450000", "111633.450000", "111634.450000", "111635.450000", "111636.450000", "111637.450000", "111638.450000", "111639.450000", "111640.450000", "111641.450000", "111642.450000", "111643.450000", "111644.450000", "111645.450000", "111646.450000", "111647.450000", "111648.450000", "111649.450000", "111650.450000", "111651.450000", "111652.450000", "111653.450000", "111654.450000", "111655.450000", "111656.450000", "111657.450000", "111658.450000", "111659.450000", "111700.450000", "111701.450000", "111702.450000", "111703.450000", "111704.450000", "111705.450000", "111706.450000", "111707.450000", "111708.450000", "111709.450000", "111710.450000", "111711.450000", "111712.450000", "111713.450000", "111714.450000", "111715.450000", "111716.450000", "111717.450000", "111718.450000", "111719.450000", "111720.450000", "111721.450000", "111722.450000", "111723.450000", "111724.450000", "111725.450000", "111726.450000", "111727.450000", "111728.450000", "111729.450000", "111730.450000", "111731.450000", "111732.450000", "111733.450000", "111734.450000", "111735.450000", "111736.450000", "111737.450000", "111738.450000", "111739.450000", "111740.450000", "111741.450000", "111742.450000", "111743.450000", "111744.450000", "111745.450000", "111746.450000", "111747.450000", "111748.450000", "111749.450000", "111750.450000", "111751.450000", "111752.450000", "111753.450000", "111754.450000", "111755.450000", "111756.450000", "111757.450000", "111758.450000", "111759.450000", "111800.450000", "111801.450000", "111802.450000", "111803.450000", "111804.450000", "111805.450000", "111806.450000", "111807.450000", "111808.450000", "111809.450000", "111810.450000", "111811.450000", "111812.450000", "111813.450000", "111814.450000", "111815.450000", "111816.450000", "111817.450000", "111818.450000", "111819.450000", "111820.450000", "111821.450000", "111822.450000", "111823.450000", "111824.450000", "111825.450000", "111826.450000", "111827.450000", "111828.450000", "111829.450000", "111830.450000", "111831.450000", "111832.450000", "111833.450000", "111834.450000", "111835.450000", "111836.450000", "111837.450000", "111838.450000", "111839.450000", "111840.450000", "111841.450000", "111842.450000", "111843.450000", "111844.450000", "111845.450000", "111846.450000", "111847.450000", "111848.450000", "111849.450000", "111850.450000", "111851.450000", "111852.450000", "111853.450000", "111854.450000", "111855.450000", "111856.450000", "111857.450000", "111858.450000", "111859.450000", "111900.450000", "111901.450000", "111902.450000", "111903.450000", "111904.450000", "111905.450000", "111906.450000"],
      "ContentTime": ["111652.977000", "111652.984000", "111652.987000", "111652.995000", "111652.998000", "111653.002000", "111653.005000", "111653.008000", "111653.011000", "111653.013000", "111653.016000", "111653.019000", "111653.022000", "111653.025000", "111653.028000", "111653.031000", "111653.033000", "111653.036000", "111653.039000", "111653.042000", "111653.045000", "111653.048000", "111653.050000", "111653.053000", "111653.056000", "111653.059000", "111653.062000", "111653.065000", "111653.068000", "111653.070000", "111653.073000", "111653.076000", "111653.079000", "111653.082000", "111653.085000", "111653.087000", "111653.090000", "111653.093000", "111653.096000", "111653.099000", "111653.102000", "111653.105000", "111712.942000", "111712.945000", "111712.948000", "111712.950000", "111712.953000", "111712.956000", "111712.959000", "111712.962000", "111712.965000", "111712.968000", "111712.970000", "111712.973000", "111712.976000", "111712.979000", "111712.982000", "111712.985000", "111712.987000", "111712.990000", "111712.993000", "111712.996000", "111713.000000", "111713.003000", "111713.006000", "111713.009000", "111713.011000", "111713.014000", "111713.017000", "111713.020000", "111713.023000", "111713.026000", "111713.028000", "111713.031000", "111713.034000", "111713.037000", "111732.942000", "111732.945000", "111732.948000", "111732.951000", "111732.953000", "111732.956000", "111732.959000", "111732.962000", "111732.965000", "111732.969000", "111732.972000", "111732.974000", "111732.977000", "111732.980000", "111732.983000", "111732.986000", "111732.989000", "111732.992000", "111732.995000", "111732.997000", "111752.942000", "111752.945000", "111752.948000", "111752.951000", "111752.953000", "111752.956000", "111752.959000", "111752.962000", "111752.965000", "111752.968000", "111752.971000", "111752.974000", "111752.976000", "111752.979000", "111752.982000", "111752.985000", "111752.988000", "111752.991000", "111752.994000", "111752.996000", "111812.942000", "111812.945000", "111812.948000", "111812.951000", "111812.959000", "111812.962000", "111812.965000", "111812.967000", "111812.970000", "111812.973000", "111812.976000", "111812.979000", "111812.982000", "111812.985000", "111812.987000", "111812.990000", "111812.993000", "111812.996000", "111813.000000", "111813.003000", "111832.942000", "111832.945000", "111832.948000", "111832.951000", "111832.953000", "111832.956000", "111832.959000", "111832.962000", "111832.965000", "111832.968000", "111832.971000", "111832.974000", "111832.977000", "111832.979000", "111832.982000", "111832.993000", "111832.996000", "111833.000000", "111833.003000", "111833.005000", "111852.942000", "111852.945000", "111852.954000", "111852.957000", "111852.960000", "111852.963000", "111852.966000", "111852.969000", "111852.972000", "111852.975000", "111852.978000", "111852.981000", "111852.983000", "111852.986000", "111852.989000", "111852.992000", "111852.995000", "111852.998000", "111853.001000", "111853.004000", "111908.496000", "111908.499000", "111908.502000", "111908.505000", "111908.508000", "111908.510000", "111908.513000", "111908.516000", "111908.519000", "111908.522000", "111908.525000", "111908.528000", "111908.531000", "111908.534000", "111908.537000", "111908.540000"],
      "InstanceCreationTime": ["111652.977000", "111652.984000", "111652.987000", "111652.995000", "111652.998000", "111653.002000", "111653.005000", "111653.008000", "111653.011000", "111653.013000", "111653.016000", "111653.019000", "111653.022000", "111653.025000", "111653.028000", "111653.031000", "111653.033000", "111653.036000", "111653.039000", "111653.042000", "111653.045000", "111653.048000", "111653.050000", "111653.053000", "111653.056000", "111653.059000", "111653.062000", "111653.065000", "111653.068000", "111653.070000", "111653.073000", "111653.076000", "111653.079000", "111653.082000", "111653.085000", "111653.087000", "111653.090000", "111653.093000", "111653.096000", "111653.099000", "111653.102000", "111653.105000", "111712.942000", "111712.945000", "111712.948000", "111712.950000", "111712.953000", "111712.956000", "111712.959000", "111712.962000", "111712.965000", "111712.968000", "111712.970000", "111712.973000", "111712.976000", "111712.979000", "111712.982000", "111712.985000", "111712.987000", "111712.990000", "111712.993000", "111712.996000", "111713.000000", "111713.003000", "111713.006000", "111713.009000", "111713.011000", "111713.014000", "111713.017000", "111713.020000", "111713.023000", "111713.026000", "111713.028000", "111713.031000", "111713.034000", "111713.037000", "111732.942000", "111732.945000", "111732.948000", "111732.951000", "111732.953000", "111732.956000", "111732.959000", "111732.962000", "111732.965000", "111732.969000", "111732.972000", "111732.974000", "111732.977000", "111732.980000", "111732.983000", "111732.986000", "111732.989000", "111732.992000", "111732.995000", "111732.997000", "111752.942000", "111752.945000", "111752.948000", "111752.951000", "111752.953000", "111752.956000", "111752.959000", "111752.962000", "111752.965000", "111752.968000", "111752.971000", "111752.974000", "111752.976000", "111752.979000", "111752.982000", "111752.985000", "111752.988000", "111752.991000", "111752.994000", "111752.996000", "111812.942000", "111812.945000", "111812.948000", "111812.951000", "111812.959000", "111812.962000", "111812.965000", "111812.967000", "111812.970000", "111812.973000", "111812.976000", "111812.979000", "111812.982000", "111812.985000", "111812.987000", "111812.990000", "111812.993000", "111812.996000", "111813.000000", "111813.003000", "111832.942000", "111832.945000", "111832.948000", "111832.951000", "111832.953000", "111832.956000", "111832.959000", "111832.962000", "111832.965000", "111832.968000", "111832.971000", "111832.974000", "111832.977000", "111832.979000", "111832.982000", "111832.993000", "111832.996000", "111833.000000", "111833.003000", "111833.005000", "111852.942000", "111852.945000", "111852.954000", "111852.957000", "111852.960000", "111852.963000", "111852.966000", "111852.969000", "111852.972000", "111852.975000", "111852.978000", "111852.981000", "111852.983000", "111852.986000", "111852.989000", "111852.992000", "111852.995000", "111852.998000", "111853.001000", "111853.004000", "111908.496000", "111908.499000", "111908.502000", "111908.505000", "111908.508000", "111908.510000", "111908.513000", "111908.516000", "111908.519000", "111908.522000", "111908.525000", "111908.528000", "111908.531000", "111908.534000", "111908.537000", "111908.540000"],
      "InstanceNumber": [1, 2, 3, 4, 5, 6, 7, 8, 9, 10, 11, 12, 13, 14, 15, 16, 17, 18, 19, 20, 21, 22, 23, 24, 25, 26, 27, 28, 29, 30, 31, 32, 33, 34, 35, 36, 37, 38, 39, 40, 41, 42, 43, 44, 45, 46, 47, 48, 49, 50, 51, 52, 53, 54, 55, 56, 57, 58, 59, 60, 61, 62, 63, 64, 65, 66, 67, 68, 69, 70, 71, 72, 73, 74, 75, 76, 77, 78, 79, 80, 81, 82, 83, 84, 85, 86, 87, 88, 89, 90, 91, 92, 93, 94, 95, 96, 97, 98, 99, 100, 101, 102, 103, 104, 105, 106, 107, 108, 109, 110, 111, 112, 113, 114, 115, 116, 117, 118, 119, 120, 121, 122, 123, 124, 125, 126, 127, 128, 129, 130, 131, 132, 133, 134, 135, 136, 137, 138, 139, 140, 141, 142, 143, 144, 145, 146, 147, 148, 149, 150, 151, 152, 153, 154, 155, 156, 157, 158, 159, 160, 161, 162, 163, 164, 165, 166, 167, 168, 169, 170, 171, 172, 173, 174, 175, 176, 177, 178, 179, 180, 181, 182, 183, 184, 185, 186, 187, 188, 189, 190, 191, 192],
      "LargestImagePixelValue": [36107, 35887, 35150, 34766, 33706, 34302, 34757, 33835, 34007, 34792, 34771, 35126, 34804, 34412, 37216, 34042, 35739, 34783, 34225, 34750, 35294, 34787, 34712, 34700, 34538, 34285, 34231, 34446, 34571, 34261, 34453, 34744, 34078, 34389, 34582, 34345, 34384, 34619, 35396, 34566, 34446, 34687, 34909, 34583, 34121, 34647, 35273, 35438, 34164, 34409, 34344, 33999, 34323, 34523, 33853, 34330, 33758, 34075, 34008, 34477, 34378, 34109, 34993, 35011, 34635, 34458, 34310, 34105, 34468, 34373, 34459, 34662, 34346, 34094, 34379, 34165, 34181, 34294, 34433, 33929, 34421, 35963, 35576, 34780, 33531, 34312, 34878, 35187, 33719, 35067, 35037, 35201, 36198, 34337, 34399, 33984, 33999, 33805, 33092, 33697, 34592, 34180, 33968, 34169, 33931, 33329, 33610, 33960, 34519, 35073, 34282, 34554, 35292, 34498, 34690, 35157, 36301, 35071, 34388, 34539, 34685, 34502, 34407, 34584, 34993, 34261, 34473, 34598, 34626, 34143, 34459, 34533, 34366, 34854, 34910, 34355, 34216, 35732, 35349, 34523, 35015, 34672, 34880, 34592, 34459, 34541, 34596, 34370, 34316, 34349, 34392, 34199, 34550, 34817, 34679, 34700, 34336, 34227, 34421, 34932, 34846, 35716, 34848, 34992, 35155, 35107, 35064, 34679, 34861, 34462, 34992, 35060, 35391, 35287, 34705, 34305, 35018, 34817, 34746, 34190, 35275, 36137, 34789, 35583, 36214, 35126, 34571, 34716, 34164, 35105, 35050, 34373],
      "WindowCenter": [9426.0, 9397.0, 9368.0, 9351.0, 9341.0, 9342.0, 9345.0, 9338.0, 9339.0, 9332.0, 9332.0, 9329.0, 9321.0, 9313.0, 9327.0, 9283.0, 9283.0, 9276.0, 9271.0, 9286.0, 9305.0, 9303.0, 9307.0, 9315.0, 9314.0, 9308.0, 9297.0, 9295.0, 9303.0, 9313.0, 9312.0, 9305.0, 9300.0, 9314.0, 9318.0, 9314.0, 9324.0, 9338.0, 9342.0, 9331.0, 9338.0, 9328.0, 9317.0, 9318.0, 9312.0, 9309.0, 9296.0, 9321.0, 9296.0, 9290.0, 9265.0, 9244.0, 9249.0, 9240.0, 9221.0, 9209.0, 9195.0, 9200.0, 9209.0, 9224.0, 9226.0, 9218.0, 9240.0, 9249.0, 9246.0, 9263.0, 9260.0, 9277.0, 9294.0, 9311.0, 9308.0, 9327.0, 9325.0, 9317.0, 9308.0, 9293.0, 9285.0, 9268.0, 9260.0, 9262.0, 9285.0, 9333.0, 9344.0, 9345.0, 9317.0, 9315.0, 9316.0, 9332.0, 9318.0, 9332.0, 9331.0, 9314.0, 9316.0, 9276.0, 9248.0, 9242.0, 9246.0, 9246.0, 9228.0, 9247.0, 9258.0, 9274.0, 9266.0, 9240.0, 9215.0, 9195.0, 9192.0, 9200.0, 9224.0, 9254.0, 9264.0, 9279.0, 9282.0, 9295.0, 9295.0, 9231.0, 9309.0, 9263.0, 9293.0, 9319.0, 9330.0, 9320.0, 9309.0, 9283.0, 9271.0, 9257.0, 9263.0, 9264.0, 9263.0, 9269.0, 9261.0, 9277.0, 9298.0, 9310.0, 9334.0, 9341.0, 9341.0, 9337.0, 9355.0, 9346.0, 9341.0, 9333.0, 9316.0, 9291.0, 9263.0, 9229.0, 9216.0, 9218.0, 9241.0, 9250.0, 9245.0, 9252.0, 9261.0, 9260.0, 9260.0, 9284.0, 9291.0, 9309.0, 9316.0, 9323.0, 9318.0, 9329.0, 9324.0, 9304.0, 9310.0, 9334.0, 9327.0, 9312.0, 9307.0, 9295.0, 9292.0, 9281.0, 9262.0, 9236.0, 9231.0, 9232.0, 9255.0, 9272.0, 9292.0, 9301.0, 9313.0, 9318.0, 9309.0, 9305.0, 9307.0, 9296.0, 9289.0, 9279.0, 9276.0, 9288.0, 9294.0, 9266.0],
      "WindowWidth": [20303.0, 20222.0, 20144.0, 20102.0, 20090.0, 20080.0, 20083.0, 20075.0, 20074.0, 20056.0, 20056.0, 20047.0, 20036.0, 20018.0, 20037.0, 19956.0, 19946.0, 19934.0, 19930.0, 19959.0, 19997.0, 19998.0, 20014.0, 20031.0, 20024.0, 20014.0, 19985.0, 19979.0, 19999.0, 20021.0, 20019.0, 20008.0, 20001.0, 20027.0, 20034.0, 20031.0, 20052.0, 20078.0, 20082.0, 20065.0, 20077.0, 20048.0, 20020.0, 20021.0, 20008.0, 19999.0, 19962.0, 20016.0, 19968.0, 19947.0, 19893.0, 19854.0, 19860.0, 19841.0, 19799.0, 19769.0, 19741.0, 19749.0, 19768.0, 19800.0, 19806.0, 19791.0, 19840.0, 19863.0, 19858.0, 19898.0, 19896.0, 19935.0, 19976.0, 20017.0, 20008.0, 20050.0, 20039.0, 20017.0, 19996.0, 19959.0, 19941.0, 19901.0, 19883.0, 19897.0, 19945.0, 20048.0, 20069.0, 20077.0, 20028.0, 20020.0, 20018.0, 20056.0, 20032.0, 20053.0, 20057.0, 20012.0, 20006.0, 19929.0, 19862.0, 19851.0, 19851.0, 19854.0, 19823.0, 19854.0, 19874.0, 19913.0, 19892.0, 19831.0, 19781.0, 19744.0, 19736.0, 19754.0, 19805.0, 19872.0, 19903.0, 19939.0, 19943.0, 19977.0, 19975.0, 19815.0, 19995.0, 19888.0, 19964.0, 20022.0, 20048.0, 20024.0, 19994.0, 19934.0, 19899.0, 19872.0, 19889.0, 19891.0, 19888.0, 19904.0, 19884.0, 19922.0, 19966.0, 19990.0, 20043.0, 20069.0, 20070.0, 20065.0, 20105.0, 20092.0, 20075.0, 20056.0, 20016.0, 19958.0, 19893.0, 19819.0, 19785.0, 19792.0, 19843.0, 19862.0, 19856.0, 19867.0, 19885.0, 19885.0, 19885.0, 19936.0, 19959.0, 20002.0, 20016.0, 20033.0, 20027.0, 20046.0, 20042.0, 19991.0, 20002.0, 20051.0, 20037.0, 20002.0, 19984.0, 19959.0, 19952.0, 19921.0, 19879.0, 19824.0, 19823.0, 19827.0, 19870.0, 19912.0, 19959.0, 19988.0, 20006.0, 20013.0, 20000.0, 19988.0, 19985.0, 19963.0, 19948.0, 19924.0, 19920.0, 19945.0, 19953.0, 19898.0]
    },
    "slices": {}
  },
  "NumberOfVolumes": 192
}