{
  "AcquisitionMatrixPE": 104,
  "AcquisitionNumber": 1,
  "AcquisitionTime": "10:58:51.610000",
  "BandwidthPerPixelPhaseEncode": 16.297,
  "BaseResolution": 104,
  "BodyPartExamined": "BRAIN",
  "CoilString": "HC2_4_6_7;NC2",
  "ConsistencyInfo": "N4_VE11C_LATEST_20160120",
  "ConversionSoftware": "dcm2niix",
  "ConversionSoftwareVersion": "v1.0.20190902",
  "DerivedVendorReportedEchoSpacing": 0.000590009,
  "DeviceSerialNumber": "166018",
  "DwellTime": 2.1e-06,
  "EchoTime": 0.0376,
  "EchoTrainLength": 104,
  "EffectiveEchoSpacing": 0.000590009,
  "FlipAngle": 68,
  "ImageComments": "Unaliased_MB6_PE3_LB",
  "ImageOrientationPatientDICOM": [0.998319, 0.0136682, 0.0563213, -0.00714394, 0.993403, -0.114453],
  "ImageType": [
    "ORIGINAL",
    "PRIMARY",
    "M",
    "MB",
    "ND",
    "MOSAIC"
],
  "ImagingFrequency": 123.191,
  "InPlanePhaseEncodingDirectionDICOM": "COL",
  "InstitutionAddress": "Washington_Place_6_NYC_NYC_US_10003",
  "InstitutionName": "NYU_-_CBI",
  "InstitutionalDepartmentName": "Department",
  "MRAcquisitionType": "2D",
  "MagneticFieldStrength": 3,
  "Manufacturer": "Siemens",
  "ManufacturersModelName": "Prisma",
  "Modality": "MR",
  "MultibandAccelerationFactor": 6,
  "PartialFourier": 1,
  "PatientPosition": "HFS",
  "PercentPhaseFOV": 100,
  "PhaseEncodingDirection": "j",
  "PhaseEncodingSteps": 104,
  "PhaseResolution": 1,
  "PixelBandwidth": 2290,
  "ProcedureStepDescription": "Investigators_Winawer",
  "ProtocolName": "cmrr_mbepi_s6_2mm_66sl_PA_task-prf",
  "PulseSequenceDetails": "%CustomerSeq%_cmrr_mbep2d_bold",
  "ReceiveCoilActiveElements": "HC2,4,6,7;NC2",
  "ReceiveCoilName": "HeadNeck_64",
  "ReconMatrixPE": 104,
  "RepetitionTime": 1,
  "SAR": 0.0600589,
  "ScanOptions": "FS",
  "ScanningSequence": "EP",
  "SequenceName": "epfid2d1_104",
  "SequenceVariant": "SK_SS",
  "SeriesDescription": "cmrr_mbepi_s6_2mm_66sl_PA_task-prf",
  "SeriesNumber": 8,
  "ShimSetting": [276, -12609, -8462, 556, 12, 147, 24, -29],
  "SliceThickness": 2,
  "SliceTiming": [0, 0.5325, 0.0875, 0.6225, 0.1775, 0.7125, 0.2675, 0.8, 0.355, 0.89, 0.445, 0, 0.5325, 0.0875, 0.6225, 0.1775, 0.7125, 0.2675, 0.8, 0.355, 0.89, 0.445, 0, 0.5325, 0.0875, 0.6225, 0.1775, 0.7125, 0.2675, 0.8, 0.355, 0.89, 0.445, 0, 0.5325, 0.0875, 0.6225, 0.1775, 0.7125, 0.2675, 0.8, 0.355, 0.89, 0.445, 0, 0.5325, 0.0875, 0.6225, 0.1775, 0.7125, 0.2675, 0.8, 0.355, 0.89, 0.445, 0, 0.5325, 0.0875, 0.6225, 0.1775, 0.7125, 0.2675, 0.8, 0.355, 0.89, 0.445],
  "SoftwareVersions": "syngo_MR_E11",
  "SpacingBetweenSlices": 2,
  "StationName": "AWP166018",
  "TaskName": "prf",
  "TotalReadoutTime": 0.060771,
  "TxRefAmp": 210.784,
  "VendorReportedEchoSpacing": 0.00059,
  "WipMemBlock": "aa653d72-c920-413e-8a58-297189b94cd0||Sequence: R016 ve11c/master r/8780670; Nov 27 2017 15:05:12 by eja",
  "dcmmeta_affine": [
    [-1.996638298034668, -0.014287878759205341, 0.1150282472372055, 106.96871185302734],
    [-0.027336489409208298, 1.9868059158325195, -0.2277165651321411, -80.09649658203125],
    [0.11264261603355408, 0.22890605032444, 1.9836616516113281, -66.66742706298828],
    [0.0, 0.0, 0.0, 1.0]
],
  "dcmmeta_reorient_transform": [
    [0.0, -1.0, 0.0, 103.0],
    [1.0, 0.0, 0.0, 0.0],
    [0.0, 0.0, 1.0, 0.0],
    [0.0, 0.0, 0.0, 1.0]
],
  "dcmmeta_shape": [104, 104, 66, 192],
  "dcmmeta_slice_dim": 2,
  "dcmmeta_version": 0.6,
  "global": {
    "const": {
      "AccessionNumber": "k7gfkyn9",
      "AcquisitionMatrix": [104, 0, 0, 104],
      "AngioFlag": "N",
      "BitsAllocated": 16,
      "BitsStored": 16,
      "BodyPartExamined": "BRAIN",
      "Columns": 936,
      "EchoNumbers": 1,
      "EchoTime": 37.6,
      "EchoTrainLength": 104,
      "FlipAngle": 68.0,
      "HighBit": 15,
      "ImageOrientationPatient": [0.99831913210548, 0.01366824469194, 0.05632130644077, -0.0071439392315, 0.99340297458014, -0.1144530219242],
      "ImagePositionPatient": [-930.15482098988, -962.42776997279, 5.2754862845493],
      "ImageType": [
        "ORIGINAL",
        "PRIMARY",
        "M",
        "MB",
        "ND",
        "MOSAIC"
],
      "ImagedNucleus": "1H",
      "ImagingFrequency": 123.190741,
      "InPlanePhaseEncodingDirection": "COL",
      "MRAcquisitionType": "2D",
      "MagneticFieldStrength": 3.0,
      "Manufacturer": "SIEMENS",
      "ManufacturerModelName": "Prisma",
      "Modality": "MR",
      "NumberOfAverages": 1.0,
      "NumberOfPhaseEncodingSteps": 104,
      "PercentPhaseFieldOfView": 100.0,
      "PercentSampling": 100.0,
      "PerformedProcedureStepStartTime": "104151.005000",
      "PhotometricInterpretation": "MONOCHROME2",
      "PixelBandwidth": 2290.0,
      "PixelRepresentation": 0,
      "PixelSpacing": [2.0, 2.0],
      "ProtocolName": "cmrr_mbepi_s6_2mm_66sl_PA_task-prf",
      "RepetitionTime": 1000.0,
      "Rows": 936,
      "SAR": 0.06005889938346,
      "SamplesPerPixel": 1,
      "ScanOptions": "FS",
      "ScanningSequence": "EP",
      "SequenceName": "epfid2d1_104",
      "SequenceVariant": [
        "SK",
        "SS"
],
      "SeriesDescription": "cmrr_mbepi_s6_2mm_66sl_PA_task-prf",
      "SeriesNumber": 8,
      "SeriesTime": "105932.925000",
      "SliceLocation": -50.850944948111,
      "SliceThickness": 2.0,
      "SmallestImagePixelValue": 0,
      "SoftwareVersions": "syngo MR E11",
      "SpacingBetweenSlices": 1.9999999725694,
      "SpecificCharacterSet": "ISO_IR 100",
      "StudyID": "2",
      "StudyTime": "104150.948000",
      "TransmitCoilName": "Body",
      "VariableFlipAngleFlag": "N",
      "WindowCenterWidthExplanation": "Algo1",
      "dBdt": 0.0},
    "slices": {}
  },
  "time": {
    "samples": {
      "AcquisitionNumber": [1, 2, 3, 4, 5, 6, 7, 8, 9, 10, 11, 12, 13, 14, 15, 16, 17, 18, 19, 20, 21, 22, 23, 24, 25, 26, 27, 28, 29, 30, 31, 32, 33, 34, 35, 36, 37, 38, 39, 40, 41, 42, 43, 44, 45, 46, 47, 48, 49, 50, 51, 52, 53, 54, 55, 56, 57, 58, 59, 60, 61, 62, 63, 64, 65, 66, 67, 68, 69, 70, 71, 72, 73, 74, 75, 76, 77, 78, 79, 80, 81, 82, 83, 84, 85, 86, 87, 88, 89, 90, 91, 92, 93, 94, 95, 96, 97, 98, 99, 100, 101, 102, 103, 104, 105, 106, 107, 108, 109, 110, 111, 112, 113, 114, 115, 116, 117, 118, 119, 120, 121, 122, 123, 124, 125, 126, 127, 128, 129, 130, 131, 132, 133, 134, 135, 136, 137, 138, 139, 140, 141, 142, 143, 144, 145, 146, 147, 148, 149, 150, 151, 152, 153, 154, 155, 156, 157, 158, 159, 160, 161, 162, 163, 164, 165, 166, 167, 168, 169, 170, 171, 172, 173, 174, 175, 176, 177, 178, 179, 180, 181, 182, 183, 184, 185, 186, 187, 188, 189, 190, 191, 192],
      "AcquisitionTime": ["105851.610000", "105852.610000", "105853.610000", "105854.610000", "105855.610000", "105856.610000", "105857.610000", "105858.610000", "105859.610000", "105900.610000", "105901.610000", "105902.610000", "105903.610000", "105904.610000", "105905.610000", "105906.610000", "105907.610000", "105908.610000", "105909.610000", "105910.610000", "105911.610000", "105912.610000", "105913.610000", "105914.610000", "105915.610000", "105916.610000", "105917.610000", "105918.610000", "105919.610000", "105920.610000", "105921.610000", "105922.610000", "105923.610000", "105924.610000", "105925.610000", "105926.610000", "105927.610000", "105928.610000", "105929.610000", "105930.610000", "105931.610000", "105932.610000", "105933.610000", "105934.610000", "105935.610000", "105936.610000", "105937.610000", "105938.610000", "105939.610000", "105940.610000", "105941.610000", "105942.610000", "105943.610000", "105944.610000", "105945.610000", "105946.610000", "105947.610000", "105948.610000", "105949.610000", "105950.610000", "105951.610000", "105952.610000", "105953.610000", "105954.610000", "105955.610000", "105956.610000", "105957.610000", "105958.610000", "105959.610000", "110000.610000", "110001.610000", "110002.610000", "110003.610000", "110004.610000", "110005.610000", "110006.610000", "110007.610000", "110008.610000", "110009.610000", "110010.610000", "110011.610000", "110012.610000", "110013.610000", "110014.610000", "110015.610000", "110016.610000", "110017.610000", "110018.610000", "110019.610000", "110020.610000", "110021.610000", "110022.610000", "110023.610000", "110024.610000", "110025.610000", "110026.610000", "110027.610000", "110028.610000", "110029.610000", "110030.610000", "110031.610000", "110032.610000", "110033.610000", "110034.610000", "110035.610000", "110036.610000", "110037.610000", "110038.610000", "110039.610000", "110040.610000", "110041.610000", "110042.610000", "110043.610000", "110044.610000", "110045.610000", "110046.610000", "110047.610000", "110048.610000", "110049.610000", "110050.610000", "110051.610000", "110052.610000", "110053.610000", "110054.610000", "110055.610000", "110056.610000", "110057.610000", "110058.610000", "110059.610000", "110100.610000", "110101.610000", "110102.610000", "110103.610000", "110104.610000", "110105.610000", "110106.610000", "110107.610000", "110108.610000", "110109.610000", "110110.610000", "110111.610000", "110112.610000", "110113.610000", "110114.610000", "110115.610000", "110116.610000", "110117.610000", "110118.610000", "110119.610000", "110120.610000", "110121.610000", "110122.610000", "110123.610000", "110124.610000", "110125.610000", "110126.610000", "110127.610000", "110128.610000", "110129.610000", "110130.610000", "110131.610000", "110132.610000", "110133.610000", "110134.610000", "110135.610000", "110136.610000", "110137.610000", "110138.610000", "110139.610000", "110140.610000", "110141.610000", "110142.610000", "110143.610000", "110144.610000", "110145.610000", "110146.610000", "110147.610000", "110148.610000", "110149.610000", "110150.610000", "110151.610000", "110152.610000", "110153.610000", "110154.610000", "110155.610000", "110156.610000", "110157.610000", "110158.610000", "110159.610000", "110200.610000", "110201.610000", "110202.610000"],
      "ContentTime": ["105932.928000", "105932.931000", "105932.934000", "105932.937000", "105932.940000", "105932.943000", "105932.946000", "105932.948000", "105932.951000", "105932.954000", "105932.957000", "105932.960000", "105932.963000", "105952.873000", "105952.876000", "105952.879000", "105952.881000", "105952.884000", "105952.887000", "105952.890000", "105952.893000", "105952.896000", "105952.899000", "105952.902000", "105952.905000", "105952.907000", "105952.910000", "105952.913000", "105952.916000", "105952.919000", "105952.922000", "105952.924000", "105952.927000", "105952.930000", "105952.933000", "105952.936000", "105952.945000", "105952.948000", "105952.951000", "105952.954000", "105952.957000", "105952.959000", "105952.962000", "105952.965000", "105952.968000", "105952.971000", "105952.974000", "105952.977000", "105952.980000", "105952.982000", "110012.873000", "110012.876000", "110012.878000", "110012.881000", "110012.884000", "110012.887000", "110012.890000", "110012.893000", "110012.896000", "110012.898000", "110012.901000", "110012.904000", "110012.907000", "110012.910000", "110012.913000", "110012.916000", "110012.918000", "110012.921000", "110012.924000", "110012.927000", "110012.930000", "110012.933000", "110012.935000", "110012.938000", "110012.941000", "110012.944000", "110012.947000", "110012.950000", "110012.953000", "110012.955000", "110012.958000", "110032.874000", "110032.877000", "110032.880000", "110032.882000", "110032.885000", "110032.888000", "110032.891000", "110032.894000", "110032.897000", "110032.900000", "110032.902000", "110032.905000", "110032.908000", "110032.911000", "110032.914000", "110032.917000", "110032.920000", "110032.922000", "110032.925000", "110032.928000", "110052.873000", "110052.876000", "110052.879000", "110052.882000", "110052.884000", "110052.887000", "110052.890000", "110052.893000", "110052.896000", "110052.899000", "110052.902000", "110052.904000", "110052.911000", "110052.914000", "110052.917000", "110052.919000", "110052.922000", "110052.925000", "110052.928000", "110052.931000", "110112.873000", "110112.876000", "110112.879000", "110112.881000", "110112.884000", "110112.887000", "110112.890000", "110112.893000", "110112.896000", "110112.899000", "110112.901000", "110112.904000", "110112.907000", "110112.910000", "110112.913000", "110112.916000", "110112.919000", "110112.922000", "110112.924000", "110112.927000", "110132.873000", "110132.876000", "110132.879000", "110132.882000", "110132.884000", "110132.887000", "110132.890000", "110132.893000", "110132.896000", "110132.899000", "110132.902000", "110132.904000", "110132.907000", "110132.910000", "110132.913000", "110132.916000", "110132.919000", "110132.922000", "110132.924000", "110132.927000", "110152.873000", "110152.876000", "110152.879000", "110152.881000", "110152.884000", "110152.887000", "110152.890000", "110152.893000", "110152.896000", "110152.899000", "110152.901000", "110152.904000", "110152.907000", "110152.910000", "110152.913000", "110152.916000", "110152.919000", "110152.921000", "110152.924000", "110152.927000", "110203.824000", "110203.828000", "110203.831000", "110203.833000", "110203.844000", "110203.847000", "110203.850000", "110203.853000", "110203.856000", "110203.859000", "110203.862000"],
      "InstanceCreationTime": ["105932.928000", "105932.931000", "105932.934000", "105932.937000", "105932.940000", "105932.943000", "105932.946000", "105932.948000", "105932.951000", "105932.954000", "105932.957000", "105932.960000", "105932.963000", "105952.873000", "105952.876000", "105952.879000", "105952.881000", "105952.884000", "105952.887000", "105952.890000", "105952.893000", "105952.896000", "105952.899000", "105952.902000", "105952.905000", "105952.907000", "105952.910000", "105952.913000", "105952.916000", "105952.919000", "105952.922000", "105952.924000", "105952.927000", "105952.930000", "105952.933000", "105952.936000", "105952.945000", "105952.948000", "105952.951000", "105952.954000", "105952.957000", "105952.959000", "105952.962000", "105952.965000", "105952.968000", "105952.971000", "105952.974000", "105952.977000", "105952.980000", "105952.982000", "110012.873000", "110012.876000", "110012.878000", "110012.881000", "110012.884000", "110012.887000", "110012.890000", "110012.893000", "110012.896000", "110012.898000", "110012.901000", "110012.904000", "110012.907000", "110012.910000", "110012.913000", "110012.916000", "110012.918000", "110012.921000", "110012.924000", "110012.927000", "110012.930000", "110012.933000", "110012.935000", "110012.938000", "110012.941000", "110012.944000", "110012.947000", "110012.950000", "110012.953000", "110012.955000", "110012.958000", "110032.874000", "110032.877000", "110032.880000", "110032.882000", "110032.885000", "110032.888000", "110032.891000", "110032.894000", "110032.897000", "110032.900000", "110032.902000", "110032.905000", "110032.908000", "110032.911000", "110032.914000", "110032.917000", "110032.920000", "110032.922000", "110032.925000", "110032.928000", "110052.873000", "110052.876000", "110052.879000", "110052.882000", "110052.884000", "110052.887000", "110052.890000", "110052.893000", "110052.896000", "110052.899000", "110052.902000", "110052.904000", "110052.911000", "110052.914000", "110052.917000", "110052.919000", "110052.922000", "110052.925000", "110052.928000", "110052.931000", "110112.873000", "110112.876000", "110112.879000", "110112.881000", "110112.884000", "110112.887000", "110112.890000", "110112.893000", "110112.896000", "110112.899000", "110112.901000", "110112.904000", "110112.907000", "110112.910000", "110112.913000", "110112.916000", "110112.919000", "110112.922000", "110112.924000", "110112.927000", "110132.873000", "110132.876000", "110132.879000", "110132.882000", "110132.884000", "110132.887000", "110132.890000", "110132.893000", "110132.896000", "110132.899000", "110132.902000", "110132.904000", "110132.907000", "110132.910000", "110132.913000", "110132.916000", "110132.919000", "110132.922000", "110132.924000", "110132.927000", "110152.873000", "110152.876000", "110152.879000", "110152.881000", "110152.884000", "110152.887000", "110152.890000", "110152.893000", "110152.896000", "110152.899000", "110152.901000", "110152.904000", "110152.907000", "110152.910000", "110152.913000", "110152.916000", "110152.919000", "110152.921000", "110152.924000", "110152.927000", "110203.824000", "110203.828000", "110203.831000", "110203.833000", "110203.844000", "110203.847000", "110203.850000", "110203.853000", "110203.856000", "110203.859000", "110203.862000"],
      "InstanceNumber": [1, 2, 3, 4, 5, 6, 7, 8, 9, 10, 11, 12, 13, 14, 15, 16, 17, 18, 19, 20, 21, 22, 23, 24, 25, 26, 27, 28, 29, 30, 31, 32, 33, 34, 35, 36, 37, 38, 39, 40, 41, 42, 43, 44, 45, 46, 47, 48, 49, 50, 51, 52, 53, 54, 55, 56, 57, 58, 59, 60, 61, 62, 63, 64, 65, 66, 67, 68, 69, 70, 71, 72, 73, 74, 75, 76, 77, 78, 79, 80, 81, 82, 83, 84, 85, 86, 87, 88, 89, 90, 91, 92, 93, 94, 95, 96, 97, 98, 99, 100, 101, 102, 103, 104, 105, 106, 107, 108, 109, 110, 111, 112, 113, 114, 115, 116, 117, 118, 119, 120, 121, 122, 123, 124, 125, 126, 127, 128, 129, 130, 131, 132, 133, 134, 135, 136, 137, 138, 139, 140, 141, 142, 143, 144, 145, 146, 147, 148, 149, 150, 151, 152, 153, 154, 155, 156, 157, 158, 159, 160, 161, 162, 163, 164, 165, 166, 167, 168, 169, 170, 171, 172, 173, 174, 175, 176, 177, 178, 179, 180, 181, 182, 183, 184, 185, 186, 187, 188, 189, 190, 191, 192],
      "LargestImagePixelValue": [36437, 35856, 35404, 34808, 34227, 34683, 34929, 34190, 34655, 34395, 33689, 33293, 33351, 34128, 33509, 33462, 33457, 33562, 33984, 33721, 33119, 33317, 33165, 33740, 33658, 33078, 33178, 33442, 33422, 33479, 33136, 33498, 33294, 33263, 33376, 33373, 33608, 33746, 33702, 33773, 33585, 33916, 34338, 33151, 33460, 33630, 33742, 33883, 34070, 33851, 33286, 33709, 34075, 33298, 33861, 34061, 33842, 33739, 34732, 34168, 33933, 33747, 33779, 33565, 33395, 33522, 33853, 33604, 33460, 33168, 33975, 34241, 34356, 33973, 34235, 34355, 34500, 34843, 34143, 34008, 34349, 34567, 34411, 34161, 34036, 33943, 34371, 34356, 35921, 33759, 34450, 34473, 34205, 34135, 33767, 33864, 33985, 34109, 33663, 33823, 34205, 34211, 33819, 33810, 33536, 34070, 33620, 33608, 33682, 33863, 33904, 34393, 33753, 33758, 33889, 33815, 34147, 33985, 34330, 34117, 33824, 33480, 34339, 33169, 33686, 34223, 34533, 34015, 34208, 33739, 33400, 33728, 33739, 33824, 34155, 33770, 33692, 33999, 34110, 36462, 33789, 33779, 33827, 33685, 33652, 33684, 33842, 33740, 34055, 33631, 33387, 33906, 33950, 33721, 33502, 33406, 33564, 33650, 33720, 34244, 34470, 34043, 33596, 33312, 33566, 33689, 34217, 33875, 33575, 34177, 34614, 34210, 34014, 33470, 33720, 34258, 34120, 33933, 34124, 33718, 34489, 36970, 33949, 33564, 33818, 35332, 35785, 33805, 33895, 33902, 33875, 33523],
      "WindowCenter": [9392.0, 9365.0, 9352.0, 9347.0, 9336.0, 9325.0, 9323.0, 9329.0, 9329.0, 9327.0, 9324.0, 9327.0, 9320.0, 9331.0, 9335.0, 9336.0, 9334.0, 9334.0, 9333.0, 9317.0, 9319.0, 9326.0, 9324.0, 9324.0, 9325.0, 9303.0, 9299.0, 9304.0, 9298.0, 9296.0, 9297.0, 9302.0, 9297.0, 9296.0, 9304.0, 9314.0, 9314.0, 9306.0, 9308.0, 9330.0, 9323.0, 9337.0, 9352.0, 9335.0, 9332.0, 9332.0, 9325.0, 9320.0, 9319.0, 9326.0, 9305.0, 9311.0, 9327.0, 9323.0, 9328.0, 9334.0, 9320.0, 9297.0, 9328.0, 9291.0, 9294.0, 9290.0, 9291.0, 9301.0, 9287.0, 9279.0, 9269.0, 9244.0, 9224.0, 9205.0, 9193.0, 9190.0, 9196.0, 9199.0, 9225.0, 9249.0, 9265.0, 9282.0, 9277.0, 9271.0, 9285.0, 9302.0, 9320.0, 9323.0, 9325.0, 9327.0, 9341.0, 9334.0, 9342.0, 9328.0, 9335.0, 9332.0, 9324.0, 9326.0, 9325.0, 9309.0, 9315.0, 9317.0, 9319.0, 9309.0, 9314.0, 9312.0, 9299.0, 9290.0, 9276.0, 9281.0, 9289.0, 9283.0, 9284.0, 9290.0, 9298.0, 9317.0, 9321.0, 9328.0, 9342.0, 9353.0, 9349.0, 9354.0, 9357.0, 9353.0, 9329.0, 9305.0, 9308.0, 9295.0, 9293.0, 9316.0, 9335.0, 9338.0, 9336.0, 9332.0, 9327.0, 9323.0, 9314.0, 9312.0, 9310.0, 9308.0, 9317.0, 9328.0, 9336.0, 9360.0, 9321.0, 9311.0, 9302.0, 9285.0, 9268.0, 9257.0, 9265.0, 9281.0, 9291.0, 9284.0, 9272.0, 9286.0, 9278.0, 9276.0, 9286.0, 9271.0, 9268.0, 9254.0, 9261.0, 9274.0, 9280.0, 9276.0, 9270.0, 9270.0, 9269.0, 9267.0, 9272.0, 9265.0, 9260.0, 9265.0, 9279.0, 9296.0, 9301.0, 9296.0, 9309.0, 9331.0, 9338.0, 9350.0, 9360.0, 9358.0, 9367.0, 9395.0, 9363.0, 9372.0, 9362.0, 9365.0, 9362.0, 9331.0, 9306.0, 9296.0, 9295.0, 9294.0],
      "WindowWidth": [20222.0, 20146.0, 20106.0, 20091.0, 20070.0, 20042.0, 20036.0, 20047.0, 20044.0, 20039.0, 20040.0, 20045.0, 20036.0, 20053.0, 20068.0, 20072.0, 20067.0, 20069.0, 20062.0, 20028.0, 20037.0, 20047.0, 20042.0, 20040.0, 20042.0, 19996.0, 19984.0, 19991.0, 19979.0, 19975.0, 19977.0, 19984.0, 19978.0, 19973.0, 19993.0, 20016.0, 20015.0, 20001.0, 20008.0, 20051.0, 20039.0, 20069.0, 20100.0, 20069.0, 20058.0, 20058.0, 20041.0, 20027.0, 20022.0, 20035.0, 19994.0, 20008.0, 20042.0, 20037.0, 20044.0, 20055.0, 20025.0, 19975.0, 20036.0, 19951.0, 19960.0, 19955.0, 19960.0, 19987.0, 19958.0, 19945.0, 19921.0, 19864.0, 19813.0, 19767.0, 19737.0, 19725.0, 19737.0, 19749.0, 19806.0, 19858.0, 19893.0, 19928.0, 19921.0, 19908.0, 19935.0, 19974.0, 20016.0, 20027.0, 20035.0, 20042.0, 20072.0, 20055.0, 20069.0, 20050.0, 20064.0, 20054.0, 20038.0, 20041.0, 20036.0, 20000.0, 20010.0, 20016.0, 20021.0, 19999.0, 20006.0, 19998.0, 19969.0, 19949.0, 19921.0, 19932.0, 19950.0, 19938.0, 19939.0, 19950.0, 19970.0, 20016.0, 20029.0, 20046.0, 20077.0, 20102.0, 20095.0, 20105.0, 20112.0, 20096.0, 20044.0, 19991.0, 19993.0, 19968.0, 19962.0, 20011.0, 20054.0, 20066.0, 20060.0, 20056.0, 20046.0, 20034.0, 20014.0, 20005.0, 20001.0, 19997.0, 20019.0, 20047.0, 20065.0, 20107.0, 20032.0, 20004.0, 19982.0, 19944.0, 19906.0, 19881.0, 19896.0, 19933.0, 19958.0, 19944.0, 19924.0, 19949.0, 19930.0, 19923.0, 19948.0, 19918.0, 19906.0, 19881.0, 19895.0, 19922.0, 19934.0, 19928.0, 19919.0, 19918.0, 19913.0, 19905.0, 19909.0, 19894.0, 19888.0, 19895.0, 19923.0, 19963.0, 19978.0, 19968.0, 19994.0, 20041.0, 20057.0, 20086.0, 20109.0, 20111.0, 20124.0, 20176.0, 20124.0, 20146.0, 20124.0, 20122.0, 20111.0, 20053.0, 19996.0, 19974.0, 19969.0, 19964.0]
    },
    "slices": {}
  },
  "NumberOfVolumes": 192
}