{
  "AcquisitionMatrixPE": 104,
  "AcquisitionNumber": 1,
  "AcquisitionTime": "11:36:9.517500",
  "BandwidthPerPixelPhaseEncode": 16.297,
  "BaseResolution": 104,
  "BodyPartExamined": "BRAIN",
  "CoilString": "HC2_4_6_7;NC2",
  "ConsistencyInfo": "N4_VE11C_LATEST_20160120",
  "ConversionSoftware": "dcm2niix",
  "ConversionSoftwareVersion": "v1.0.20190902",
  "DerivedVendorReportedEchoSpacing": 0.000590009,
  "DeviceSerialNumber": "166018",
  "DwellTime": 2.1e-06,
  "EchoTime": 0.0376,
  "EchoTrainLength": 104,
  "EffectiveEchoSpacing": 0.000590009,
  "FlipAngle": 68,
  "ImageComments": "Unaliased_MB6_PE3_LB",
  "ImageOrientationPatientDICOM": [0.998319, 0.0136682, 0.0563213, -0.00714394, 0.993403, -0.114453],
  "ImageType": [
    "ORIGINAL",
    "PRIMARY",
    "M",
    "MB",
    "ND",
    "MOSAIC"
],
  "ImagingFrequency": 123.191,
  "InPlanePhaseEncodingDirectionDICOM": "COL",
  "InstitutionAddress": "Washington_Place_6_NYC_NYC_US_10003",
  "InstitutionName": "NYU_-_CBI",
  "InstitutionalDepartmentName": "Department",
  "MRAcquisitionType": "2D",
  "MagneticFieldStrength": 3,
  "Manufacturer": "Siemens",
  "ManufacturersModelName": "Prisma",
  "Modality": "MR",
  "MultibandAccelerationFactor": 6,
  "PartialFourier": 1,
  "PatientPosition": "HFS",
  "PercentPhaseFOV": 100,
  "PhaseEncodingDirection": "j",
  "PhaseEncodingSteps": 104,
  "PhaseResolution": 1,
  "PixelBandwidth": 2290,
  "ProcedureStepDescription": "Investigators_Winawer",
  "ProtocolName": "cmrr_mbepi_s6_2mm_66sl_PA_task-prf",
  "PulseSequenceDetails": "%CustomerSeq%_cmrr_mbep2d_bold",
  "ReceiveCoilActiveElements": "HC2,4,6,7;NC2",
  "ReceiveCoilName": "HeadNeck_64",
  "ReconMatrixPE": 104,
  "RepetitionTime": 1,
  "SAR": 0.0600589,
  "ScanOptions": "FS",
  "ScanningSequence": "EP",
  "SequenceName": "epfid2d1_104",
  "SequenceVariant": "SK_SS",
  "SeriesDescription": "cmrr_mbepi_s6_2mm_66sl_PA_task-prf",
  "SeriesNumber": 26,
  "ShimSetting": [276, -12609, -8462, 556, 12, 147, 24, -29],
  "SliceThickness": 2,
  "SliceTiming": [0, 0.535, 0.0875, 0.6225, 0.1775, 0.7125, 0.2675, 0.8, 0.355, 0.89, 0.445, 0, 0.535, 0.0875, 0.6225, 0.1775, 0.7125, 0.2675, 0.8, 0.355, 0.89, 0.445, 0, 0.535, 0.0875, 0.6225, 0.1775, 0.7125, 0.2675, 0.8, 0.355, 0.89, 0.445, 0, 0.535, 0.0875, 0.6225, 0.1775, 0.7125, 0.2675, 0.8, 0.355, 0.89, 0.445, 0, 0.535, 0.0875, 0.6225, 0.1775, 0.7125, 0.2675, 0.8, 0.355, 0.89, 0.445, 0, 0.535, 0.0875, 0.6225, 0.1775, 0.7125, 0.2675, 0.8, 0.355, 0.89, 0.445],
  "SoftwareVersions": "syngo_MR_E11",
  "SpacingBetweenSlices": 2,
  "StationName": "AWP166018",
  "TaskName": "prf",
  "TotalReadoutTime": 0.060771,
  "TxRefAmp": 210.784,
  "VendorReportedEchoSpacing": 0.00059,
  "WipMemBlock": "aa653d72-c920-413e-8a58-297189b94cd0||Sequence: R016 ve11c/master r/8780670; Nov 27 2017 15:05:12 by eja",
  "dcmmeta_affine": [
    [-1.996638298034668, -0.014287878759205341, 0.1150282472372055, 106.96871185302734],
    [-0.027336489409208298, 1.9868059158325195, -0.2277165651321411, -80.09649658203125],
    [0.11264261603355408, 0.22890605032444, 1.9836616516113281, -66.66742706298828],
    [0.0, 0.0, 0.0, 1.0]
],
  "dcmmeta_reorient_transform": [
    [0.0, -1.0, 0.0, 103.0],
    [1.0, 0.0, 0.0, 0.0],
    [0.0, 0.0, 1.0, 0.0],
    [0.0, 0.0, 0.0, 1.0]
],
  "dcmmeta_shape": [104, 104, 66, 192],
  "dcmmeta_slice_dim": 2,
  "dcmmeta_version": 0.6,
  "global": {
    "const": {
      "AccessionNumber": "k7gfkyn9",
      "AcquisitionMatrix": [104, 0, 0, 104],
      "AngioFlag": "N",
      "BitsAllocated": 16,
      "BitsStored": 16,
      "BodyPartExamined": "BRAIN",
      "Columns": 936,
      "EchoNumbers": 1,
      "EchoTime": 37.6,
      "EchoTrainLength": 104,
      "FlipAngle": 68.0,
      "HighBit": 15,
      "ImageOrientationPatient": [0.99831913210548, 0.01366824469194, 0.05632130644077, -0.0071439392315, 0.99340297458014, -0.1144530219242],
      "ImagePositionPatient": [-930.15482098988, -962.42776997279, 5.2754862845493],
      "ImageType": [
        "ORIGINAL",
        "PRIMARY",
        "M",
        "MB",
        "ND",
        "MOSAIC"
],
      "ImagedNucleus": "1H",
      "ImagingFrequency": 123.190741,
      "InPlanePhaseEncodingDirection": "COL",
      "MRAcquisitionType": "2D",
      "MagneticFieldStrength": 3.0,
      "Manufacturer": "SIEMENS",
      "ManufacturerModelName": "Prisma",
      "Modality": "MR",
      "NumberOfAverages": 1.0,
      "NumberOfPhaseEncodingSteps": 104,
      "PercentPhaseFieldOfView": 100.0,
      "PercentSampling": 100.0,
      "PerformedProcedureStepStartTime": "104151.005000",
      "PhotometricInterpretation": "MONOCHROME2",
      "PixelBandwidth": 2290.0,
      "PixelRepresentation": 0,
      "PixelSpacing": [2.0, 2.0],
      "ProtocolName": "cmrr_mbepi_s6_2mm_66sl_PA_task-prf",
      "RepetitionTime": 1000.0,
      "Rows": 936,
      "SAR": 0.06005889938346,
      "SamplesPerPixel": 1,
      "ScanOptions": "FS",
      "ScanningSequence": "EP",
      "SequenceName": "epfid2d1_104",
      "SequenceVariant": [
        "SK",
        "SS"
],
      "SeriesDescription": "cmrr_mbepi_s6_2mm_66sl_PA_task-prf",
      "SeriesNumber": 26,
      "SeriesTime": "113712.896000",
      "SliceLocation": -50.850944948111,
      "SliceThickness": 2.0,
      "SmallestImagePixelValue": 0,
      "SoftwareVersions": "syngo MR E11",
      "SpacingBetweenSlices": 1.9999999725694,
      "SpecificCharacterSet": "ISO_IR 100",
      "StudyID": "2",
      "StudyTime": "104150.948000",
      "TransmitCoilName": "Body",
      "VariableFlipAngleFlag": "N",
      "WindowCenterWidthExplanation": "Algo1",
      "dBdt": 0.0},
    "slices": {}
  },
  "time": {
    "samples": {
      "AcquisitionNumber": [1, 2, 3, 4, 5, 6, 7, 8, 9, 10, 11, 12, 13, 14, 15, 16, 17, 18, 19, 20, 21, 22, 23, 24, 25, 26, 27, 28, 29, 30, 31, 32, 33, 34, 35, 36, 37, 38, 39, 40, 41, 42, 43, 44, 45, 46, 47, 48, 49, 50, 51, 52, 53, 54, 55, 56, 57, 58, 59, 60, 61, 62, 63, 64, 65, 66, 67, 68, 69, 70, 71, 72, 73, 74, 75, 76, 77, 78, 79, 80, 81, 82, 83, 84, 85, 86, 87, 88, 89, 90, 91, 92, 93, 94, 95, 96, 97, 98, 99, 100, 101, 102, 103, 104, 105, 106, 107, 108, 109, 110, 111, 112, 113, 114, 115, 116, 117, 118, 119, 120, 121, 122, 123, 124, 125, 126, 127, 128, 129, 130, 131, 132, 133, 134, 135, 136, 137, 138, 139, 140, 141, 142, 143, 144, 145, 146, 147, 148, 149, 150, 151, 152, 153, 154, 155, 156, 157, 158, 159, 160, 161, 162, 163, 164, 165, 166, 167, 168, 169, 170, 171, 172, 173, 174, 175, 176, 177, 178, 179, 180, 181, 182, 183, 184, 185, 186, 187, 188, 189, 190, 191, 192],
      "AcquisitionTime": ["113609.517500", "113610.517500", "113611.517500", "113612.517500", "113613.517500", "113614.517500", "113615.517500", "113616.517500", "113617.517500", "113618.517500", "113619.517500", "113620.517500", "113621.517500", "113622.517500", "113623.517500", "113624.517500", "113625.517500", "113626.517500", "113627.517500", "113628.517500", "113629.517500", "113630.517500", "113631.517500", "113632.517500", "113633.517500", "113634.517500", "113635.517500", "113636.517500", "113637.517500", "113638.517500", "113639.517500", "113640.517500", "113641.517500", "113642.517500", "113643.517500", "113644.517500", "113645.517500", "113646.517500", "113647.517500", "113648.517500", "113649.517500", "113650.517500", "113651.517500", "113652.517500", "113653.517500", "113654.517500", "113655.517500", "113656.517500", "113657.517500", "113658.517500", "113659.517500", "113700.517500", "113701.517500", "113702.517500", "113703.517500", "113704.517500", "113705.517500", "113706.517500", "113707.517500", "113708.517500", "113709.517500", "113710.517500", "113711.517500", "113712.517500", "113713.517500", "113714.517500", "113715.517500", "113716.517500", "113717.517500", "113718.517500", "113719.517500", "113720.517500", "113721.517500", "113722.517500", "113723.517500", "113724.517500", "113725.517500", "113726.517500", "113727.517500", "113728.517500", "113729.517500", "113730.517500", "113731.517500", "113732.517500", "113733.517500", "113734.517500", "113735.517500", "113736.517500", "113737.517500", "113738.517500", "113739.517500", "113740.517500", "113741.517500", "113742.517500", "113743.517500", "113744.517500", "113745.517500", "113746.517500", "113747.517500", "113748.517500", "113749.517500", "113750.517500", "113751.517500", "113752.517500", "113753.517500", "113754.517500", "113755.517500", "113756.517500", "113757.517500", "113758.517500", "113759.517500", "113800.517500", "113801.517500", "113802.517500", "113803.517500", "113804.517500", "113805.517500", "113806.517500", "113807.517500", "113808.517500", "113809.517500", "113810.517500", "113811.517500", "113812.517500", "113813.517500", "113814.517500", "113815.517500", "113816.517500", "113817.517500", "113818.517500", "113819.517500", "113820.517500", "113821.517500", "113822.517500", "113823.517500", "113824.517500", "113825.517500", "113826.517500", "113827.517500", "113828.517500", "113829.517500", "113830.517500", "113831.517500", "113832.517500", "113833.517500", "113834.517500", "113835.517500", "113836.517500", "113837.517500", "113838.517500", "113839.517500", "113840.517500", "113841.517500", "113842.517500", "113843.517500", "113844.517500", "113845.517500", "113846.517500", "113847.517500", "113848.517500", "113849.517500", "113850.517500", "113851.517500", "113852.517500", "113853.517500", "113854.517500", "113855.517500", "113856.517500", "113857.517500", "113858.517500", "113859.517500", "113900.517500", "113901.517500", "113902.517500", "113903.517500", "113904.517500", "113905.517500", "113906.517500", "113907.517500", "113908.517500", "113909.517500", "113910.517500", "113911.517500", "113912.517500", "113913.517500", "113914.517500", "113915.517500", "113916.517500", "113917.517500", "113918.517500", "113919.517500", "113920.517500"],
      "ContentTime": ["113712.898000", "113712.902000", "113712.905000", "113712.908000", "113712.911000", "113712.914000", "113712.917000", "113712.919000", "113712.922000", "113712.925000", "113712.928000", "113712.931000", "113712.943000", "113712.946000", "113712.948000", "113712.951000", "113712.954000", "113712.957000", "113712.960000", "113712.963000", "113712.965000", "113712.968000", "113712.971000", "113712.974000", "113712.977000", "113712.980000", "113712.983000", "113712.987000", "113712.991000", "113712.994000", "113712.996000", "113713.000000", "113713.003000", "113713.006000", "113713.018000", "113713.021000", "113713.031000", "113713.034000", "113713.036000", "113713.039000", "113713.054000", "113713.056000", "113713.059000", "113713.062000", "113713.065000", "113713.068000", "113713.071000", "113713.074000", "113713.077000", "113713.079000", "113713.082000", "113713.085000", "113713.088000", "113713.091000", "113713.094000", "113732.874000", "113732.877000", "113732.880000", "113732.882000", "113732.885000", "113732.888000", "113732.891000", "113732.894000", "113732.897000", "113732.900000", "113732.903000", "113732.906000", "113732.909000", "113732.912000", "113732.915000", "113732.917000", "113732.920000", "113732.923000", "113732.940000", "113732.943000", "113732.945000", "113732.948000", "113732.951000", "113732.954000", "113732.957000", "113732.960000", "113732.963000", "113732.965000", "113752.873000", "113752.876000", "113752.878000", "113752.881000", "113752.884000", "113752.887000", "113752.890000", "113752.893000", "113752.896000", "113752.898000", "113752.901000", "113752.904000", "113752.907000", "113752.910000", "113752.913000", "113752.916000", "113752.919000", "113752.922000", "113752.924000", "113752.927000", "113812.873000", "113812.876000", "113812.879000", "113812.881000", "113812.884000", "113812.887000", "113812.890000", "113812.893000", "113812.896000", "113812.899000", "113812.902000", "113812.905000", "113812.908000", "113812.910000", "113812.913000", "113812.916000", "113812.919000", "113812.922000", "113812.925000", "113812.928000", "113832.873000", "113832.876000", "113832.879000", "113832.882000", "113832.896000", "113832.899000", "113832.902000", "113832.905000", "113832.908000", "113832.911000", "113832.913000", "113832.916000", "113832.919000", "113832.922000", "113832.925000", "113832.928000", "113832.931000", "113832.934000", "113832.936000", "113832.939000", "113852.873000", "113852.876000", "113852.879000", "113852.881000", "113852.884000", "113852.887000", "113852.890000", "113852.893000", "113852.896000", "113852.899000", "113852.902000", "113852.904000", "113852.907000", "113852.910000", "113852.913000", "113852.916000", "113852.919000", "113852.922000", "113852.924000", "113852.927000", "113912.873000", "113912.876000", "113912.886000", "113912.889000", "113912.892000", "113912.895000", "113912.898000", "113912.901000", "113912.910000", "113912.913000", "113912.916000", "113912.919000", "113912.921000", "113912.924000", "113912.927000", "113912.930000", "113912.933000", "113912.936000", "113912.939000", "113912.944000", "113921.803000", "113921.806000", "113921.809000", "113921.812000", "113921.815000", "113921.818000", "113921.821000", "113921.823000", "113921.826000"],
      "InstanceCreationTime": ["113712.898000", "113712.902000", "113712.905000", "113712.908000", "113712.911000", "113712.914000", "113712.917000", "113712.919000", "113712.922000", "113712.925000", "113712.928000", "113712.931000", "113712.943000", "113712.946000", "113712.948000", "113712.951000", "113712.954000", "113712.957000", "113712.960000", "113712.963000", "113712.965000", "113712.968000", "113712.971000", "113712.974000", "113712.977000", "113712.980000", "113712.983000", "113712.987000", "113712.991000", "113712.994000", "113712.996000", "113713.000000", "113713.003000", "113713.006000", "113713.018000", "113713.021000", "113713.031000", "113713.034000", "113713.036000", "113713.039000", "113713.054000", "113713.056000", "113713.059000", "113713.062000", "113713.065000", "113713.068000", "113713.071000", "113713.074000", "113713.077000", "113713.079000", "113713.082000", "113713.085000", "113713.088000", "113713.091000", "113713.094000", "113732.874000", "113732.877000", "113732.880000", "113732.882000", "113732.885000", "113732.888000", "113732.891000", "113732.894000", "113732.897000", "113732.900000", "113732.903000", "113732.906000", "113732.909000", "113732.912000", "113732.915000", "113732.917000", "113732.920000", "113732.923000", "113732.940000", "113732.943000", "113732.945000", "113732.948000", "113732.951000", "113732.954000", "113732.957000", "113732.960000", "113732.963000", "113732.965000", "113752.873000", "113752.876000", "113752.878000", "113752.881000", "113752.884000", "113752.887000", "113752.890000", "113752.893000", "113752.896000", "113752.898000", "113752.901000", "113752.904000", "113752.907000", "113752.910000", "113752.913000", "113752.916000", "113752.919000", "113752.922000", "113752.924000", "113752.927000", "113812.873000", "113812.876000", "113812.879000", "113812.881000", "113812.884000", "113812.887000", "113812.890000", "113812.893000", "113812.896000", "113812.899000", "113812.902000", "113812.905000", "113812.908000", "113812.910000", "113812.913000", "113812.916000", "113812.919000", "113812.922000", "113812.925000", "113812.928000", "113832.873000", "113832.876000", "113832.879000", "113832.882000", "113832.896000", "113832.899000", "113832.902000", "113832.905000", "113832.908000", "113832.911000", "113832.913000", "113832.916000", "113832.919000", "113832.922000", "113832.925000", "113832.928000", "113832.931000", "113832.934000", "113832.936000", "113832.939000", "113852.873000", "113852.876000", "113852.879000", "113852.881000", "113852.884000", "113852.887000", "113852.890000", "113852.893000", "113852.896000", "113852.899000", "113852.902000", "113852.904000", "113852.907000", "113852.910000", "113852.913000", "113852.916000", "113852.919000", "113852.922000", "113852.924000", "113852.927000", "113912.873000", "113912.876000", "113912.886000", "113912.889000", "113912.892000", "113912.895000", "113912.898000", "113912.901000", "113912.910000", "113912.913000", "113912.916000", "113912.919000", "113912.921000", "113912.924000", "113912.927000", "113912.930000", "113912.933000", "113912.936000", "113912.939000", "113912.944000", "113921.803000", "113921.806000", "113921.809000", "113921.812000", "113921.815000", "113921.818000", "113921.821000", "113921.823000", "113921.826000"],
      "InstanceNumber": [1, 2, 3, 4, 5, 6, 7, 8, 9, 10, 11, 12, 13, 14, 15, 16, 17, 18, 19, 20, 21, 22, 23, 24, 25, 26, 27, 28, 29, 30, 31, 32, 33, 34, 35, 36, 37, 38, 39, 40, 41, 42, 43, 44, 45, 46, 47, 48, 49, 50, 51, 52, 53, 54, 55, 56, 57, 58, 59, 60, 61, 62, 63, 64, 65, 66, 67, 68, 69, 70, 71, 72, 73, 74, 75, 76, 77, 78, 79, 80, 81, 82, 83, 84, 85, 86, 87, 88, 89, 90, 91, 92, 93, 94, 95, 96, 97, 98, 99, 100, 101, 102, 103, 104, 105, 106, 107, 108, 109, 110, 111, 112, 113, 114, 115, 116, 117, 118, 119, 120, 121, 122, 123, 124, 125, 126, 127, 128, 129, 130, 131, 132, 133, 134, 135, 136, 137, 138, 139, 140, 141, 142, 143, 144, 145, 146, 147, 148, 149, 150, 151, 152, 153, 154, 155, 156, 157, 158, 159, 160, 161, 162, 163, 164, 165, 166, 167, 168, 169, 170, 171, 172, 173, 174, 175, 176, 177, 178, 179, 180, 181, 182, 183, 184, 185, 186, 187, 188, 189, 190, 191, 192],
      "LargestImagePixelValue": [38381, 36158, 36800, 36375, 37459, 33522, 33255, 33817, 34703, 34013, 33758, 34358, 34168, 34023, 35163, 35356, 34415, 33787, 34126, 34246, 33619, 34826, 34628, 33805, 34623, 34201, 34062, 34171, 34279, 35175, 35373, 34665, 34019, 34778, 34898, 34605, 35435, 35063, 35213, 35149, 35122, 34595, 34435, 33694, 33681, 34194, 33449, 33544, 33807, 33559, 33863, 33658, 35087, 34660, 34144, 34460, 35357, 34936, 34355, 34115, 33882, 34841, 34375, 34114, 34409, 33813, 35628, 34700, 34615, 35850, 35086, 34500, 34175, 33865, 34270, 36178, 33884, 33933, 33706, 34366, 33822, 33968, 34620, 33851, 34490, 34955, 34653, 34650, 33781, 33777, 34139, 33209, 33624, 33656, 34313, 34153, 33998, 33542, 33144, 34504, 34368, 34132, 33734, 34276, 33890, 33688, 34860, 33104, 33620, 34776, 34297, 34219, 33630, 33764, 34049, 34111, 34294, 34173, 33922, 33204, 33914, 33452, 34814, 34362, 33902, 33845, 34117, 33629, 33535, 33410, 32967, 33784, 32837, 33090, 33112, 33642, 33451, 33672, 33962, 34105, 33477, 33428, 33848, 34636, 34181, 33751, 33619, 33412, 33459, 33647, 33441, 32948, 33015, 33089, 32447, 33608, 33635, 33398, 32808, 33052, 33332, 33645, 38317, 37709, 36758, 36681, 36316, 33577, 36463, 33608, 33423, 34602, 33751, 33837, 33637, 33347, 37931, 34138, 32938, 33875, 37516, 36603, 33792, 33309, 36011, 32918, 36475, 32912, 35834, 33678, 33423, 33251],
      "WindowCenter": [9320.0, 9254.0, 9248.0, 9167.0, 9230.0, 9158.0, 9168.0, 9183.0, 9201.0, 9187.0, 9182.0, 9187.0, 9184.0, 9168.0, 9196.0, 9189.0, 9188.0, 9168.0, 9174.0, 9171.0, 9162.0, 9162.0, 9145.0, 9138.0, 9149.0, 9136.0, 9131.0, 9137.0, 9126.0, 9119.0, 9147.0, 9114.0, 9100.0, 9119.0, 9123.0, 9141.0, 9146.0, 9162.0, 9182.0, 9201.0, 9220.0, 9212.0, 9213.0, 9205.0, 9230.0, 9247.0, 9245.0, 9236.0, 9225.0, 9201.0, 9196.0, 9208.0, 9227.0, 9234.0, 9253.0, 9254.0, 9252.0, 9245.0, 9240.0, 9255.0, 9273.0, 9294.0, 9297.0, 9300.0, 9301.0, 9303.0, 9320.0, 9303.0, 9297.0, 9296.0, 9276.0, 9271.0, 9272.0, 9266.0, 9265.0, 9287.0, 9266.0, 9257.0, 9242.0, 9234.0, 9228.0, 9244.0, 9236.0, 9201.0, 9201.0, 9195.0, 9190.0, 9193.0, 9173.0, 9172.0, 9179.0, 9176.0, 9183.0, 9173.0, 9187.0, 9188.0, 9181.0, 9174.0, 9167.0, 9188.0, 9181.0, 9171.0, 9157.0, 9163.0, 9154.0, 9159.0, 9174.0, 9164.0, 9090.0, 9146.0, 9231.0, 9210.0, 9198.0, 9196.0, 9187.0, 9184.0, 9177.0, 9184.0, 9193.0, 9195.0, 9201.0, 9202.0, 9225.0, 9244.0, 9238.0, 9239.0, 9245.0, 9210.0, 9210.0, 9207.0, 9201.0, 9205.0, 9186.0, 9176.0, 9165.0, 9173.0, 9166.0, 9156.0, 9175.0, 9173.0, 9181.0, 9191.0, 9212.0, 9219.0, 9238.0, 9234.0, 9235.0, 9230.0, 9242.0, 9226.0, 9215.0, 9194.0, 9192.0, 9186.0, 9171.0, 9186.0, 9195.0, 9198.0, 9234.0, 9289.0, 9327.0, 9351.0, 9397.0, 9377.0, 9357.0, 9347.0, 9325.0, 9295.0, 9330.0, 9289.0, 9282.0, 9292.0, 9288.0, 9286.0, 9270.0, 9261.0, 9318.0, 9290.0, 9295.0, 9301.0, 9327.0, 9321.0, 9286.0, 9279.0, 9315.0, 9282.0, 9321.0, 9274.0, 9309.0, 9279.0, 9281.0, 9290.0],
      "WindowWidth": [20035.0, 19878.0, 19857.0, 19676.0, 19817.0, 19678.0, 19693.0, 19719.0, 19757.0, 19732.0, 19722.0, 19734.0, 19725.0, 19693.0, 19749.0, 19737.0, 19730.0, 19692.0, 19706.0, 19699.0, 19683.0, 19668.0, 19628.0, 19612.0, 19636.0, 19612.0, 19608.0, 19621.0, 19590.0, 19561.0, 19622.0, 19550.0, 19527.0, 19565.0, 19580.0, 19626.0, 19630.0, 19664.0, 19714.0, 19760.0, 19804.0, 19788.0, 19795.0, 19774.0, 19826.0, 19861.0, 19860.0, 19841.0, 19816.0, 19767.0, 19754.0, 19776.0, 19802.0, 19824.0, 19867.0, 19869.0, 19862.0, 19854.0, 19850.0, 19883.0, 19926.0, 19967.0, 19980.0, 19988.0, 19993.0, 19999.0, 20031.0, 20004.0, 19990.0, 19980.0, 19933.0, 19921.0, 19925.0, 19912.0, 19909.0, 19949.0, 19921.0, 19898.0, 19865.0, 19833.0, 19820.0, 19853.0, 19834.0, 19756.0, 19752.0, 19735.0, 19731.0, 19747.0, 19693.0, 19685.0, 19698.0, 19699.0, 19713.0, 19690.0, 19718.0, 19721.0, 19708.0, 19697.0, 19686.0, 19724.0, 19710.0, 19687.0, 19654.0, 19664.0, 19646.0, 19666.0, 19687.0, 19678.0, 19492.0, 19640.0, 19823.0, 19777.0, 19758.0, 19754.0, 19735.0, 19724.0, 19711.0, 19725.0, 19746.0, 19749.0, 19760.0, 19756.0, 19802.0, 19853.0, 19838.0, 19841.0, 19851.0, 19783.0, 19788.0, 19777.0, 19765.0, 19764.0, 19734.0, 19714.0, 19695.0, 19703.0, 19691.0, 19665.0, 19706.0, 19701.0, 19718.0, 19744.0, 19781.0, 19794.0, 19837.0, 19832.0, 19837.0, 19833.0, 19856.0, 19819.0, 19784.0, 19744.0, 19740.0, 19729.0, 19701.0, 19719.0, 19738.0, 19748.0, 19832.0, 19959.0, 20048.0, 20104.0, 20183.0, 20143.0, 20102.0, 20078.0, 20034.0, 19981.0, 20040.0, 19969.0, 19956.0, 19971.0, 19967.0, 19958.0, 19926.0, 19902.0, 19996.0, 19958.0, 19977.0, 19986.0, 20026.0, 20015.0, 19956.0, 19945.0, 20005.0, 19952.0, 20013.0, 19934.0, 19991.0, 19943.0, 19950.0, 19971.0]
    },
    "slices": {}
  },
  "NumberOfVolumes": 192
}