{
  "AcquisitionMatrixPE": 104,
  "AcquisitionNumber": 1,
  "AcquisitionTime": "10:41:40.885000",
  "BandwidthPerPixelPhaseEncode": 16.297,
  "BaseResolution": 104,
  "BodyPartExamined": "BRAIN",
  "ConsistencyInfo": "N4_VE11C_LATEST_20160120",
  "ConversionSoftware": "dcm2niix",
  "ConversionSoftwareVersion": "v1.0.20210317",
  "DerivedVendorReportedEchoSpacing": 0.000590009,
  "DeviceSerialNumber": "166018",
  "DwellTime": 2.1e-06,
  "EchoTime": 0.0376,
  "EchoTrainLength": 104,
  "EffectiveEchoSpacing": 0.000590009,
  "FlipAngle": 68,
  "ImageComments": "Unaliased MB6/PE3/LB",
  "ImageOrientationPatientDICOM": [0.997949, -0.00505564, 0.0638133, 0.0174193, 0.980705, -0.194715],
  "ImageType": [
    "ORIGINAL",
    "PRIMARY",
    "M",
    "MB",
    "ND",
    "MOSAIC"
],
  "ImagingFrequency": 123.197,
  "InPlanePhaseEncodingDirectionDICOM": "COL",
  "InstitutionAddress": "Washington Place 6,NYC,NYC,US,10003",
  "InstitutionName": "NYU - CBI",
  "InstitutionalDepartmentName": "Department",
  "MRAcquisitionType": "2D",
  "MagneticFieldStrength": 3,
  "Manufacturer": "Siemens",
  "ManufacturersModelName": "Prisma",
  "Modality": "MR",
  "MultibandAccelerationFactor": 6,
  "PartialFourier": 1,
  "PatientPosition": "HFS",
  "PercentPhaseFOV": 100,
  "PercentSampling": 100,
  "PhaseEncodingDirection": "j",
  "PhaseEncodingSteps": 104,
  "PhaseResolution": 1,
  "PixelBandwidth": 2290,
  "ProcedureStepDescription": "Investigators^Winawer",
  "ProtocolName": "cmrr_mbepi_s6_2mm_66sl_PA_task-bar2",
  "PulseSequenceDetails": "%CustomerSeq%\\cmrr_mbep2d_bold",
  "ReceiveCoilActiveElements": "HC1-7",
  "ReceiveCoilName": "HeadNeck_64",
  "ReconMatrixPE": 104,
  "RepetitionTime": 1,
  "SAR": 0.0880743,
  "ScanOptions": "FS",
  "ScanningSequence": "EP",
  "SequenceName": "epfid2d1_104",
  "SequenceVariant": "SK\\SS",
  "SeriesDescription": "cmrr_mbepi_s6_2mm_66sl_PA_task-bar2",
  "SeriesNumber": 12,
  "ShimSetting": [304, -12636, -8410, 315, -7, -58, -33, 32],
  "SliceThickness": 2,
  "SliceTiming": [0, 0.535, 0.09, 0.625, 0.18, 0.715, 0.2675, 0.8025, 0.3575, 0.8925, 0.4475, 0, 0.535, 0.09, 0.625, 0.18, 0.715, 0.2675, 0.8025, 0.3575, 0.8925, 0.4475, 0, 0.535, 0.09, 0.625, 0.18, 0.715, 0.2675, 0.8025, 0.3575, 0.8925, 0.4475, 0, 0.535, 0.09, 0.625, 0.18, 0.715, 0.2675, 0.8025, 0.3575, 0.8925, 0.4475, 0, 0.535, 0.09, 0.625, 0.18, 0.715, 0.2675, 0.8025, 0.3575, 0.8925, 0.4475, 0, 0.535, 0.09, 0.625, 0.18, 0.715, 0.2675, 0.8025, 0.3575, 0.8925, 0.4475],
  "SoftwareVersions": "syngo MR E11",
  "SpacingBetweenSlices": 2,
  "StationName": "AWP166018",
  "TaskName": "bar2",
  "TotalReadoutTime": 0.060771,
  "TxRefAmp": 251.812,
  "VendorReportedEchoSpacing": 0.00059,
  "WipMemBlock": "da6d4640-bb4f-4ece-86de-2fd72a797bc2||Sequence: R016 ve11c/master r/8780670; Nov 27 2017 15:05:12 by eja",
  "dcmmeta_affine": [
    [-1.9958981275558472, 0.03483850136399269, 0.12319528311491013, 104.44586944580078],
    [0.010111279785633087, 1.9614101648330688, -0.3908551037311554, -62.15074920654297],
    [0.12762664258480072, 0.3894306421279907, 1.9575635194778442, -63.91557693481445],
    [0.0, 0.0, 0.0, 1.0]
],
  "dcmmeta_reorient_transform": [
    [0.0, -1.0, 0.0, 103.0],
    [1.0, 0.0, 0.0, 0.0],
    [0.0, 0.0, 1.0, 0.0],
    [0.0, 0.0, 0.0, 1.0]
],
  "dcmmeta_shape": [104, 104, 66, 300],
  "dcmmeta_slice_dim": 2,
  "dcmmeta_version": 0.6,
  "global": {
    "const": {
      "AccessionNumber": "KKBJMBMG",
      "AcquisitionMatrix": [104, 0, 0, 104],
      "AngioFlag": "N",
      "BitsAllocated": 16,
      "BitsStored": 16,
      "BodyPartExamined": "BRAIN",
      "Columns": 936,
      "EchoNumbers": 1,
      "EchoTime": 37.6,
      "EchoTrainLength": 104,
      "FlipAngle": 68.0,
      "HighBit": 15,
      "ImageOrientationPatient": [0.9979490468439, -0.0050556399145, 0.06381332469329, 0.01741925015011, 0.98070510978771, -0.1947153238975],
      "ImagePositionPatient": [-952.82065719214, -951.61486333501, 85.106241469942],
      "ImageType": [
        "ORIGINAL",
        "PRIMARY",
        "M",
        "MB",
        "ND",
        "MOSAIC"
],
      "ImagedNucleus": "1H",
      "ImagingFrequency": 123.196713,
      "InPlanePhaseEncodingDirection": "COL",
      "MRAcquisitionType": "2D",
      "MagneticFieldStrength": 3.0,
      "Manufacturer": "SIEMENS",
      "ManufacturerModelName": "Prisma",
      "Modality": "MR",
      "NumberOfAverages": 1.0,
      "NumberOfPhaseEncodingSteps": 104,
      "PercentPhaseFieldOfView": 100.0,
      "PercentSampling": 100.0,
      "PerformedProcedureStepStartTime": "102354.330000",
      "PhotometricInterpretation": "MONOCHROME2",
      "PixelBandwidth": 2290.0,
      "PixelRepresentation": 0,
      "PixelSpacing": [2.0, 2.0],
      "ProtocolName": "cmrr_mbepi_s6_2mm_66sl_PA_task-bar2",
      "RepetitionTime": 1000.0,
      "Rows": 936,
      "SAR": 0.08807427698203,
      "SamplesPerPixel": 1,
      "ScanOptions": "FS",
      "ScanningSequence": "EP",
      "SequenceName": "epfid2d1_104",
      "SequenceVariant": [
        "SK",
        "SS"
],
      "SeriesDescription": "cmrr_mbepi_s6_2mm_66sl_PA_task-bar2",
      "SeriesNumber": 12,
      "SeriesTime": "104253.399000",
      "SliceLocation": -43.979816825143,
      "SliceThickness": 2.0,
      "SmallestImagePixelValue": 0,
      "SoftwareVersions": "syngo MR E11",
      "SpacingBetweenSlices": 1.999999956685,
      "SpecificCharacterSet": "ISO_IR 100",
      "StudyID": "1",
      "StudyTime": "102354.263000",
      "TransmitCoilName": "Body",
      "VariableFlipAngleFlag": "N",
      "WindowCenterWidthExplanation": "Algo1",
      "dBdt": 0.0},
    "slices": {}
  },
  "time": {
    "samples": {
      "AcquisitionNumber": [1, 2, 3, 4, 5, 6, 7, 8, 9, 10, 11, 12, 13, 14, 15, 16, 17, 18, 19, 20, 21, 22, 23, 24, 25, 26, 27, 28, 29, 30, 31, 32, 33, 34, 35, 36, 37, 38, 39, 40, 41, 42, 43, 44, 45, 46, 47, 48, 49, 50, 51, 52, 53, 54, 55, 56, 57, 58, 59, 60, 61, 62, 63, 64, 65, 66, 67, 68, 69, 70, 71, 72, 73, 74, 75, 76, 77, 78, 79, 80, 81, 82, 83, 84, 85, 86, 87, 88, 89, 90, 91, 92, 93, 94, 95, 96, 97, 98, 99, 100, 101, 102, 103, 104, 105, 106, 107, 108, 109, 110, 111, 112, 113, 114, 115, 116, 117, 118, 119, 120, 121, 122, 123, 124, 125, 126, 127, 128, 129, 130, 131, 132, 133, 134, 135, 136, 137, 138, 139, 140, 141, 142, 143, 144, 145, 146, 147, 148, 149, 150, 151, 152, 153, 154, 155, 156, 157, 158, 159, 160, 161, 162, 163, 164, 165, 166, 167, 168, 169, 170, 171, 172, 173, 174, 175, 176, 177, 178, 179, 180, 181, 182, 183, 184, 185, 186, 187, 188, 189, 190, 191, 192, 193, 194, 195, 196, 197, 198, 199, 200, 201, 202, 203, 204, 205, 206, 207, 208, 209, 210, 211, 212, 213, 214, 215, 216, 217, 218, 219, 220, 221, 222, 223, 224, 225, 226, 227, 228, 229, 230, 231, 232, 233, 234, 235, 236, 237, 238, 239, 240, 241, 242, 243, 244, 245, 246, 247, 248, 249, 250, 251, 252, 253, 254, 255, 256, 257, 258, 259, 260, 261, 262, 263, 264, 265, 266, 267, 268, 269, 270, 271, 272, 273, 274, 275, 276, 277, 278, 279, 280, 281, 282, 283, 284, 285, 286, 287, 288, 289, 290, 291, 292, 293, 294, 295, 296, 297, 298, 299, 300],
      "AcquisitionTime": ["104140.885000", "104141.885000", "104142.885000", "104143.885000", "104144.885000", "104145.885000", "104146.885000", "104147.885000", "104148.885000", "104149.885000", "104150.885000", "104151.885000", "104152.885000", "104153.885000", "104154.885000", "104155.885000", "104156.885000", "104157.885000", "104158.885000", "104159.885000", "104200.885000", "104201.885000", "104202.885000", "104203.885000", "104204.885000", "104205.885000", "104206.885000", "104207.885000", "104208.885000", "104209.885000", "104210.885000", "104211.885000", "104212.885000", "104213.885000", "104214.885000", "104215.885000", "104216.885000", "104217.885000", "104218.885000", "104219.885000", "104220.885000", "104221.885000", "104222.885000", "104223.885000", "104224.885000", "104225.885000", "104226.885000", "104227.885000", "104228.885000", "104229.885000", "104230.885000", "104231.885000", "104232.885000", "104233.885000", "104234.885000", "104235.885000", "104236.885000", "104237.885000", "104238.885000", "104239.885000", "104240.885000", "104241.885000", "104242.885000", "104243.885000", "104244.885000", "104245.885000", "104246.885000", "104247.885000", "104248.885000", "104249.885000", "104250.885000", "104251.885000", "104252.885000", "104253.885000", "104254.885000", "104255.885000", "104256.885000", "104257.885000", "104258.885000", "104259.885000", "104300.885000", "104301.885000", "104302.885000", "104303.885000", "104304.885000", "104305.885000", "104306.885000", "104307.885000", "104308.885000", "104309.885000", "104310.885000", "104311.885000", "104312.885000", "104313.885000", "104314.885000", "104315.885000", "104316.885000", "104317.885000", "104318.885000", "104319.885000", "104320.885000", "104321.885000", "104322.885000", "104323.885000", "104324.885000", "104325.885000", "104326.885000", "104327.885000", "104328.885000", "104329.885000", "104330.885000", "104331.885000", "104332.885000", "104333.885000", "104334.885000", "104335.885000", "104336.885000", "104337.885000", "104338.885000", "104339.885000", "104340.885000", "104341.885000", "104342.885000", "104343.885000", "104344.885000", "104345.885000", "104346.885000", "104347.885000", "104348.885000", "104349.885000", "104350.885000", "104351.885000", "104352.885000", "104353.885000", "104354.885000", "104355.885000", "104356.885000", "104357.885000", "104358.885000", "104359.885000", "104400.885000", "104401.885000", "104402.885000", "104403.885000", "104404.885000", "104405.885000", "104406.885000", "104407.885000", "104408.885000", "104409.885000", "104410.885000", "104411.885000", "104412.885000", "104413.885000", "104414.885000", "104415.885000", "104416.885000", "104417.885000", "104418.885000", "104419.885000", "104420.885000", "104421.885000", "104422.885000", "104423.885000", "104424.885000", "104425.885000", "104426.885000", "104427.885000", "104428.885000", "104429.885000", "104430.885000", "104431.885000", "104432.885000", "104433.885000", "104434.885000", "104435.885000", "104436.885000", "104437.885000", "104438.885000", "104439.885000", "104440.885000", "104441.885000", "104442.885000", "104443.885000", "104444.885000", "104445.885000", "104446.885000", "104447.885000", "104448.885000", "104449.885000", "104450.885000", "104451.885000", "104452.885000", "104453.885000", "104454.885000", "104455.885000", "104456.885000", "104457.885000", "104458.885000", "104459.885000", "104500.885000", "104501.885000", "104502.885000", "104503.885000", "104504.885000", "104505.885000", "104506.885000", "104507.885000", "104508.885000", "104509.885000", "104510.885000", "104511.885000", "104512.885000", "104513.885000", "104514.885000", "104515.885000", "104516.885000", "104517.885000", "104518.885000", "104519.885000", "104520.885000", "104521.885000", "104522.885000", "104523.885000", "104524.885000", "104525.885000", "104526.885000", "104527.885000", "104528.885000", "104529.885000", "104530.885000", "104531.885000", "104532.885000", "104533.885000", "104534.885000", "104535.885000", "104536.885000", "104537.885000", "104538.885000", "104539.885000", "104540.885000", "104541.885000", "104542.885000", "104543.885000", "104544.885000", "104545.885000", "104546.885000", "104547.885000", "104548.885000", "104549.885000", "104550.885000", "104551.885000", "104552.885000", "104553.885000", "104554.885000", "104555.885000", "104556.885000", "104557.885000", "104558.885000", "104559.885000", "104600.885000", "104601.885000", "104602.885000", "104603.885000", "104604.885000", "104605.885000", "104606.885000", "104607.885000", "104608.885000", "104609.885000", "104610.885000", "104611.885000", "104612.885000", "104613.885000", "104614.885000", "104615.885000", "104616.885000", "104617.885000", "104618.885000", "104619.885000", "104620.885000", "104621.885000", "104622.885000", "104623.885000", "104624.885000", "104625.885000", "104626.885000", "104627.885000", "104628.885000", "104629.885000", "104630.885000", "104631.885000", "104632.885000", "104633.885000", "104634.885000", "104635.885000", "104636.885000", "104637.885000", "104638.885000", "104639.885000"],
      "ContentTime": ["104253.402000", "104253.406000", "104253.409000", "104253.412000", "104253.415000", "104253.418000", "104253.426000", "104253.429000", "104253.432000", "104253.435000", "104253.438000", "104253.441000", "104253.444000", "104253.447000", "104253.450000", "104253.453000", "104253.456000", "104253.459000", "104253.462000", "104253.465000", "104253.468000", "104253.471000", "104253.481000", "104253.484000", "104253.487000", "104253.490000", "104253.493000", "104253.496000", "104253.499000", "104253.502000", "104253.505000", "104313.368000", "104313.371000", "104313.374000", "104313.377000", "104313.380000", "104313.383000", "104313.386000", "104313.389000", "104313.392000", "104313.395000", "104313.398000", "104313.401000", "104313.405000", "104313.408000", "104313.416000", "104313.419000", "104313.422000", "104313.428000", "104313.431000", "104313.434000", "104313.437000", "104313.440000", "104313.443000", "104313.446000", "104313.449000", "104313.452000", "104313.455000", "104313.458000", "104333.368000", "104333.371000", "104333.374000", "104333.377000", "104333.380000", "104333.383000", "104333.386000", "104333.389000", "104333.392000", "104333.395000", "104333.398000", "104333.401000", "104333.405000", "104333.408000", "104333.411000", "104333.414000", "104333.417000", "104333.420000", "104333.423000", "104333.426000", "104333.429000", "104333.432000", "104333.435000", "104333.438000", "104333.441000", "104333.444000", "104333.447000", "104333.450000", "104353.368000", "104353.371000", "104353.374000", "104353.377000", "104353.380000", "104353.388000", "104353.391000", "104353.394000", "104353.397000", "104353.400000", "104353.403000", "104353.410000", "104353.413000", "104353.416000", "104353.419000", "104353.422000", "104353.425000", "104353.428000", "104353.431000", "104353.434000", "104353.437000", "104353.440000", "104353.443000", "104353.446000", "104353.449000", "104353.452000", "104353.455000", "104353.458000", "104353.461000", "104413.368000", "104413.371000", "104413.374000", "104413.377000", "104413.385000", "104413.388000", "104413.391000", "104413.394000", "104413.398000", "104413.401000", "104413.404000", "104413.407000", "104413.410000", "104413.413000", "104413.416000", "104413.419000", "104413.422000", "104413.425000", "104413.428000", "104413.431000", "104413.434000", "104413.437000", "104413.440000", "104413.443000", "104413.447000", "104413.450000", "104413.453000", "104413.456000", "104433.369000", "104433.372000", "104433.375000", "104433.379000", "104433.382000", "104433.385000", "104433.388000", "104433.391000", "104433.394000", "104433.397000", "104433.400000", "104433.403000", "104433.406000", "104433.422000", "104433.425000", "104433.428000", "104433.431000", "104433.434000", "104433.437000", "104433.440000", "104433.444000", "104433.447000", "104433.450000", "104433.453000", "104433.456000", "104433.459000", "104433.462000", "104453.369000", "104453.372000", "104453.375000", "104453.378000", "104453.382000", "104453.385000", "104453.410000", "104453.413000", "104453.416000", "104453.419000", "104453.422000", "104453.425000", "104453.428000", "104453.431000", "104453.434000", "104453.437000", "104453.440000", "104453.443000", "104453.446000", "104453.449000", "104513.369000", "104513.374000", "104513.394000", "104513.397000", "104513.400000", "104513.403000", "104513.406000", "104513.409000", "104513.412000", "104513.415000", "104513.418000", "104513.421000", "104513.424000", "104513.427000", "104513.430000", "104513.433000", "104513.436000", "104513.439000", "104513.442000", "104513.445000", "104533.368000", "104533.371000", "104533.376000", "104533.379000", "104533.382000", "104533.385000", "104533.388000", "104533.392000", "104533.395000", "104533.398000", "104533.401000", "104533.404000", "104533.407000", "104533.410000", "104533.413000", "104533.416000", "104533.419000", "104533.422000", "104533.425000", "104533.428000", "104553.368000", "104553.372000", "104553.375000", "104553.379000", "104553.383000", "104553.386000", "104553.389000", "104553.392000", "104553.395000", "104553.398000", "104553.401000", "104553.405000", "104553.408000", "104553.411000", "104553.414000", "104553.417000", "104553.420000", "104553.423000", "104553.426000", "104553.429000", "104613.368000", "104613.372000", "104613.375000", "104613.378000", "104613.382000", "104613.385000", "104613.388000", "104613.391000", "104613.394000", "104613.397000", "104613.400000", "104613.404000", "104613.407000", "104613.410000", "104613.413000", "104613.416000", "104613.419000", "104613.422000", "104613.425000", "104613.429000", "104633.368000", "104633.371000", "104633.374000", "104633.378000", "104633.381000", "104633.384000", "104633.387000", "104633.390000", "104633.393000", "104633.396000", "104633.399000", "104633.402000", "104633.405000", "104633.408000", "104633.411000", "104633.414000", "104633.417000", "104633.420000", "104633.423000", "104633.427000", "104641.438000", "104641.441000", "104641.444000", "104641.447000", "104641.450000", "104641.453000", "104641.457000", "104641.460000", "104641.463000"],
      "InstanceCreationTime": ["104253.402000", "104253.406000", "104253.409000", "104253.412000", "104253.415000", "104253.418000", "104253.426000", "104253.429000", "104253.432000", "104253.435000", "104253.438000", "104253.441000", "104253.444000", "104253.447000", "104253.450000", "104253.453000", "104253.456000", "104253.459000", "104253.462000", "104253.465000", "104253.468000", "104253.471000", "104253.481000", "104253.484000", "104253.487000", "104253.490000", "104253.493000", "104253.496000", "104253.499000", "104253.502000", "104253.505000", "104313.368000", "104313.371000", "104313.374000", "104313.377000", "104313.380000", "104313.383000", "104313.386000", "104313.389000", "104313.392000", "104313.395000", "104313.398000", "104313.401000", "104313.405000", "104313.408000", "104313.416000", "104313.419000", "104313.422000", "104313.428000", "104313.431000", "104313.434000", "104313.437000", "104313.440000", "104313.443000", "104313.446000", "104313.449000", "104313.452000", "104313.455000", "104313.458000", "104333.368000", "104333.371000", "104333.374000", "104333.377000", "104333.380000", "104333.383000", "104333.386000", "104333.389000", "104333.392000", "104333.395000", "104333.398000", "104333.401000", "104333.405000", "104333.408000", "104333.411000", "104333.414000", "104333.417000", "104333.420000", "104333.423000", "104333.426000", "104333.429000", "104333.432000", "104333.435000", "104333.438000", "104333.441000", "104333.444000", "104333.447000", "104333.450000", "104353.368000", "104353.371000", "104353.374000", "104353.377000", "104353.380000", "104353.388000", "104353.391000", "104353.394000", "104353.397000", "104353.400000", "104353.403000", "104353.410000", "104353.413000", "104353.416000", "104353.419000", "104353.422000", "104353.425000", "104353.428000", "104353.431000", "104353.434000", "104353.437000", "104353.440000", "104353.443000", "104353.446000", "104353.449000", "104353.452000", "104353.455000", "104353.458000", "104353.461000", "104413.368000", "104413.371000", "104413.374000", "104413.377000", "104413.385000", "104413.388000", "104413.391000", "104413.394000", "104413.398000", "104413.401000", "104413.404000", "104413.407000", "104413.410000", "104413.413000", "104413.416000", "104413.419000", "104413.422000", "104413.425000", "104413.428000", "104413.431000", "104413.434000", "104413.437000", "104413.440000", "104413.443000", "104413.447000", "104413.450000", "104413.453000", "104413.456000", "104433.369000", "104433.372000", "104433.375000", "104433.379000", "104433.382000", "104433.385000", "104433.388000", "104433.391000", "104433.394000", "104433.397000", "104433.400000", "104433.403000", "104433.406000", "104433.422000", "104433.425000", "104433.428000", "104433.431000", "104433.434000", "104433.437000", "104433.440000", "104433.444000", "104433.447000", "104433.450000", "104433.453000", "104433.456000", "104433.459000", "104433.462000", "104453.369000", "104453.372000", "104453.375000", "104453.378000", "104453.382000", "104453.385000", "104453.410000", "104453.413000", "104453.416000", "104453.419000", "104453.422000", "104453.425000", "104453.428000", "104453.431000", "104453.434000", "104453.437000", "104453.440000", "104453.443000", "104453.446000", "104453.449000", "104513.369000", "104513.374000", "104513.394000", "104513.397000", "104513.400000", "104513.403000", "104513.406000", "104513.409000", "104513.412000", "104513.415000", "104513.418000", "104513.421000", "104513.424000", "104513.427000", "104513.430000", "104513.433000", "104513.436000", "104513.439000", "104513.442000", "104513.445000", "104533.368000", "104533.371000", "104533.376000", "104533.379000", "104533.382000", "104533.385000", "104533.388000", "104533.392000", "104533.395000", "104533.398000", "104533.401000", "104533.404000", "104533.407000", "104533.410000", "104533.413000", "104533.416000", "104533.419000", "104533.422000", "104533.425000", "104533.428000", "104553.368000", "104553.372000", "104553.375000", "104553.379000", "104553.383000", "104553.386000", "104553.389000", "104553.392000", "104553.395000", "104553.398000", "104553.401000", "104553.405000", "104553.408000", "104553.411000", "104553.414000", "104553.417000", "104553.420000", "104553.423000", "104553.426000", "104553.429000", "104613.368000", "104613.372000", "104613.375000", "104613.378000", "104613.382000", "104613.385000", "104613.388000", "104613.391000", "104613.394000", "104613.397000", "104613.400000", "104613.404000", "104613.407000", "104613.410000", "104613.413000", "104613.416000", "104613.419000", "104613.422000", "104613.425000", "104613.429000", "104633.368000", "104633.371000", "104633.374000", "104633.378000", "104633.381000", "104633.384000", "104633.387000", "104633.390000", "104633.393000", "104633.396000", "104633.399000", "104633.402000", "104633.405000", "104633.408000", "104633.411000", "104633.414000", "104633.417000", "104633.420000", "104633.423000", "104633.427000", "104641.438000", "104641.441000", "104641.444000", "104641.447000", "104641.450000", "104641.453000", "104641.457000", "104641.460000", "104641.463000"],
      "InstanceNumber": [1, 2, 3, 4, 5, 6, 7, 8, 9, 10, 11, 12, 13, 14, 15, 16, 17, 18, 19, 20, 21, 22, 23, 24, 25, 26, 27, 28, 29, 30, 31, 32, 33, 34, 35, 36, 37, 38, 39, 40, 41, 42, 43, 44, 45, 46, 47, 48, 49, 50, 51, 52, 53, 54, 55, 56, 57, 58, 59, 60, 61, 62, 63, 64, 65, 66, 67, 68, 69, 70, 71, 72, 73, 74, 75, 76, 77, 78, 79, 80, 81, 82, 83, 84, 85, 86, 87, 88, 89, 90, 91, 92, 93, 94, 95, 96, 97, 98, 99, 100, 101, 102, 103, 104, 105, 106, 107, 108, 109, 110, 111, 112, 113, 114, 115, 116, 117, 118, 119, 120, 121, 122, 123, 124, 125, 126, 127, 128, 129, 130, 131, 132, 133, 134, 135, 136, 137, 138, 139, 140, 141, 142, 143, 144, 145, 146, 147, 148, 149, 150, 151, 152, 153, 154, 155, 156, 157, 158, 159, 160, 161, 162, 163, 164, 165, 166, 167, 168, 169, 170, 171, 172, 173, 174, 175, 176, 177, 178, 179, 180, 181, 182, 183, 184, 185, 186, 187, 188, 189, 190, 191, 192, 193, 194, 195, 196, 197, 198, 199, 200, 201, 202, 203, 204, 205, 206, 207, 208, 209, 210, 211, 212, 213, 214, 215, 216, 217, 218, 219, 220, 221, 222, 223, 224, 225, 226, 227, 228, 229, 230, 231, 232, 233, 234, 235, 236, 237, 238, 239, 240, 241, 242, 243, 244, 245, 246, 247, 248, 249, 250, 251, 252, 253, 254, 255, 256, 257, 258, 259, 260, 261, 262, 263, 264, 265, 266, 267, 268, 269, 270, 271, 272, 273, 274, 275, 276, 277, 278, 279, 280, 281, 282, 283, 284, 285, 286, 287, 288, 289, 290, 291, 292, 293, 294, 295, 296, 297, 298, 299, 300],
      "LargestImagePixelValue": [40191, 41860, 38165, 42012, 39649, 39045, 41312, 39976, 39756, 40436, 40645, 40262, 40171, 40578, 40203, 40110, 39833, 41026, 40657, 40809, 40609, 40450, 41398, 40597, 41423, 40783, 40054, 40697, 40747, 40700, 41030, 40728, 40682, 40898, 40855, 41440, 40829, 41069, 41318, 41311, 41083, 41388, 41039, 41302, 41386, 41267, 41014, 41274, 40594, 39344, 39691, 40766, 39449, 39451, 39276, 39172, 40392, 39219, 40197, 39141, 39557, 40787, 39232, 40080, 39134, 40247, 39562, 39258, 40033, 38540, 39355, 39685, 39713, 39599, 38417, 39275, 38896, 38086, 38322, 37908, 39269, 38688, 38170, 38427, 38700, 40044, 38698, 39595, 39454, 39105, 40046, 39089, 39980, 39804, 39415, 40067, 40063, 40635, 39900, 40267, 40254, 40545, 39084, 39458, 39353, 38823, 39351, 40069, 38788, 40338, 39258, 38990, 39569, 40285, 41649, 41227, 40253, 40880, 41090, 39714, 39949, 39016, 39179, 40236, 38267, 38821, 38927, 40597, 40159, 40906, 39888, 42611, 37671, 40218, 41169, 39688, 37771, 36690, 41797, 42281, 42622, 41464, 42209, 40864, 38865, 38142, 38237, 38596, 39703, 40349, 37898, 37770, 37702, 37669, 37685, 38238, 38297, 37831, 37723, 37894, 38460, 37681, 38162, 38650, 39199, 37974, 38777, 37673, 38505, 38793, 38860, 38457, 39744, 40230, 39743, 39749, 39080, 39321, 39737, 39220, 39252, 39109, 39898, 40108, 39109, 39836, 40056, 39645, 40187, 39705, 40116, 40292, 38731, 40075, 39498, 40049, 38747, 38695, 38388, 38996, 38551, 38418, 38409, 38444, 38697, 38966, 38766, 38923, 38894, 38745, 38818, 38504, 38978, 39583, 39349, 38559, 38961, 39976, 39946, 39490, 39369, 39605, 39142, 39822, 39418, 39160, 39305, 39566, 38819, 38944, 39310, 40245, 39739, 37829, 37807, 39119, 40351, 39735, 38679, 41826, 41392, 41750, 41090, 39864, 40231, 39987, 40210, 41502, 41682, 41721, 41392, 38608, 38136, 38843, 39836, 39960, 40600, 41164, 41332, 39799, 39850, 39977, 39428, 39114, 39952, 39727, 40446, 39743, 39452, 40497, 41037, 40736, 39677, 39375, 40770, 40536, 38373, 39923, 40454, 40540, 40213, 41403, 41384, 41275, 41064, 40305, 42899, 39602, 37561, 37880, 37675, 39210, 39625, 38843, 38962, 38677, 38282, 38629, 39034, 39251],
      "WindowCenter": [9916.0, 9947.0, 9840.0, 9971.0, 9916.0, 9899.0, 9921.0, 9893.0, 9872.0, 9876.0, 9847.0, 9837.0, 9837.0, 9831.0, 9837.0, 9836.0, 9833.0, 9866.0, 9865.0, 9875.0, 9884.0, 9876.0, 9929.0, 9923.0, 9945.0, 9924.0, 9918.0, 9933.0, 9931.0, 9941.0, 9950.0, 9949.0, 9950.0, 9954.0, 9972.0, 9986.0, 9972.0, 9980.0, 9983.0, 9973.0, 9962.0, 9957.0, 9959.0, 9967.0, 9965.0, 9959.0, 9942.0, 9924.0, 9917.0, 9883.0, 9895.0, 9905.0, 9897.0, 9905.0, 9897.0, 9892.0, 9909.0, 9897.0, 9910.0, 9900.0, 9923.0, 9950.0, 9934.0, 9946.0, 9921.0, 9938.0, 9922.0, 9926.0, 9933.0, 9918.0, 9935.0, 9933.0, 9933.0, 9936.0, 9925.0, 9937.0, 9921.0, 9905.0, 9907.0, 9895.0, 9921.0, 9922.0, 9911.0, 9915.0, 9914.0, 9931.0, 9906.0, 9925.0, 9910.0, 9904.0, 9921.0, 9892.0, 9914.0, 9897.0, 9900.0, 9912.0, 9909.0, 9909.0, 9892.0, 9901.0, 9907.0, 9906.0, 9893.0, 9899.0, 9906.0, 9898.0, 9907.0, 9904.0, 9882.0, 9903.0, 9892.0, 9901.0, 9917.0, 9928.0, 9947.0, 9938.0, 9937.0, 9945.0, 9925.0, 9926.0, 9923.0, 9910.0, 9920.0, 9930.0, 9916.0, 9916.0, 9912.0, 9937.0, 9925.0, 9877.0, 9884.0, 9746.0, 9901.0, 9881.0, 9998.0, 9932.0, 9861.0, 9752.0, 9848.0, 9715.0, 9742.0, 9799.0, 9789.0, 9764.0, 9701.0, 9777.0, 9793.0, 9811.0, 9842.0, 9832.0, 9807.0, 9797.0, 9800.0, 9810.0, 9809.0, 9824.0, 9837.0, 9842.0, 9859.0, 9875.0, 9887.0, 9881.0, 9894.0, 9908.0, 9914.0, 9893.0, 9904.0, 9892.0, 9898.0, 9907.0, 9907.0, 9923.0, 9953.0, 9967.0, 9962.0, 9968.0, 9956.0, 9948.0, 9947.0, 9948.0, 9954.0, 9952.0, 9971.0, 9965.0, 9945.0, 9944.0, 9936.0, 9930.0, 9935.0, 9920.0, 9927.0, 9923.0, 9908.0, 9923.0, 9904.0, 9910.0, 9906.0, 9900.0, 9908.0, 9914.0, 9927.0, 9942.0, 9930.0, 9934.0, 9923.0, 9923.0, 9909.0, 9914.0, 9927.0, 9921.0, 9923.0, 9926.0, 9930.0, 9936.0, 9927.0, 9910.0, 9923.0, 9936.0, 9942.0, 9930.0, 9924.0, 9922.0, 9899.0, 9903.0, 9895.0, 9892.0, 9913.0, 9918.0, 9899.0, 9926.0, 9919.0, 9933.0, 9891.0, 9855.0, 9879.0, 9923.0, 9922.0, 9919.0, 9893.0, 9934.0, 9929.0, 9910.0, 9887.0, 9875.0, 9889.0, 9894.0, 9894.0, 9916.0, 9925.0, 9928.0, 9904.0, 9877.0, 9885.0, 9910.0, 9926.0, 9938.0, 9951.0, 9965.0, 9940.0, 9927.0, 9923.0, 9933.0, 9928.0, 9914.0, 9921.0, 9928.0, 9939.0, 9922.0, 9915.0, 9945.0, 9964.0, 9946.0, 9926.0, 9926.0, 9988.0, 9970.0, 9941.0, 9975.0, 9983.0, 9957.0, 9940.0, 9955.0, 9943.0, 9932.0, 9928.0, 9739.0, 9859.0, 9975.0, 9848.0, 9853.0, 9843.0, 9898.0, 9886.0, 9874.0, 9880.0, 9875.0, 9884.0, 9900.0, 9911.0, 9923.0],
