{
  "AcquisitionMatrixPE": 104,
  "AcquisitionNumber": 1,
  "AcquisitionTime": "10:35:29.402500",
  "BandwidthPerPixelPhaseEncode": 16.297,
  "BaseResolution": 104,
  "BodyPartExamined": "BRAIN",
  "ConsistencyInfo": "N4_VE11C_LATEST_20160120",
  "ConversionSoftware": "dcm2niix",
  "ConversionSoftwareVersion": "v1.0.20210317",
  "DerivedVendorReportedEchoSpacing": 0.000590009,
  "DeviceSerialNumber": "166018",
  "DwellTime": 2.1e-06,
  "EchoTime": 0.0376,
  "EchoTrainLength": 104,
  "EffectiveEchoSpacing": 0.000590009,
  "FlipAngle": 68,
  "ImageComments": "Unaliased MB6/PE3/LB",
  "ImageOrientationPatientDICOM": [0.997949, -0.00505564, 0.0638133, 0.0174193, 0.980705, -0.194715],
  "ImageType": [
    "ORIGINAL",
    "PRIMARY",
    "M",
    "MB",
    "ND",
    "MOSAIC"
],
  "ImagingFrequency": 123.197,
  "InPlanePhaseEncodingDirectionDICOM": "COL",
  "InstitutionAddress": "Washington Place 6,NYC,NYC,US,10003",
  "InstitutionName": "NYU - CBI",
  "InstitutionalDepartmentName": "Department",
  "MRAcquisitionType": "2D",
  "MagneticFieldStrength": 3,
  "Manufacturer": "Siemens",
  "ManufacturersModelName": "Prisma",
  "Modality": "MR",
  "MultibandAccelerationFactor": 6,
  "PartialFourier": 1,
  "PatientPosition": "HFS",
  "PercentPhaseFOV": 100,
  "PercentSampling": 100,
  "PhaseEncodingDirection": "j",
  "PhaseEncodingSteps": 104,
  "PhaseResolution": 1,
  "PixelBandwidth": 2290,
  "ProcedureStepDescription": "Investigators^Winawer",
  "ProtocolName": "cmrr_mbepi_s6_2mm_66sl_PA_task-wedgering1",
  "PulseSequenceDetails": "%CustomerSeq%\\cmrr_mbep2d_bold",
  "ReceiveCoilActiveElements": "HC1-7",
  "ReceiveCoilName": "HeadNeck_64",
  "ReconMatrixPE": 104,
  "RepetitionTime": 1,
  "SAR": 0.0880743,
  "ScanOptions": "FS",
  "ScanningSequence": "EP",
  "SequenceName": "epfid2d1_104",
  "SequenceVariant": "SK\\SS",
  "SeriesDescription": "cmrr_mbepi_s6_2mm_66sl_PA_task-wedgering1",
  "SeriesNumber": 10,
  "ShimSetting": [304, -12636, -8410, 315, -7, -58, -33, 32],
  "SliceThickness": 2,
  "SliceTiming": [0, 0.535, 0.09, 0.625, 0.18, 0.7125, 0.2675, 0.8025, 0.3575, 0.8925, 0.445, 0, 0.535, 0.09, 0.625, 0.18, 0.7125, 0.2675, 0.8025, 0.3575, 0.8925, 0.445, 0, 0.535, 0.09, 0.625, 0.18, 0.7125, 0.2675, 0.8025, 0.3575, 0.8925, 0.445, 0, 0.535, 0.09, 0.625, 0.18, 0.7125, 0.2675, 0.8025, 0.3575, 0.8925, 0.445, 0, 0.535, 0.09, 0.625, 0.18, 0.7125, 0.2675, 0.8025, 0.3575, 0.8925, 0.445, 0, 0.535, 0.09, 0.625, 0.18, 0.7125, 0.2675, 0.8025, 0.3575, 0.8925, 0.445],
  "SoftwareVersions": "syngo MR E11",
  "SpacingBetweenSlices": 2,
  "StationName": "AWP166018",
  "TaskName": "wedgering1",
  "TotalReadoutTime": 0.060771,
  "TxRefAmp": 251.812,
  "VendorReportedEchoSpacing": 0.00059,
  "WipMemBlock": "04510064-351d-47cb-a835-12687a8f2b5b||Sequence: R016 ve11c/master r/8780670; Nov 27 2017 15:05:12 by eja",
  "dcmmeta_affine": [
    [-1.9958981275558472, 0.03483850136399269, 0.12319528311491013, 104.44586944580078],
    [0.010111279785633087, 1.9614101648330688, -0.3908551037311554, -62.15074920654297],
    [0.12762664258480072, 0.3894306421279907, 1.9575635194778442, -63.91557693481445],
    [0.0, 0.0, 0.0, 1.0]
],
  "dcmmeta_reorient_transform": [
    [0.0, -1.0, 0.0, 103.0],
    [1.0, 0.0, 0.0, 0.0],
    [0.0, 0.0, 1.0, 0.0],
    [0.0, 0.0, 0.0, 1.0]
],
  "dcmmeta_shape": [104, 104, 66, 300],
  "dcmmeta_slice_dim": 2,
  "dcmmeta_version": 0.6,
  "global": {
    "const": {
      "AccessionNumber": "KKBJMBMG",
      "AcquisitionMatrix": [104, 0, 0, 104],
      "AngioFlag": "N",
      "BitsAllocated": 16,
      "BitsStored": 16,
      "BodyPartExamined": "BRAIN",
      "Columns": 936,
      "EchoNumbers": 1,
      "EchoTime": 37.6,
      "EchoTrainLength": 104,
      "FlipAngle": 68.0,
      "HighBit": 15,
      "ImageOrientationPatient": [0.9979490468439, -0.0050556399145, 0.06381332469329, 0.01741925015011, 0.98070510978771, -0.1947153238975],
      "ImagePositionPatient": [-952.82065719214, -951.61486333501, 85.106241469942],
      "ImageType": [
        "ORIGINAL",
        "PRIMARY",
        "M",
        "MB",
        "ND",
        "MOSAIC"
],
      "ImagedNucleus": "1H",
      "ImagingFrequency": 123.196708,
      "InPlanePhaseEncodingDirection": "COL",
      "MRAcquisitionType": "2D",
      "MagneticFieldStrength": 3.0,
      "Manufacturer": "SIEMENS",
      "ManufacturerModelName": "Prisma",
      "Modality": "MR",
      "NumberOfAverages": 1.0,
      "NumberOfPhaseEncodingSteps": 104,
      "PercentPhaseFieldOfView": 100.0,
      "PercentSampling": 100.0,
      "PerformedProcedureStepStartTime": "102354.330000",
      "PhotometricInterpretation": "MONOCHROME2",
      "PixelBandwidth": 2290.0,
      "PixelRepresentation": 0,
      "PixelSpacing": [2.0, 2.0],
      "ProtocolName": "cmrr_mbepi_s6_2mm_66sl_PA_task-wedgering1",
      "RepetitionTime": 1000.0,
      "Rows": 936,
      "SAR": 0.08807427698203,
      "SamplesPerPixel": 1,
      "ScanOptions": "FS",
      "ScanningSequence": "EP",
      "SequenceName": "epfid2d1_104",
      "SequenceVariant": [
        "SK",
        "SS"
],
      "SeriesDescription": "cmrr_mbepi_s6_2mm_66sl_PA_task-wedgering1",
      "SeriesNumber": 10,
      "SeriesTime": "103653.327000",
      "SliceLocation": -43.979816825143,
      "SliceThickness": 2.0,
      "SmallestImagePixelValue": 0,
      "SoftwareVersions": "syngo MR E11",
      "SpacingBetweenSlices": 1.999999956685,
      "SpecificCharacterSet": "ISO_IR 100",
      "StudyID": "1",
      "StudyTime": "102354.263000",
      "TransmitCoilName": "Body",
      "VariableFlipAngleFlag": "N",
      "WindowCenterWidthExplanation": "Algo1",
      "dBdt": 0.0},
    "slices": {}
  },
  "time": {
    "samples": {
      "AcquisitionNumber": [1, 2, 3, 4, 5, 6, 7, 8, 9, 10, 11, 12, 13, 14, 15, 16, 17, 18, 19, 20, 21, 22, 23, 24, 25, 26, 27, 28, 29, 30, 31, 32, 33, 34, 35, 36, 37, 38, 39, 40, 41, 42, 43, 44, 45, 46, 47, 48, 49, 50, 51, 52, 53, 54, 55, 56, 57, 58, 59, 60, 61, 62, 63, 64, 65, 66, 67, 68, 69, 70, 71, 72, 73, 74, 75, 76, 77, 78, 79, 80, 81, 82, 83, 84, 85, 86, 87, 88, 89, 90, 91, 92, 93, 94, 95, 96, 97, 98, 99, 100, 101, 102, 103, 104, 105, 106, 107, 108, 109, 110, 111, 112, 113, 114, 115, 116, 117, 118, 119, 120, 121, 122, 123, 124, 125, 126, 127, 128, 129, 130, 131, 132, 133, 134, 135, 136, 137, 138, 139, 140, 141, 142, 143, 144, 145, 146, 147, 148, 149, 150, 151, 152, 153, 154, 155, 156, 157, 158, 159, 160, 161, 162, 163, 164, 165, 166, 167, 168, 169, 170, 171, 172, 173, 174, 175, 176, 177, 178, 179, 180, 181, 182, 183, 184, 185, 186, 187, 188, 189, 190, 191, 192, 193, 194, 195, 196, 197, 198, 199, 200, 201, 202, 203, 204, 205, 206, 207, 208, 209, 210, 211, 212, 213, 214, 215, 216, 217, 218, 219, 220, 221, 222, 223, 224, 225, 226, 227, 228, 229, 230, 231, 232, 233, 234, 235, 236, 237, 238, 239, 240, 241, 242, 243, 244, 245, 246, 247, 248, 249, 250, 251, 252, 253, 254, 255, 256, 257, 258, 259, 260, 261, 262, 263, 264, 265, 266, 267, 268, 269, 270, 271, 272, 273, 274, 275, 276, 277, 278, 279, 280, 281, 282, 283, 284, 285, 286, 287, 288, 289, 290, 291, 292, 293, 294, 295, 296, 297, 298, 299, 300],
      "AcquisitionTime": ["103529.402500", "103530.402500", "103531.402500", "103532.402500", "103533.402500", "103534.402500", "103535.402500", "103536.402500", "103537.402500", "103538.402500", "103539.402500", "103540.402500", "103541.402500", "103542.402500", "103543.402500", "103544.402500", "103545.402500", "103546.402500", "103547.402500", "103548.402500", "103549.402500", "103550.402500", "103551.402500", "103552.402500", "103553.402500", "103554.402500", "103555.402500", "103556.402500", "103557.402500", "103558.402500", "103559.402500", "103600.402500", "103601.402500", "103602.402500", "103603.402500", "103604.402500", "103605.402500", "103606.402500", "103607.402500", "103608.402500", "103609.402500", "103610.402500", "103611.402500", "103612.402500", "103613.402500", "103614.402500", "103615.402500", "103616.402500", "103617.402500", "103618.402500", "103619.402500", "103620.402500", "103621.402500", "103622.402500", "103623.402500", "103624.402500", "103625.402500", "103626.402500", "103627.402500", "103628.402500", "103629.402500", "103630.402500", "103631.402500", "103632.402500", "103633.402500", "103634.402500", "103635.402500", "103636.402500", "103637.402500", "103638.402500", "103639.402500", "103640.402500", "103641.402500", "103642.402500", "103643.402500", "103644.402500", "103645.402500", "103646.402500", "103647.402500", "103648.402500", "103649.402500", "103650.402500", "103651.402500", "103652.402500", "103653.402500", "103654.402500", "103655.402500", "103656.402500", "103657.402500", "103658.402500", "103659.402500", "103700.402500", "103701.402500", "103702.402500", "103703.402500", "103704.402500", "103705.402500", "103706.402500", "103707.402500", "103708.402500", "103709.402500", "103710.402500", "103711.402500", "103712.402500", "103713.402500", "103714.402500", "103715.402500", "103716.402500", "103717.402500", "103718.402500", "103719.402500", "103720.402500", "103721.402500", "103722.402500", "103723.402500", "103724.402500", "103725.402500", "103726.402500", "103727.402500", "103728.402500", "103729.402500", "103730.402500", "103731.402500", "103732.402500", "103733.402500", "103734.402500", "103735.402500", "103736.402500", "103737.402500", "103738.402500", "103739.402500", "103740.402500", "103741.402500", "103742.402500", "103743.402500", "103744.402500", "103745.402500", "103746.402500", "103747.402500", "103748.402500", "103749.402500", "103750.402500", "103751.402500", "103752.402500", "103753.402500", "103754.402500", "103755.402500", "103756.402500", "103757.402500", "103758.402500", "103759.402500", "103800.402500", "103801.402500", "103802.402500", "103803.402500", "103804.402500", "103805.402500", "103806.402500", "103807.402500", "103808.402500", "103809.402500", "103810.402500", "103811.402500", "103812.402500", "103813.402500", "103814.402500", "103815.402500", "103816.402500", "103817.402500", "103818.402500", "103819.402500", "103820.402500", "103821.402500", "103822.402500", "103823.402500", "103824.402500", "103825.402500", "103826.402500", "103827.402500", "103828.402500", "103829.402500", "103830.402500", "103831.402500", "103832.402500", "103833.402500", "103834.402500", "103835.402500", "103836.402500", "103837.402500", "103838.402500", "103839.402500", "103840.402500", "103841.402500", "103842.402500", "103843.402500", "103844.402500", "103845.402500", "103846.402500", "103847.402500", "103848.402500", "103849.402500", "103850.402500", "103851.402500", "103852.402500", "103853.402500", "103854.402500", "103855.402500", "103856.402500", "103857.402500", "103858.402500", "103859.402500", "103900.402500", "103901.402500", "103902.402500", "103903.402500", "103904.402500", "103905.402500", "103906.402500", "103907.402500", "103908.402500", "103909.402500", "103910.402500", "103911.402500", "103912.402500", "103913.402500", "103914.402500", "103915.402500", "103916.402500", "103917.402500", "103918.402500", "103919.402500", "103920.402500", "103921.402500", "103922.402500", "103923.402500", "103924.402500", "103925.402500", "103926.402500", "103927.402500", "103928.402500", "103929.402500", "103930.402500", "103931.402500", "103932.402500", "103933.402500", "103934.402500", "103935.402500", "103936.402500", "103937.402500", "103938.402500", "103939.402500", "103940.402500", "103941.402500", "103942.402500", "103943.402500", "103944.402500", "103945.402500", "103946.402500", "103947.402500", "103948.402500", "103949.402500", "103950.402500", "103951.402500", "103952.402500", "103953.402500", "103954.402500", "103955.402500", "103956.402500", "103957.402500", "103958.402500", "103959.402500", "104000.402500", "104001.402500", "104002.402500", "104003.402500", "104004.402500", "104005.402500", "104006.402500", "104007.402500", "104008.402500", "104009.402500", "104010.402500", "104011.402500", "104012.402500", "104013.402500", "104014.402500", "104015.402500", "104016.402500", "104017.402500", "104018.402500", "104019.402500", "104020.402500", "104021.402500", "104022.402500", "104023.402500", "104024.402500", "104025.402500", "104026.402500", "104027.402500", "104028.402500"],
      "ContentTime": ["103653.330000", "103653.346000", "103653.349000", "103653.352000", "103653.355000", "103653.358000", "103653.361000", "103653.364000", "103653.367000", "103653.370000", "103653.373000", "103653.376000", "103653.379000", "103653.382000", "103653.385000", "103653.388000", "103653.391000", "103653.395000", "103653.398000", "103653.401000", "103653.404000", "103653.407000", "103653.410000", "103653.413000", "103653.416000", "103653.419000", "103653.422000", "103653.425000", "103653.428000", "103653.431000", "103653.434000", "103653.437000", "103653.440000", "103653.443000", "103653.446000", "103653.450000", "103653.453000", "103653.456000", "103653.459000", "103653.462000", "103653.465000", "103653.468000", "103653.471000", "103653.474000", "103653.477000", "103653.480000", "103713.296000", "103713.300000", "103713.303000", "103713.306000", "103713.309000", "103713.312000", "103713.315000", "103713.318000", "103713.321000", "103713.324000", "103713.327000", "103713.330000", "103713.333000", "103713.336000", "103713.339000", "103713.342000", "103713.345000", "103713.348000", "103713.351000", "103713.354000", "103713.357000", "103713.360000", "103713.363000", "103713.366000", "103713.369000", "103713.372000", "103713.376000", "103713.379000", "103733.297000", "103733.300000", "103733.303000", "103733.306000", "103733.324000", "103733.327000", "103733.330000", "103733.333000", "103733.347000", "103733.350000", "103733.353000", "103733.356000", "103733.359000", "103733.362000", "103733.365000", "103733.368000", "103733.371000", "103733.374000", "103733.377000", "103733.380000", "103733.387000", "103733.390000", "103733.393000", "103733.396000", "103733.399000", "103733.402000", "103733.405000", "103733.408000", "103753.297000", "103753.300000", "103753.303000", "103753.306000", "103753.309000", "103753.312000", "103753.315000", "103753.318000", "103753.321000", "103753.324000", "103753.328000", "103753.331000", "103753.334000", "103753.337000", "103753.348000", "103753.351000", "103753.354000", "103753.357000", "103753.378000", "103753.381000", "103753.384000", "103753.387000", "103753.390000", "103753.393000", "103753.396000", "103753.399000", "103753.402000", "103753.405000", "103753.408000", "103813.297000", "103813.300000", "103813.303000", "103813.306000", "103813.309000", "103813.312000", "103813.315000", "103813.318000", "103813.321000", "103813.324000", "103813.327000", "103813.330000", "103813.334000", "103813.337000", "103813.340000", "103813.343000", "103813.346000", "103813.349000", "103813.352000", "103813.355000", "103813.358000", "103813.361000", "103813.364000", "103813.367000", "103813.370000", "103813.374000", "103813.377000", "103813.380000", "103813.383000", "103833.296000", "103833.299000", "103833.302000", "103833.305000", "103833.308000", "103833.311000", "103833.314000", "103833.317000", "103833.321000", "103833.324000", "103833.327000", "103833.330000", "103833.333000", "103833.336000", "103833.339000", "103833.342000", "103833.345000", "103833.348000", "103833.351000", "103833.354000", "103833.357000", "103833.360000", "103853.296000", "103853.299000", "103853.302000", "103853.305000", "103853.308000", "103853.311000", "103853.314000", "103853.317000", "103853.321000", "103853.324000", "103853.327000", "103853.330000", "103853.333000", "103853.336000", "103853.339000", "103853.342000", "103853.345000", "103853.348000", "103853.351000", "103853.354000", "103913.296000", "103913.299000", "103913.302000", "103913.305000", "103913.308000", "103913.312000", "103913.314000", "103913.317000", "103913.320000", "103913.323000", "103913.326000", "103913.330000", "103913.333000", "103913.345000", "103913.348000", "103913.351000", "103913.354000", "103913.357000", "103913.360000", "103913.364000", "103933.296000", "103933.299000", "103933.302000", "103933.305000", "103933.308000", "103933.311000", "103933.314000", "103933.318000", "103933.321000", "103933.324000", "103933.327000", "103933.330000", "103933.333000", "103933.336000", "103933.339000", "103933.342000", "103933.345000", "103933.349000", "103933.352000", "103933.355000", "103953.297000", "103953.300000", "103953.303000", "103953.306000", "103953.309000", "103953.320000", "103953.323000", "103953.326000", "103953.330000", "103953.337000", "103953.341000", "103953.344000", "103953.347000", "103953.350000", "103953.353000", "103953.356000", "103953.360000", "103953.363000", "103953.366000", "103953.369000", "104013.297000", "104013.300000", "104013.303000", "104013.307000", "104013.310000", "104013.313000", "104013.316000", "104013.319000", "104013.322000", "104013.325000", "104013.328000", "104013.331000", "104013.335000", "104013.338000", "104013.342000", "104013.345000", "104013.349000", "104013.352000", "104013.355000", "104013.358000", "104030.402000", "104030.405000", "104030.408000", "104030.411000", "104030.414000", "104030.417000", "104030.420000", "104030.423000", "104030.444000", "104030.447000", "104030.450000", "104030.453000", "104030.456000", "104030.459000", "104030.463000", "104030.466000", "104030.469000", "104030.472000"],
      "InstanceCreationTime": ["103653.330000", "103653.346000", "103653.349000", "103653.352000", "103653.355000", "103653.358000", "103653.361000", "103653.364000", "103653.367000", "103653.370000", "103653.373000", "103653.376000", "103653.379000", "103653.382000", "103653.385000", "103653.388000", "103653.391000", "103653.395000", "103653.398000", "103653.401000", "103653.404000", "103653.407000", "103653.410000", "103653.413000", "103653.416000", "103653.419000", "103653.422000", "103653.425000", "103653.428000", "103653.431000", "103653.434000", "103653.437000", "103653.440000", "103653.443000", "103653.446000", "103653.450000", "103653.453000", "103653.456000", "103653.459000", "103653.462000", "103653.465000", "103653.468000", "103653.471000", "103653.474000", "103653.477000", "103653.480000", "103713.296000", "103713.300000", "103713.303000", "103713.306000", "103713.309000", "103713.312000", "103713.315000", "103713.318000", "103713.321000", "103713.324000", "103713.327000", "103713.330000", "103713.333000", "103713.336000", "103713.339000", "103713.342000", "103713.345000", "103713.348000", "103713.351000", "103713.354000", "103713.357000", "103713.360000", "103713.363000", "103713.366000", "103713.369000", "103713.372000", "103713.376000", "103713.379000", "103733.297000", "103733.300000", "103733.303000", "103733.306000", "103733.324000", "103733.327000", "103733.330000", "103733.333000", "103733.347000", "103733.350000", "103733.353000", "103733.356000", "103733.359000", "103733.362000", "103733.365000", "103733.368000", "103733.371000", "103733.374000", "103733.377000", "103733.380000", "103733.387000", "103733.390000", "103733.393000", "103733.396000", "103733.399000", "103733.402000", "103733.405000", "103733.408000", "103753.297000", "103753.300000", "103753.303000", "103753.306000", "103753.309000", "103753.312000", "103753.315000", "103753.318000", "103753.321000", "103753.324000", "103753.328000", "103753.331000", "103753.334000", "103753.337000", "103753.348000", "103753.351000", "103753.354000", "103753.357000", "103753.378000", "103753.381000", "103753.384000", "103753.387000", "103753.390000", "103753.393000", "103753.396000", "103753.399000", "103753.402000", "103753.405000", "103753.408000", "103813.297000", "103813.300000", "103813.303000", "103813.306000", "103813.309000", "103813.312000", "103813.315000", "103813.318000", "103813.321000", "103813.324000", "103813.327000", "103813.330000", "103813.334000", "103813.337000", "103813.340000", "103813.343000", "103813.346000", "103813.349000", "103813.352000", "103813.355000", "103813.358000", "103813.361000", "103813.364000", "103813.367000", "103813.370000", "103813.374000", "103813.377000", "103813.380000", "103813.383000", "103833.296000", "103833.299000", "103833.302000", "103833.305000", "103833.308000", "103833.311000", "103833.314000", "103833.317000", "103833.321000", "103833.324000", "103833.327000", "103833.330000", "103833.333000", "103833.336000", "103833.339000", "103833.342000", "103833.345000", "103833.348000", "103833.351000", "103833.354000", "103833.357000", "103833.360000", "103853.296000", "103853.299000", "103853.302000", "103853.305000", "103853.308000", "103853.311000", "103853.314000", "103853.317000", "103853.321000", "103853.324000", "103853.327000", "103853.330000", "103853.333000", "103853.336000", "103853.339000", "103853.342000", "103853.345000", "103853.348000", "103853.351000", "103853.354000", "103913.296000", "103913.299000", "103913.302000", "103913.305000", "103913.308000", "103913.312000", "103913.314000", "103913.317000", "103913.320000", "103913.323000", "103913.326000", "103913.330000", "103913.333000", "103913.345000", "103913.348000", "103913.351000", "103913.354000", "103913.357000", "103913.360000", "103913.364000", "103933.296000", "103933.299000", "103933.302000", "103933.305000", "103933.308000", "103933.311000", "103933.314000", "103933.318000", "103933.321000", "103933.324000", "103933.327000", "103933.330000", "103933.333000", "103933.336000", "103933.339000", "103933.342000", "103933.345000", "103933.349000", "103933.352000", "103933.355000", "103953.297000", "103953.300000", "103953.303000", "103953.306000", "103953.309000", "103953.320000", "103953.323000", "103953.326000", "103953.330000", "103953.337000", "103953.341000", "103953.344000", "103953.347000", "103953.350000", "103953.353000", "103953.356000", "103953.360000", "103953.363000", "103953.366000", "103953.369000", "104013.297000", "104013.300000", "104013.303000", "104013.307000", "104013.310000", "104013.313000", "104013.316000", "104013.319000", "104013.322000", "104013.325000", "104013.328000", "104013.331000", "104013.335000", "104013.338000", "104013.342000", "104013.345000", "104013.349000", "104013.352000", "104013.355000", "104013.358000", "104030.402000", "104030.405000", "104030.408000", "104030.411000", "104030.414000", "104030.417000", "104030.420000", "104030.423000", "104030.444000", "104030.447000", "104030.450000", "104030.453000", "104030.456000", "104030.459000", "104030.463000", "104030.466000", "104030.469000", "104030.472000"],
      "InstanceNumber": [1, 2, 3, 4, 5, 6, 7, 8, 9, 10, 11, 12, 13, 14, 15, 16, 17, 18, 19, 20, 21, 22, 23, 24, 25, 26, 27, 28, 29, 30, 31, 32, 33, 34, 35, 36, 37, 38, 39, 40, 41, 42, 43, 44, 45, 46, 47, 48, 49, 50, 51, 52, 53, 54, 55, 56, 57, 58, 59, 60, 61, 62, 63, 64, 65, 66, 67, 68, 69, 70, 71, 72, 73, 74, 75, 76, 77, 78, 79, 80, 81, 82, 83, 84, 85, 86, 87, 88, 89, 90, 91, 92, 93, 94, 95, 96, 97, 98, 99, 100, 101, 102, 103, 104, 105, 106, 107, 108, 109, 110, 111, 112, 113, 114, 115, 116, 117, 118, 119, 120, 121, 122, 123, 124, 125, 126, 127, 128, 129, 130, 131, 132, 133, 134, 135, 136, 137, 138, 139, 140, 141, 142, 143, 144, 145, 146, 147, 148, 149, 150, 151, 152, 153, 154, 155, 156, 157, 158, 159, 160, 161, 162, 163, 164, 165, 166, 167, 168, 169, 170, 171, 172, 173, 174, 175, 176, 177, 178, 179, 180, 181, 182, 183, 184, 185, 186, 187, 188, 189, 190, 191, 192, 193, 194, 195, 196, 197, 198, 199, 200, 201, 202, 203, 204, 205, 206, 207, 208, 209, 210, 211, 212, 213, 214, 215, 216, 217, 218, 219, 220, 221, 222, 223, 224, 225, 226, 227, 228, 229, 230, 231, 232, 233, 234, 235, 236, 237, 238, 239, 240, 241, 242, 243, 244, 245, 246, 247, 248, 249, 250, 251, 252, 253, 254, 255, 256, 257, 258, 259, 260, 261, 262, 263, 264, 265, 266, 267, 268, 269, 270, 271, 272, 273, 274, 275, 276, 277, 278, 279, 280, 281, 282, 283, 284, 285, 286, 287, 288, 289, 290, 291, 292, 293, 294, 295, 296, 297, 298, 299, 300],
      "LargestImagePixelValue": [44174, 43316, 42587, 42590, 41906, 41695, 42200, 41947, 42726, 42315, 41810, 41627, 41875, 41769, 42044, 42414, 42481, 42084, 42786, 42341, 42288, 42643, 42016, 42480, 42551, 42155, 42182, 42021, 42292, 42703, 42256, 42415, 42315, 42606, 42538, 42322, 42525, 42546, 42331, 42051, 42295, 42483, 42461, 41953, 42262, 42469, 42551, 42458, 42268, 42315, 42612, 42119, 42024, 42362, 42354, 42386, 42331, 41739, 42402, 41756, 41982, 42154, 41544, 42233, 41915, 41816, 41141, 41761, 42102, 41764, 41784, 41204, 41575, 42120, 41890, 41541, 41969, 41168, 42426, 42037, 42187, 42200, 41689, 42224, 41222, 41374, 41882, 41246, 41594, 42013, 41193, 41329, 40876, 41014, 41273, 41174, 41083, 40951, 41287, 41323, 41745, 41451, 41630, 41420, 41212, 41339, 40931, 41125, 41030, 41365, 41286, 40589, 40935, 41719, 40933, 41016, 41292, 40433, 41253, 41673, 41192, 40927, 41018, 41628, 41232, 41325, 41388, 40641, 41155, 41224, 40731, 41126, 40659, 40596, 40897, 41144, 41472, 40920, 41695, 41527, 41667, 41388, 40840, 41205, 40655, 41080, 40994, 40713, 41091, 41319, 40415, 41220, 41663, 40693, 40997, 40051, 41772, 41171, 40651, 42944, 40947, 39869, 39698, 39923, 39739, 40414, 40679, 40127, 40347, 40395, 39994, 40604, 40233, 40114, 39980, 40708, 40728, 40608, 41259, 40554, 40426, 40387, 40572, 40990, 40471, 40675, 40708, 40243, 40798, 40340, 39799, 40404, 40341, 40444, 40055, 40709, 40567, 40295, 40161, 40551, 40033, 40485, 40917, 40256, 40534, 40387, 40768, 40715, 40124, 40788, 40550, 40242, 40541, 40104, 40414, 40045, 40592, 40785, 39651, 40782, 39874, 40333, 40718, 40040, 40684, 40553, 40507, 40647, 39817, 40673, 40518, 40103, 40807, 40517, 40638, 40440, 40095, 40333, 40137, 40410, 40367, 39816, 40571, 40728, 40110, 40968, 40197, 40334, 40348, 40203, 40934, 40432, 39904, 40908, 40417, 40193, 40734, 39895, 40879, 40723, 40182, 40811, 40020, 40956, 40288, 40413, 40482, 40269, 40982, 40660, 40320, 40447, 40625, 40209, 40534, 41358, 42202, 39474, 42083, 40478, 39955, 42857, 38964, 41603, 40661, 38606, 38925, 38727, 38263, 38779, 38670, 39493, 38520, 39037, 38730, 38838, 39273, 38565, 38523, 38938],
      "WindowCenter": [10078.0, 10031.0, 10014.0, 10010.0, 9997.0, 10012.0, 10011.0, 9997.0, 10013.0, 9993.0, 9994.0, 9986.0, 9983.0, 9992.0, 9991.0, 10006.0, 10004.0, 9991.0, 9997.0, 9989.0, 9991.0, 10004.0, 10000.0, 10014.0, 10006.0, 10002.0, 10014.0, 10000.0, 10007.0, 10012.0, 10016.0, 10025.0, 10018.0, 10032.0, 10032.0, 10034.0, 10042.0, 10039.0, 10035.0, 10036.0, 10036.0, 10043.0, 10041.0, 10037.0, 10038.0, 10041.0, 10036.0, 10026.0, 10019.0, 10018.0, 10012.0, 10001.0, 10002.0, 10009.0, 10020.0, 10012.0, 10017.0, 10011.0, 10024.0, 10022.0, 10022.0, 10035.0, 10024.0, 10027.0, 10013.0, 10004.0, 9999.0, 9995.0, 10001.0, 10010.0, 10008.0, 10006.0, 10011.0, 10011.0, 10010.0, 9997.0, 10004.0, 10012.0, 10025.0, 10029.0, 10036.0, 10038.0, 10039.0, 10047.0, 10043.0, 10029.0, 10031.0, 10020.0, 10015.0, 10015.0, 10023.0, 10015.0, 10020.0, 10019.0, 10020.0, 10033.0, 10029.0, 10036.0, 10034.0, 10034.0, 10040.0, 10032.0, 10039.0, 10043.0, 10058.0, 10051.0, 10037.0, 10034.0, 10013.0, 10008.0, 10009.0, 10004.0, 10019.0, 10039.0, 10041.0, 10037.0, 10049.0, 10047.0, 10052.0, 10057.0, 10044.0, 10030.0, 10022.0, 10026.0, 10021.0, 10019.0, 10020.0, 10016.0, 10018.0, 10020.0, 10023.0, 10025.0, 10022.0, 10022.0, 10024.0, 10045.0, 10051.0, 10055.0, 10053.0, 10050.0, 10044.0, 10044.0, 10038.0, 10043.0, 10034.0, 10032.0, 10031.0, 10035.0, 10039.0, 10040.0, 10038.0, 10055.0, 10051.0, 10014.0, 10075.0, 10057.0, 10063.0, 9983.0, 10000.0, 10025.0, 10025.0, 9979.0, 9978.0, 9966.0, 9968.0, 9966.0, 9948.0, 9932.0, 9939.0, 9943.0, 9959.0, 9979.0, 9992.0, 10003.0, 10015.0, 10036.0, 10052.0, 10070.0, 10095.0, 10097.0, 10098.0, 10095.0, 10100.0, 10106.0, 10105.0, 10117.0, 10132.0, 10136.0, 10132.0, 10114.0, 10096.0, 10094.0, 10091.0, 10089.0, 10084.0, 10094.0, 10098.0, 10099.0, 10099.0, 10100.0, 10095.0, 10104.0, 10113.0, 10109.0, 10115.0, 10109.0, 10107.0, 10107.0, 10094.0, 10105.0, 10107.0, 10107.0, 10108.0, 10102.0, 10101.0, 10098.0, 10101.0, 10103.0, 10090.0, 10100.0, 10097.0, 10100.0, 10106.0, 10094.0, 10098.0, 10099.0, 10090.0, 10091.0, 10081.0, 10098.0, 10102.0, 10096.0, 10107.0, 10105.0, 10093.0, 10085.0, 10077.0, 10083.0, 10083.0, 10091.0, 10093.0, 10084.0, 10097.0, 10099.0, 10094.0, 10105.0, 10095.0, 10084.0, 10078.0, 10083.0, 10095.0, 10103.0, 10105.0, 10110.0, 10097.0, 10087.0, 10091.0, 10077.0, 10097.0, 10102.0, 10104.0, 10116.0, 10098.0, 10107.0, 10090.0, 10086.0, 10093.0, 10093.0, 10107.0, 10109.0, 10104.0, 10105.0, 10109.0, 10103.0, 10111.0, 10128.0, 10150.0, 10081.0, 10096.0, 10033.0, 9827.0, 9915.0, 9636.0, 9943.0, 9933.0, 9862.0, 9813.0, 9786.0, 9785.0, 9802.0, 9812.0, 9827.0, 9824.0, 9840.0, 9850.0, 9851.0, 9865.0, 9869.0, 9879.0, 9895.0],
