{
  "AcquisitionMatrixPE": 104,
  "AcquisitionNumber": 1,
  "AcquisitionTime": "14:50:26.887500",
  "BandwidthPerPixelPhaseEncode": 16.297,
  "BaseResolution": 104,
  "BodyPartExamined": "BRAIN",
  "ConsistencyInfo": "N4_VE11C_LATEST_20160120",
  "ConversionSoftware": "dcm2niix",
  "ConversionSoftwareVersion": "v1.0.20210317",
  "DerivedVendorReportedEchoSpacing": 0.000590009,
  "DeviceSerialNumber": "166018",
  "DwellTime": 2.1e-06,
  "EchoTime": 0.0376,
  "EchoTrainLength": 104,
  "EffectiveEchoSpacing": 0.000590009,
  "FlipAngle": 68,
  "ImageComments": "Unaliased MB6/PE3/LB",
  "ImageOrientationPatientDICOM": [0.999981, 0.00390382, 0.00474829, -0.0022689, 0.952311, -0.30512],
  "ImageType": [
    "ORIGINAL",
    "PRIMARY",
    "M",
    "MB",
    "ND",
    "MOSAIC"
],
  "ImagingFrequency": 123.197,
  "InPlanePhaseEncodingDirectionDICOM": "COL",
  "InstitutionAddress": "Washington Place 6,NYC,NYC,US,10003",
  "InstitutionName": "NYU - CBI",
  "InstitutionalDepartmentName": "Department",
  "MRAcquisitionType": "2D",
  "MagneticFieldStrength": 3,
  "Manufacturer": "Siemens",
  "ManufacturersModelName": "Prisma",
  "Modality": "MR",
  "MultibandAccelerationFactor": 6,
  "PartialFourier": 1,
  "PatientPosition": "HFS",
  "PercentPhaseFOV": 100,
  "PercentSampling": 100,
  "PhaseEncodingDirection": "j",
  "PhaseEncodingSteps": 104,
  "PhaseResolution": 1,
  "PixelBandwidth": 2290,
  "ProcedureStepDescription": "Investigators^Winawer",
  "ProtocolName": "cmrr_mbepi_s6_2mm_66sl_PA_task-wedgering2",
  "PulseSequenceDetails": "%CustomerSeq%\\cmrr_mbep2d_bold",
  "ReceiveCoilActiveElements": "HC1-7",
  "ReceiveCoilName": "HeadNeck_64",
  "ReconMatrixPE": 104,
  "RepetitionTime": 1,
  "SAR": 0.0979689,
  "ScanOptions": "FS",
  "ScanningSequence": "EP",
  "SequenceName": "epfid2d1_104",
  "SequenceVariant": "SK\\SS",
  "SeriesDescription": "cmrr_mbepi_s6_2mm_66sl_PA_task-wedgering2",
  "SeriesNumber": 14,
  "ShimSetting": [312, -12640, -8434, 353, -38, -272, -51, 67],
  "SliceThickness": 2,
  "SliceTiming": [0, 0.535, 0.09, 0.625, 0.18, 0.7125, 0.2675, 0.8025, 0.3575, 0.8925, 0.445, 0, 0.535, 0.09, 0.625, 0.18, 0.7125, 0.2675, 0.8025, 0.3575, 0.8925, 0.445, 0, 0.535, 0.09, 0.625, 0.18, 0.7125, 0.2675, 0.8025, 0.3575, 0.8925, 0.445, 0, 0.535, 0.09, 0.625, 0.18, 0.7125, 0.2675, 0.8025, 0.3575, 0.8925, 0.445, 0, 0.535, 0.09, 0.625, 0.18, 0.7125, 0.2675, 0.8025, 0.3575, 0.8925, 0.445, 0, 0.535, 0.09, 0.625, 0.18, 0.7125, 0.2675, 0.8025, 0.3575, 0.8925, 0.445],
  "SoftwareVersions": "syngo MR E11",
  "SpacingBetweenSlices": 2,
  "StationName": "AWP166018",
  "TaskName": "wedgering2",
  "TotalReadoutTime": 0.060771,
  "TxRefAmp": 269.395,
  "VendorReportedEchoSpacing": 0.00059,
  "WipMemBlock": "839189d9-6556-4661-b92e-20ccdfc93e7e||Sequence: R016 ve11c/master r/8780670; Nov 27 2017 15:05:12 by eja",
  "dcmmeta_affine": [
    [-1.9999622106552124, -0.004537801258265972, 0.011425958946347237, 109.2089614868164],
    [-0.007807644084095955, 1.9046225547790527, -0.6102065443992615, -62.02650833129883],
    [0.009496571496129036, 0.6102396249771118, 1.904604196548462, -61.9390983581543],
    [0.0, 0.0, 0.0, 1.0]
],
  "dcmmeta_reorient_transform": [
    [0.0, -1.0, 0.0, 103.0],
    [1.0, 0.0, 0.0, 0.0],
    [0.0, 0.0, 1.0, 0.0],
    [0.0, 0.0, 0.0, 1.0]
],
  "dcmmeta_shape": [104, 104, 66, 300],
  "dcmmeta_slice_dim": 2,
  "dcmmeta_version": 0.6,
  "global": {
    "const": {
      "AccessionNumber": "LiLya2tg",
      "AcquisitionMatrix": [104, 0, 0, 104],
      "AngioFlag": "N",
      "BitsAllocated": 16,
      "BitsStored": 16,
      "BodyPartExamined": "BRAIN",
      "Columns": 936,
      "EchoNumbers": 1,
      "EchoTime": 37.6,
      "EchoTrainLength": 104,
      "FlipAngle": 68.0,
      "HighBit": 15,
      "ImageOrientationPatient": [0.99998110679942, 0.00390382212521, 0.00474828569319, -0.0022689006222, 0.95231126827363, -0.305119813203],
      "ImagePositionPatient": [-938.83812527558, -929.72056786893, 250.82469448186],
      "ImageType": [
        "ORIGINAL",
        "PRIMARY",
        "M",
        "MB",
        "ND",
        "MOSAIC"
],
      "ImagedNucleus": "1H",
      "ImagingFrequency": 123.196745,
      "InPlanePhaseEncodingDirection": "COL",
      "MRAcquisitionType": "2D",
      "MagneticFieldStrength": 3.0,
      "Manufacturer": "SIEMENS",
      "ManufacturerModelName": "Prisma",
      "Modality": "MR",
      "NumberOfAverages": 1.0,
      "NumberOfPhaseEncodingSteps": 104,
      "PercentPhaseFieldOfView": 100.0,
      "PercentSampling": 100.0,
      "PerformedProcedureStepStartTime": "141819.263000",
      "PhotometricInterpretation": "MONOCHROME2",
      "PixelBandwidth": 2290.0,
      "PixelRepresentation": 0,
      "PixelSpacing": [2.0, 2.0],
      "ProtocolName": "cmrr_mbepi_s6_2mm_66sl_PA_task-wedgering2",
      "RepetitionTime": 1000.0,
      "Rows": 936,
      "SAR": 0.09796886004748,
      "SamplesPerPixel": 1,
      "ScanOptions": "FS",
      "ScanningSequence": "EP",
      "SequenceName": "epfid2d1_104",
      "SequenceVariant": [
        "SK",
        "SS"
],
      "SeriesDescription": "cmrr_mbepi_s6_2mm_66sl_PA_task-wedgering2",
      "SeriesNumber": 14,
      "SeriesTime": "145142.305000",
      "SliceLocation": -39.436335615713,
      "SliceThickness": 2.0,
      "SmallestImagePixelValue": 0,
      "SoftwareVersions": "syngo MR E11",
      "SpacingBetweenSlices": 1.9999999536604,
      "SpecificCharacterSet": "ISO_IR 100",
      "StudyID": "1",
      "StudyTime": "141819.147000",
      "TransmitCoilName": "Body",
      "VariableFlipAngleFlag": "N",
      "WindowCenterWidthExplanation": "Algo1",
      "dBdt": 0.0},
    "slices": {}
  },
  "time": {
    "samples": {
      "AcquisitionNumber": [1, 2, 3, 4, 5, 6, 7, 8, 9, 10, 11, 12, 13, 14, 15, 16, 17, 18, 19, 20, 21, 22, 23, 24, 25, 26, 27, 28, 29, 30, 31, 32, 33, 34, 35, 36, 37, 38, 39, 40, 41, 42, 43, 44, 45, 46, 47, 48, 49, 50, 51, 52, 53, 54, 55, 56, 57, 58, 59, 60, 61, 62, 63, 64, 65, 66, 67, 68, 69, 70, 71, 72, 73, 74, 75, 76, 77, 78, 79, 80, 81, 82, 83, 84, 85, 86, 87, 88, 89, 90, 91, 92, 93, 94, 95, 96, 97, 98, 99, 100, 101, 102, 103, 104, 105, 106, 107, 108, 109, 110, 111, 112, 113, 114, 115, 116, 117, 118, 119, 120, 121, 122, 123, 124, 125, 126, 127, 128, 129, 130, 131, 132, 133, 134, 135, 136, 137, 138, 139, 140, 141, 142, 143, 144, 145, 146, 147, 148, 149, 150, 151, 152, 153, 154, 155, 156, 157, 158, 159, 160, 161, 162, 163, 164, 165, 166, 167, 168, 169, 170, 171, 172, 173, 174, 175, 176, 177, 178, 179, 180, 181, 182, 183, 184, 185, 186, 187, 188, 189, 190, 191, 192, 193, 194, 195, 196, 197, 198, 199, 200, 201, 202, 203, 204, 205, 206, 207, 208, 209, 210, 211, 212, 213, 214, 215, 216, 217, 218, 219, 220, 221, 222, 223, 224, 225, 226, 227, 228, 229, 230, 231, 232, 233, 234, 235, 236, 237, 238, 239, 240, 241, 242, 243, 244, 245, 246, 247, 248, 249, 250, 251, 252, 253, 254, 255, 256, 257, 258, 259, 260, 261, 262, 263, 264, 265, 266, 267, 268, 269, 270, 271, 272, 273, 274, 275, 276, 277, 278, 279, 280, 281, 282, 283, 284, 285, 286, 287, 288, 289, 290, 291, 292, 293, 294, 295, 296, 297, 298, 299, 300],
      "AcquisitionTime": ["145026.887500", "145027.887500", "145028.887500", "145029.887500", "145030.887500", "145031.887500", "145032.887500", "145033.887500", "145034.887500", "145035.887500", "145036.887500", "145037.887500", "145038.887500", "145039.887500", "145040.887500", "145041.887500", "145042.887500", "145043.887500", "145044.887500", "145045.887500", "145046.887500", "145047.887500", "145048.887500", "145049.887500", "145050.887500", "145051.887500", "145052.887500", "145053.887500", "145054.887500", "145055.887500", "145056.887500", "145057.887500", "145058.887500", "145059.887500", "145100.887500", "145101.887500", "145102.887500", "145103.887500", "145104.887500", "145105.887500", "145106.887500", "145107.887500", "145108.887500", "145109.887500", "145110.887500", "145111.887500", "145112.887500", "145113.887500", "145114.887500", "145115.887500", "145116.887500", "145117.887500", "145118.887500", "145119.887500", "145120.887500", "145121.887500", "145122.887500", "145123.887500", "145124.887500", "145125.887500", "145126.887500", "145127.887500", "145128.887500", "145129.887500", "145130.887500", "145131.887500", "145132.887500", "145133.887500", "145134.887500", "145135.887500", "145136.887500", "145137.887500", "145138.887500", "145139.887500", "145140.887500", "145141.887500", "145142.887500", "145143.887500", "145144.887500", "145145.887500", "145146.887500", "145147.887500", "145148.887500", "145149.887500", "145150.887500", "145151.887500", "145152.887500", "145153.887500", "145154.887500", "145155.887500", "145156.887500", "145157.887500", "145158.887500", "145159.887500", "145200.887500", "145201.887500", "145202.887500", "145203.887500", "145204.887500", "145205.887500", "145206.887500", "145207.887500", "145208.887500", "145209.887500", "145210.887500", "145211.887500", "145212.887500", "145213.887500", "145214.887500", "145215.887500", "145216.887500", "145217.887500", "145218.887500", "145219.887500", "145220.887500", "145221.887500", "145222.887500", "145223.887500", "145224.887500", "145225.887500", "145226.887500", "145227.887500", "145228.887500", "145229.887500", "145230.887500", "145231.887500", "145232.887500", "145233.887500", "145234.887500", "145235.887500", "145236.887500", "145237.887500", "145238.887500", "145239.887500", "145240.887500", "145241.887500", "145242.887500", "145243.887500", "145244.887500", "145245.887500", "145246.887500", "145247.887500", "145248.887500", "145249.887500", "145250.887500", "145251.887500", "145252.887500", "145253.887500", "145254.887500", "145255.887500", "145256.887500", "145257.887500", "145258.887500", "145259.887500", "145300.887500", "145301.887500", "145302.887500", "145303.887500", "145304.887500", "145305.887500", "145306.887500", "145307.887500", "145308.887500", "145309.887500", "145310.887500", "145311.887500", "145312.887500", "145313.887500", "145314.887500", "145315.887500", "145316.887500", "145317.887500", "145318.887500", "145319.887500", "145320.887500", "145321.887500", "145322.887500", "145323.887500", "145324.887500", "145325.887500", "145326.887500", "145327.887500", "145328.887500", "145329.887500", "145330.887500", "145331.887500", "145332.887500", "145333.887500", "145334.887500", "145335.887500", "145336.887500", "145337.887500", "145338.887500", "145339.887500", "145340.887500", "145341.887500", "145342.887500", "145343.887500", "145344.887500", "145345.887500", "145346.887500", "145347.887500", "145348.887500", "145349.887500", "145350.887500", "145351.887500", "145352.887500", "145353.887500", "145354.887500", "145355.887500", "145356.887500", "145357.887500", "145358.887500", "145359.887500", "145400.887500", "145401.887500", "145402.887500", "145403.887500", "145404.887500", "145405.887500", "145406.887500", "145407.887500", "145408.887500", "145409.887500", "145410.887500", "145411.887500", "145412.887500", "145413.887500", "145414.887500", "145415.887500", "145416.887500", "145417.887500", "145418.887500", "145419.887500", "145420.887500", "145421.887500", "145422.887500", "145423.887500", "145424.887500", "145425.887500", "145426.887500", "145427.887500", "145428.887500", "145429.887500", "145430.887500", "145431.887500", "145432.887500", "145433.887500", "145434.887500", "145435.887500", "145436.887500", "145437.887500", "145438.887500", "145439.887500", "145440.887500", "145441.887500", "145442.887500", "145443.887500", "145444.887500", "145445.887500", "145446.887500", "145447.887500", "145448.887500", "145449.887500", "145450.887500", "145451.887500", "145452.887500", "145453.887500", "145454.887500", "145455.887500", "145456.887500", "145457.887500", "145458.887500", "145459.887500", "145500.887500", "145501.887500", "145502.887500", "145503.887500", "145504.887500", "145505.887500", "145506.887500", "145507.887500", "145508.887500", "145509.887500", "145510.887500", "145511.887500", "145512.887500", "145513.887500", "145514.887500", "145515.887500", "145516.887500", "145517.887500", "145518.887500", "145519.887500", "145520.887500", "145521.887500", "145522.887500", "145523.887500", "145524.887500", "145525.887500"],
      "ContentTime": ["145142.308000", "145142.312000", "145142.315000", "145142.318000", "145142.321000", "145142.324000", "145142.327000", "145142.330000", "145142.333000", "145142.336000", "145142.339000", "145142.343000", "145142.346000", "145142.354000", "145142.357000", "145142.360000", "145142.363000", "145142.366000", "145142.386000", "145142.389000", "145142.392000", "145142.395000", "145142.398000", "145142.402000", "145142.405000", "145142.408000", "145142.411000", "145142.414000", "145142.417000", "145142.420000", "145142.423000", "145142.426000", "145142.429000", "145142.432000", "145142.435000", "145142.438000", "145202.253000", "145202.256000", "145202.259000", "145202.262000", "145202.265000", "145202.269000", "145202.272000", "145202.275000", "145202.278000", "145202.289000", "145202.292000", "145202.295000", "145202.298000", "145202.310000", "145202.313000", "145202.319000", "145202.322000", "145202.325000", "145202.328000", "145202.331000", "145202.334000", "145202.338000", "145202.341000", "145202.344000", "145202.347000", "145202.350000", "145202.353000", "145202.356000", "145202.360000", "145222.253000", "145222.256000", "145222.259000", "145222.262000", "145222.265000", "145222.268000", "145222.272000", "145222.276000", "145222.279000", "145222.282000", "145222.286000", "145222.290000", "145222.294000", "145222.297000", "145222.300000", "145222.320000", "145222.323000", "145222.326000", "145222.329000", "145222.332000", "145222.336000", "145222.339000", "145222.342000", "145222.345000", "145222.348000", "145222.351000", "145222.354000", "145222.357000", "145242.253000", "145242.256000", "145242.259000", "145242.262000", "145242.265000", "145242.269000", "145242.272000", "145242.275000", "145242.278000", "145242.281000", "145242.284000", "145242.287000", "145242.290000", "145242.293000", "145242.296000", "145242.299000", "145242.302000", "145242.305000", "145242.309000", "145242.312000", "145242.315000", "145242.328000", "145242.331000", "145242.334000", "145242.337000", "145242.370000", "145242.373000", "145242.376000", "145302.253000", "145302.256000", "145302.259000", "145302.262000", "145302.265000", "145302.269000", "145302.272000", "145302.275000", "145302.278000", "145302.281000", "145302.284000", "145302.287000", "145302.290000", "145302.293000", "145302.296000", "145302.299000", "145302.302000", "145302.305000", "145302.308000", "145302.311000", "145302.315000", "145302.318000", "145302.321000", "145302.324000", "145302.327000", "145302.330000", "145302.333000", "145302.336000", "145302.345000", "145322.252000", "145322.255000", "145322.258000", "145322.261000", "145322.264000", "145322.268000", "145322.271000", "145322.274000", "145322.277000", "145322.280000", "145322.283000", "145322.286000", "145322.298000", "145322.301000", "145322.304000", "145322.307000", "145322.310000", "145322.313000", "145322.316000", "145322.335000", "145322.338000", "145322.341000", "145322.345000", "145322.362000", "145342.252000", "145342.255000", "145342.258000", "145342.261000", "145342.265000", "145342.268000", "145342.271000", "145342.274000", "145342.277000", "145342.280000", "145342.283000", "145342.298000", "145342.301000", "145342.304000", "145342.307000", "145342.310000", "145342.314000", "145342.323000", "145342.326000", "145342.329000", "145402.252000", "145402.255000", "145402.258000", "145402.262000", "145402.265000", "145402.268000", "145402.271000", "145402.274000", "145402.277000", "145402.280000", "145402.283000", "145402.287000", "145402.290000", "145402.293000", "145402.296000", "145402.299000", "145402.302000", "145402.305000", "145402.309000", "145402.313000", "145422.253000", "145422.256000", "145422.259000", "145422.263000", "145422.266000", "145422.269000", "145422.272000", "145422.275000", "145422.278000", "145422.281000", "145422.284000", "145422.297000", "145422.300000", "145422.303000", "145422.306000", "145422.309000", "145422.312000", "145422.315000", "145422.319000", "145422.324000", "145442.253000", "145442.256000", "145442.259000", "145442.263000", "145442.266000", "145442.269000", "145442.272000", "145442.275000", "145442.278000", "145442.281000", "145442.284000", "145442.288000", "145442.291000", "145442.294000", "145442.297000", "145442.300000", "145442.303000", "145442.306000", "145442.309000", "145442.312000", "145502.253000", "145502.256000", "145502.259000", "145502.262000", "145502.266000", "145502.269000", "145502.272000", "145502.275000", "145502.278000", "145502.281000", "145502.284000", "145502.287000", "145502.290000", "145502.293000", "145502.297000", "145502.300000", "145502.303000", "145502.306000", "145502.309000", "145502.312000", "145522.253000", "145522.256000", "145522.259000", "145522.263000", "145522.266000", "145522.269000", "145522.272000", "145522.275000", "145522.278000", "145522.281000", "145522.284000", "145522.288000", "145522.291000", "145522.294000", "145522.297000", "145522.300000", "145522.303000", "145522.306000", "145522.311000", "145522.314000", "145527.387000", "145527.391000", "145527.394000", "145527.397000", "145527.400000", "145527.403000"],
      "InstanceCreationTime": ["145142.308000", "145142.312000", "145142.315000", "145142.318000", "145142.321000", "145142.324000", "145142.327000", "145142.330000", "145142.333000", "145142.336000", "145142.339000", "145142.343000", "145142.346000", "145142.354000", "145142.357000", "145142.360000", "145142.363000", "145142.366000", "145142.386000", "145142.389000", "145142.392000", "145142.395000", "145142.398000", "145142.402000", "145142.405000", "145142.408000", "145142.411000", "145142.414000", "145142.417000", "145142.420000", "145142.423000", "145142.426000", "145142.429000", "145142.432000", "145142.435000", "145142.438000", "145202.253000", "145202.256000", "145202.259000", "145202.262000", "145202.265000", "145202.269000", "145202.272000", "145202.275000", "145202.278000", "145202.289000", "145202.292000", "145202.295000", "145202.298000", "145202.310000", "145202.313000", "145202.319000", "145202.322000", "145202.325000", "145202.328000", "145202.331000", "145202.334000", "145202.338000", "145202.341000", "145202.344000", "145202.347000", "145202.350000", "145202.353000", "145202.356000", "145202.360000", "145222.253000", "145222.256000", "145222.259000", "145222.262000", "145222.265000", "145222.268000", "145222.272000", "145222.276000", "145222.279000", "145222.282000", "145222.286000", "145222.290000", "145222.294000", "145222.297000", "145222.300000", "145222.320000", "145222.323000", "145222.326000", "145222.329000", "145222.332000", "145222.336000", "145222.339000", "145222.342000", "145222.345000", "145222.348000", "145222.351000", "145222.354000", "145222.357000", "145242.253000", "145242.256000", "145242.259000", "145242.262000", "145242.265000", "145242.269000", "145242.272000", "145242.275000", "145242.278000", "145242.281000", "145242.284000", "145242.287000", "145242.290000", "145242.293000", "145242.296000", "145242.299000", "145242.302000", "145242.305000", "145242.309000", "145242.312000", "145242.315000", "145242.328000", "145242.331000", "145242.334000", "145242.337000", "145242.370000", "145242.373000", "145242.376000", "145302.253000", "145302.256000", "145302.259000", "145302.262000", "145302.265000", "145302.269000", "145302.272000", "145302.275000", "145302.278000", "145302.281000", "145302.284000", "145302.287000", "145302.290000", "145302.293000", "145302.296000", "145302.299000", "145302.302000", "145302.305000", "145302.308000", "145302.311000", "145302.315000", "145302.318000", "145302.321000", "145302.324000", "145302.327000", "145302.330000", "145302.333000", "145302.336000", "145302.345000", "145322.252000", "145322.255000", "145322.258000", "145322.261000", "145322.264000", "145322.268000", "145322.271000", "145322.274000", "145322.277000", "145322.280000", "145322.283000", "145322.286000", "145322.298000", "145322.301000", "145322.304000", "145322.307000", "145322.310000", "145322.313000", "145322.316000", "145322.335000", "145322.338000", "145322.341000", "145322.345000", "145322.362000", "145342.252000", "145342.255000", "145342.258000", "145342.261000", "145342.265000", "145342.268000", "145342.271000", "145342.274000", "145342.277000", "145342.280000", "145342.283000", "145342.298000", "145342.301000", "145342.304000", "145342.307000", "145342.310000", "145342.314000", "145342.323000", "145342.326000", "145342.329000", "145402.252000", "145402.255000", "145402.258000", "145402.262000", "145402.265000", "145402.268000", "145402.271000", "145402.274000", "145402.277000", "145402.280000", "145402.283000", "145402.287000", "145402.290000", "145402.293000", "145402.296000", "145402.299000", "145402.302000", "145402.305000", "145402.309000", "145402.313000", "145422.253000", "145422.256000", "145422.259000", "145422.263000", "145422.266000", "145422.269000", "145422.272000", "145422.275000", "145422.278000", "145422.281000", "145422.284000", "145422.297000", "145422.300000", "145422.303000", "145422.306000", "145422.309000", "145422.312000", "145422.315000", "145422.319000", "145422.324000", "145442.253000", "145442.256000", "145442.259000", "145442.263000", "145442.266000", "145442.269000", "145442.272000", "145442.275000", "145442.278000", "145442.281000", "145442.284000", "145442.288000", "145442.291000", "145442.294000", "145442.297000", "145442.300000", "145442.303000", "145442.306000", "145442.309000", "145442.312000", "145502.253000", "145502.256000", "145502.259000", "145502.262000", "145502.266000", "145502.269000", "145502.272000", "145502.275000", "145502.278000", "145502.281000", "145502.284000", "145502.287000", "145502.290000", "145502.293000", "145502.297000", "145502.300000", "145502.303000", "145502.306000", "145502.309000", "145502.312000", "145522.253000", "145522.256000", "145522.259000", "145522.263000", "145522.266000", "145522.269000", "145522.272000", "145522.275000", "145522.278000", "145522.281000", "145522.284000", "145522.288000", "145522.291000", "145522.294000", "145522.297000", "145522.300000", "145522.303000", "145522.306000", "145522.311000", "145522.314000", "145527.387000", "145527.391000", "145527.394000", "145527.397000", "145527.400000", "145527.403000"],
      "InstanceNumber": [1, 2, 3, 4, 5, 6, 7, 8, 9, 10, 11, 12, 13, 14, 15, 16, 17, 18, 19, 20, 21, 22, 23, 24, 25, 26, 27, 28, 29, 30, 31, 32, 33, 34, 35, 36, 37, 38, 39, 40, 41, 42, 43, 44, 45, 46, 47, 48, 49, 50, 51, 52, 53, 54, 55, 56, 57, 58, 59, 60, 61, 62, 63, 64, 65, 66, 67, 68, 69, 70, 71, 72, 73, 74, 75, 76, 77, 78, 79, 80, 81, 82, 83, 84, 85, 86, 87, 88, 89, 90, 91, 92, 93, 94, 95, 96, 97, 98, 99, 100, 101, 102, 103, 104, 105, 106, 107, 108, 109, 110, 111, 112, 113, 114, 115, 116, 117, 118, 119, 120, 121, 122, 123, 124, 125, 126, 127, 128, 129, 130, 131, 132, 133, 134, 135, 136, 137, 138, 139, 140, 141, 142, 143, 144, 145, 146, 147, 148, 149, 150, 151, 152, 153, 154, 155, 156, 157, 158, 159, 160, 161, 162, 163, 164, 165, 166, 167, 168, 169, 170, 171, 172, 173, 174, 175, 176, 177, 178, 179, 180, 181, 182, 183, 184, 185, 186, 187, 188, 189, 190, 191, 192, 193, 194, 195, 196, 197, 198, 199, 200, 201, 202, 203, 204, 205, 206, 207, 208, 209, 210, 211, 212, 213, 214, 215, 216, 217, 218, 219, 220, 221, 222, 223, 224, 225, 226, 227, 228, 229, 230, 231, 232, 233, 234, 235, 236, 237, 238, 239, 240, 241, 242, 243, 244, 245, 246, 247, 248, 249, 250, 251, 252, 253, 254, 255, 256, 257, 258, 259, 260, 261, 262, 263, 264, 265, 266, 267, 268, 269, 270, 271, 272, 273, 274, 275, 276, 277, 278, 279, 280, 281, 282, 283, 284, 285, 286, 287, 288, 289, 290, 291, 292, 293, 294, 295, 296, 297, 298, 299, 300],
      "LargestImagePixelValue": [36797, 35560, 35381, 36571, 35155, 34736, 35795, 35053, 35897, 35761, 35396, 35746, 35569, 35774, 35307, 35214, 35020, 35850, 36016, 35206, 34885, 35238, 34961, 34614, 36147, 35388, 34087, 35533, 35725, 34421, 35107, 35426, 35458, 33820, 35556, 36955, 35136, 36287, 36245, 35249, 36247, 36966, 34067, 35798, 35264, 34847, 35411, 35048, 35238, 34614, 35302, 35709, 34175, 34132, 35862, 36362, 34352, 34656, 35036, 34536, 33983, 35030, 34741, 33820, 35723, 35193, 34470, 35182, 36439, 36365, 35359, 35159, 34949, 34174, 35570, 35132, 33889, 34148, 36101, 34526, 34521, 35362, 34955, 34273, 34643, 36244, 34842, 34529, 35655, 35936, 34184, 35156, 35658, 34821, 35066, 36526, 35844, 34967, 35007, 36652, 36054, 33820, 35342, 35913, 34684, 35059, 35497, 34600, 35771, 36844, 35588, 33924, 34588, 34747, 34631, 35588, 34541, 35663, 35025, 33610, 34373, 35198, 34560, 34475, 34703, 35450, 33822, 35125, 34430, 34818, 33936, 33985, 34339, 35637, 34880, 34595, 35222, 34840, 34329, 34241, 35620, 34650, 35072, 35238, 35069, 35256, 35699, 35737, 33691, 34842, 35562, 35096, 34672, 34679, 36279, 35821, 34272, 35827, 36116, 35770, 34977, 36136, 33845, 35224, 35129, 35988, 34324, 34352, 35567, 35740, 34490, 34533, 34580, 34860, 34846, 35682, 36022, 33856, 34577, 36631, 33792, 35741, 35427, 33728, 35212, 34794, 34975, 35110, 34390, 35645, 34992, 35780, 36245, 35185, 34950, 35417, 35567, 34241, 34825, 35200, 35931, 34865, 36024, 35889, 34487, 36314, 35222, 35455, 34881, 35198, 35007, 34958, 35757, 35481, 35781, 34457, 34309, 36295, 35190, 35182, 35483, 35990, 34942, 34720, 34980, 34741, 36321, 34102, 33316, 33523, 34378, 33510, 33960, 34010, 34905, 34132, 33495, 33941, 33727, 34367, 34228, 34628, 34196, 35186, 34019, 34033, 34506, 34308, 35117, 34681, 35559, 34299, 34887, 35122, 35722, 34673, 34141, 35527, 35046, 35138, 34145, 35341, 35457, 35114, 35478, 35376, 34269, 34328, 35241, 34566, 34842, 34083, 35038, 33981, 34574, 34726, 35600, 33968, 35268, 35043, 34730, 34178, 35333, 34627, 34594, 34656, 35152, 34258, 33652, 35397, 35576, 33976, 35284, 34639, 33822, 35950, 36007, 34926, 34657, 35747],
      "WindowCenter": [9564.0, 9524.0, 9520.0, 9526.0, 9492.0, 9475.0, 9478.0, 9463.0, 9467.0, 9474.0, 9475.0, 9482.0, 9476.0, 9472.0, 9451.0, 9450.0, 9446.0, 9466.0, 9480.0, 9471.0, 9466.0, 9479.0, 9465.0, 9473.0, 9497.0, 9494.0, 9479.0, 9513.0, 9518.0, 9491.0, 9481.0, 9476.0, 9472.0, 9466.0, 9511.0, 9555.0, 9535.0, 9534.0, 9509.0, 9482.0, 9481.0, 9492.0, 9446.0, 9479.0, 9476.0, 9480.0, 9494.0, 9488.0, 9480.0, 9481.0, 9485.0, 9491.0, 9468.0, 9466.0, 9488.0, 9492.0, 9458.0, 9464.0, 9476.0, 9470.0, 9448.0, 9458.0, 9452.0, 9456.0, 9495.0, 9492.0, 9482.0, 9469.0, 9475.0, 9467.0, 9440.0, 9446.0, 9451.0, 9456.0, 9479.0, 9467.0, 9449.0, 9439.0, 9462.0, 9445.0, 9443.0, 9450.0, 9442.0, 9440.0, 9445.0, 9459.0, 9441.0, 9436.0, 9463.0, 9478.0, 9474.0, 9495.0, 9493.0, 9472.0, 9468.0, 9475.0, 9478.0, 9478.0, 9490.0, 9519.0, 9505.0, 9478.0, 9487.0, 9490.0, 9473.0, 9468.0, 9473.0, 9470.0, 9372.0, 9507.0, 9454.0, 9445.0, 9476.0, 9484.0, 9476.0, 9479.0, 9451.0, 9462.0, 9447.0, 9422.0, 9418.0, 9427.0, 9414.0, 9422.0, 9421.0, 9433.0, 9418.0, 9436.0, 9423.0, 9437.0, 9419.0, 9419.0, 9424.0, 9441.0, 9439.0, 9442.0, 9473.0, 9477.0, 9474.0, 9467.0, 9475.0, 9457.0, 9459.0, 9456.0, 9449.0, 9456.0, 9469.0, 9478.0, 9452.0, 9469.0, 9470.0, 9456.0, 9461.0, 9486.0, 9519.0, 9523.0, 9503.0, 9511.0, 9506.0, 9505.0, 9479.0, 9487.0, 9467.0, 9491.0, 9484.0, 9480.0, 9472.0, 9472.0, 9498.0, 9498.0, 9489.0, 9483.0, 9474.0, 9464.0, 9453.0, 9454.0, 9448.0, 9415.0, 9425.0, 9454.0, 9413.0, 9433.0, 9426.0, 9396.0, 9428.0, 9413.0, 9411.0, 9425.0, 9418.0, 9462.0, 9452.0, 9487.0, 9484.0, 9475.0, 9463.0, 9471.0, 9465.0, 9457.0, 9478.0, 9489.0, 9501.0, 9485.0, 9493.0, 9467.0, 9432.0, 9453.0, 9433.0, 9447.0, 9445.0, 9451.0, 9445.0, 9444.0, 9452.0, 9440.0, 9449.0, 9443.0, 9456.0, 9487.0, 9455.0, 9465.0, 9464.0, 9487.0, 9487.0, 9498.0, 9482.0, 9429.0, 9480.0, 9434.0, 9424.0, 9447.0, 9465.0, 9442.0, 9440.0, 9439.0, 9434.0, 9418.0, 9405.0, 9404.0, 9395.0, 9405.0, 9405.0, 9422.0, 9423.0, 9436.0, 9438.0, 9438.0, 9444.0, 9428.0, 9465.0, 9446.0, 9462.0, 9454.0, 9471.0, 9485.0, 9495.0, 9472.0, 9477.0, 9493.0, 9479.0, 9479.0, 9444.0, 9458.0, 9448.0, 9451.0, 9444.0, 9439.0, 9430.0, 9437.0, 9450.0, 9437.0, 9445.0, 9423.0, 9433.0, 9413.0, 9435.0, 9450.0, 9463.0, 9441.0, 9457.0, 9467.0, 9480.0, 9487.0, 9490.0, 9456.0, 9452.0, 9444.0, 9447.0, 9446.0, 9451.0, 9483.0, 9483.0, 9461.0, 9477.0, 9474.0, 9462.0, 9473.0, 9468.0, 9442.0, 9446.0, 9470.0],
