{
  "AcquisitionMatrixPE": 104,
  "AcquisitionNumber": 1,
  "AcquisitionTime": "15:02:33.647500",
  "BandwidthPerPixelPhaseEncode": 16.297,
  "BaseResolution": 104,
  "BodyPartExamined": "BRAIN",
  "ConsistencyInfo": "N4_VE11C_LATEST_20160120",
  "ConversionSoftware": "dcm2niix",
  "ConversionSoftwareVersion": "v1.0.20210317",
  "DerivedVendorReportedEchoSpacing": 0.000590009,
  "DeviceSerialNumber": "166018",
  "DwellTime": 2.1e-06,
  "EchoTime": 0.0376,
  "EchoTrainLength": 104,
  "EffectiveEchoSpacing": 0.000590009,
  "FlipAngle": 68,
  "ImageComments": "Unaliased MB6/PE3/LB",
  "ImageOrientationPatientDICOM": [0.999981, 0.00390382, 0.00474829, -0.0022689, 0.952311, -0.30512],
  "ImageType": [
    "ORIGINAL",
    "PRIMARY",
    "M",
    "MB",
    "ND",
    "MOSAIC"
],
  "ImagingFrequency": 123.197,
  "InPlanePhaseEncodingDirectionDICOM": "COL",
  "InstitutionAddress": "Washington Place 6,NYC,NYC,US,10003",
  "InstitutionName": "NYU - CBI",
  "InstitutionalDepartmentName": "Department",
  "MRAcquisitionType": "2D",
  "MagneticFieldStrength": 3,
  "Manufacturer": "Siemens",
  "ManufacturersModelName": "Prisma",
  "Modality": "MR",
  "MultibandAccelerationFactor": 6,
  "PartialFourier": 1,
  "PatientPosition": "HFS",
  "PercentPhaseFOV": 100,
  "PercentSampling": 100,
  "PhaseEncodingDirection": "j",
  "PhaseEncodingSteps": 104,
  "PhaseResolution": 1,
  "PixelBandwidth": 2290,
  "ProcedureStepDescription": "Investigators^Winawer",
  "ProtocolName": "cmrr_mbepi_s6_2mm_66sl_PA_task-wedgering3",
  "PulseSequenceDetails": "%CustomerSeq%\\cmrr_mbep2d_bold",
  "ReceiveCoilActiveElements": "HC1-7",
  "ReceiveCoilName": "HeadNeck_64",
  "ReconMatrixPE": 104,
  "RepetitionTime": 1,
  "SAR": 0.0979689,
  "ScanOptions": "FS",
  "ScanningSequence": "EP",
  "SequenceName": "epfid2d1_104",
  "SequenceVariant": "SK\\SS",
  "SeriesDescription": "cmrr_mbepi_s6_2mm_66sl_PA_task-wedgering3",
  "SeriesNumber": 18,
  "ShimSetting": [312, -12640, -8434, 353, -38, -272, -51, 67],
  "SliceThickness": 2,
  "SliceTiming": [0, 0.535, 0.09, 0.6225, 0.1775, 0.7125, 0.2675, 0.8025, 0.3575, 0.89, 0.445, 0, 0.535, 0.09, 0.6225, 0.1775, 0.7125, 0.2675, 0.8025, 0.3575, 0.89, 0.445, 0, 0.535, 0.09, 0.6225, 0.1775, 0.7125, 0.2675, 0.8025, 0.3575, 0.89, 0.445, 0, 0.535, 0.09, 0.6225, 0.1775, 0.7125, 0.2675, 0.8025, 0.3575, 0.89, 0.445, 0, 0.535, 0.09, 0.6225, 0.1775, 0.7125, 0.2675, 0.8025, 0.3575, 0.89, 0.445, 0, 0.535, 0.09, 0.6225, 0.1775, 0.7125, 0.2675, 0.8025, 0.3575, 0.89, 0.445],
  "SoftwareVersions": "syngo MR E11",
  "SpacingBetweenSlices": 2,
  "StationName": "AWP166018",
  "TaskName": "wedgering3",
  "TotalReadoutTime": 0.060771,
  "TxRefAmp": 269.395,
  "VendorReportedEchoSpacing": 0.00059,
  "WipMemBlock": "d76949cb-cfb3-4613-b0d0-8bcd0f0a172a||Sequence: R016 ve11c/master r/8780670; Nov 27 2017 15:05:12 by eja",
  "dcmmeta_affine": [
    [-1.9999622106552124, -0.004537801258265972, 0.011425958946347237, 109.2089614868164],
    [-0.007807644084095955, 1.9046225547790527, -0.6102065443992615, -62.02650833129883],
    [0.009496571496129036, 0.6102396249771118, 1.904604196548462, -61.9390983581543],
    [0.0, 0.0, 0.0, 1.0]
],
  "dcmmeta_reorient_transform": [
    [0.0, -1.0, 0.0, 103.0],
    [1.0, 0.0, 0.0, 0.0],
    [0.0, 0.0, 1.0, 0.0],
    [0.0, 0.0, 0.0, 1.0]
],
  "dcmmeta_shape": [104, 104, 66, 300],
  "dcmmeta_slice_dim": 2,
  "dcmmeta_version": 0.6,
  "global": {
    "const": {
      "AccessionNumber": "LiLya2tg",
      "AcquisitionMatrix": [104, 0, 0, 104],
      "AngioFlag": "N",
      "BitsAllocated": 16,
      "BitsStored": 16,
      "BodyPartExamined": "BRAIN",
      "Columns": 936,
      "EchoNumbers": 1,
      "EchoTime": 37.6,
      "EchoTrainLength": 104,
      "FlipAngle": 68.0,
      "HighBit": 15,
      "ImageOrientationPatient": [0.99998110679942, 0.00390382212521, 0.00474828569319, -0.0022689006222, 0.95231126827363, -0.305119813203],
      "ImagePositionPatient": [-938.83812527558, -929.72056786893, 250.82469448186],
      "ImageType": [
        "ORIGINAL",
        "PRIMARY",
        "M",
        "MB",
        "ND",
        "MOSAIC"
],
      "ImagedNucleus": "1H",
      "ImagingFrequency": 123.196752,
      "InPlanePhaseEncodingDirection": "COL",
      "MRAcquisitionType": "2D",
      "MagneticFieldStrength": 3.0,
      "Manufacturer": "SIEMENS",
      "ManufacturerModelName": "Prisma",
      "Modality": "MR",
      "NumberOfAverages": 1.0,
      "NumberOfPhaseEncodingSteps": 104,
      "PercentPhaseFieldOfView": 100.0,
      "PercentSampling": 100.0,
      "PerformedProcedureStepStartTime": "141819.263000",
      "PhotometricInterpretation": "MONOCHROME2",
      "PixelBandwidth": 2290.0,
      "PixelRepresentation": 0,
      "PixelSpacing": [2.0, 2.0],
      "ProtocolName": "cmrr_mbepi_s6_2mm_66sl_PA_task-wedgering3",
      "RepetitionTime": 1000.0,
      "Rows": 936,
      "SAR": 0.09796886004748,
      "SamplesPerPixel": 1,
      "ScanOptions": "FS",
      "ScanningSequence": "EP",
      "SequenceName": "epfid2d1_104",
      "SequenceVariant": [
        "SK",
        "SS"
],
      "SeriesDescription": "cmrr_mbepi_s6_2mm_66sl_PA_task-wedgering3",
      "SeriesNumber": 18,
      "SeriesTime": "150342.212000",
      "SliceLocation": -39.436335615713,
      "SliceThickness": 2.0,
      "SmallestImagePixelValue": 0,
      "SoftwareVersions": "syngo MR E11",
      "SpacingBetweenSlices": 1.9999999536604,
      "SpecificCharacterSet": "ISO_IR 100",
      "StudyID": "1",
      "StudyTime": "141819.147000",
      "TransmitCoilName": "Body",
      "VariableFlipAngleFlag": "N",
      "WindowCenterWidthExplanation": "Algo1",
      "dBdt": 0.0},
    "slices": {}
  },
  "time": {
    "samples": {
      "AcquisitionNumber": [1, 2, 3, 4, 5, 6, 7, 8, 9, 10, 11, 12, 13, 14, 15, 16, 17, 18, 19, 20, 21, 22, 23, 24, 25, 26, 27, 28, 29, 30, 31, 32, 33, 34, 35, 36, 37, 38, 39, 40, 41, 42, 43, 44, 45, 46, 47, 48, 49, 50, 51, 52, 53, 54, 55, 56, 57, 58, 59, 60, 61, 62, 63, 64, 65, 66, 67, 68, 69, 70, 71, 72, 73, 74, 75, 76, 77, 78, 79, 80, 81, 82, 83, 84, 85, 86, 87, 88, 89, 90, 91, 92, 93, 94, 95, 96, 97, 98, 99, 100, 101, 102, 103, 104, 105, 106, 107, 108, 109, 110, 111, 112, 113, 114, 115, 116, 117, 118, 119, 120, 121, 122, 123, 124, 125, 126, 127, 128, 129, 130, 131, 132, 133, 134, 135, 136, 137, 138, 139, 140, 141, 142, 143, 144, 145, 146, 147, 148, 149, 150, 151, 152, 153, 154, 155, 156, 157, 158, 159, 160, 161, 162, 163, 164, 165, 166, 167, 168, 169, 170, 171, 172, 173, 174, 175, 176, 177, 178, 179, 180, 181, 182, 183, 184, 185, 186, 187, 188, 189, 190, 191, 192, 193, 194, 195, 196, 197, 198, 199, 200, 201, 202, 203, 204, 205, 206, 207, 208, 209, 210, 211, 212, 213, 214, 215, 216, 217, 218, 219, 220, 221, 222, 223, 224, 225, 226, 227, 228, 229, 230, 231, 232, 233, 234, 235, 236, 237, 238, 239, 240, 241, 242, 243, 244, 245, 246, 247, 248, 249, 250, 251, 252, 253, 254, 255, 256, 257, 258, 259, 260, 261, 262, 263, 264, 265, 266, 267, 268, 269, 270, 271, 272, 273, 274, 275, 276, 277, 278, 279, 280, 281, 282, 283, 284, 285, 286, 287, 288, 289, 290, 291, 292, 293, 294, 295, 296, 297, 298, 299, 300],
      "AcquisitionTime": ["150233.647500", "150234.647500", "150235.647500", "150236.647500", "150237.647500", "150238.647500", "150239.647500", "150240.647500", "150241.647500", "150242.647500", "150243.647500", "150244.647500", "150245.647500", "150246.647500", "150247.647500", "150248.647500", "150249.647500", "150250.647500", "150251.647500", "150252.647500", "150253.647500", "150254.647500", "150255.647500", "150256.647500", "150257.647500", "150258.647500", "150259.647500", "150300.647500", "150301.647500", "150302.647500", "150303.647500", "150304.647500", "150305.647500", "150306.647500", "150307.647500", "150308.647500", "150309.647500", "150310.647500", "150311.647500", "150312.647500", "150313.647500", "150314.647500", "150315.647500", "150316.647500", "150317.647500", "150318.647500", "150319.647500", "150320.647500", "150321.647500", "150322.647500", "150323.647500", "150324.647500", "150325.647500", "150326.647500", "150327.647500", "150328.647500", "150329.647500", "150330.647500", "150331.647500", "150332.647500", "150333.647500", "150334.647500", "150335.647500", "150336.647500", "150337.647500", "150338.647500", "150339.647500", "150340.647500", "150341.647500", "150342.647500", "150343.647500", "150344.647500", "150345.647500", "150346.647500", "150347.647500", "150348.647500", "150349.647500", "150350.647500", "150351.647500", "150352.647500", "150353.647500", "150354.647500", "150355.647500", "150356.647500", "150357.647500", "150358.647500", "150359.647500", "150400.647500", "150401.647500", "150402.647500", "150403.647500", "150404.647500", "150405.647500", "150406.647500", "150407.647500", "150408.647500", "150409.647500", "150410.647500", "150411.647500", "150412.647500", "150413.647500", "150414.647500", "150415.647500", "150416.647500", "150417.647500", "150418.647500", "150419.647500", "150420.647500", "150421.647500", "150422.647500", "150423.647500", "150424.647500", "150425.647500", "150426.647500", "150427.647500", "150428.647500", "150429.647500", "150430.647500", "150431.647500", "150432.647500", "150433.647500", "150434.647500", "150435.647500", "150436.647500", "150437.647500", "150438.647500", "150439.647500", "150440.647500", "150441.647500", "150442.647500", "150443.647500", "150444.647500", "150445.647500", "150446.647500", "150447.647500", "150448.647500", "150449.647500", "150450.647500", "150451.647500", "150452.647500", "150453.647500", "150454.647500", "150455.647500", "150456.647500", "150457.647500", "150458.647500", "150459.647500", "150500.647500", "150501.647500", "150502.647500", "150503.647500", "150504.647500", "150505.647500", "150506.647500", "150507.647500", "150508.647500", "150509.647500", "150510.647500", "150511.647500", "150512.647500", "150513.647500", "150514.647500", "150515.647500", "150516.647500", "150517.647500", "150518.647500", "150519.647500", "150520.647500", "150521.647500", "150522.647500", "150523.647500", "150524.647500", "150525.647500", "150526.647500", "150527.647500", "150528.647500", "150529.647500", "150530.647500", "150531.647500", "150532.647500", "150533.647500", "150534.647500", "150535.647500", "150536.647500", "150537.647500", "150538.647500", "150539.647500", "150540.647500", "150541.647500", "150542.647500", "150543.647500", "150544.647500", "150545.647500", "150546.647500", "150547.647500", "150548.647500", "150549.647500", "150550.647500", "150551.647500", "150552.647500", "150553.647500", "150554.647500", "150555.647500", "150556.647500", "150557.647500", "150558.647500", "150559.647500", "150600.647500", "150601.647500", "150602.647500", "150603.647500", "150604.647500", "150605.647500", "150606.647500", "150607.647500", "150608.647500", "150609.647500", "150610.647500", "150611.647500", "150612.647500", "150613.647500", "150614.647500", "150615.647500", "150616.647500", "150617.647500", "150618.647500", "150619.647500", "150620.647500", "150621.647500", "150622.647500", "150623.647500", "150624.647500", "150625.647500", "150626.647500", "150627.647500", "150628.647500", "150629.647500", "150630.647500", "150631.647500", "150632.647500", "150633.647500", "150634.647500", "150635.647500", "150636.647500", "150637.647500", "150638.647500", "150639.647500", "150640.647500", "150641.647500", "150642.647500", "150643.647500", "150644.647500", "150645.647500", "150646.647500", "150647.647500", "150648.647500", "150649.647500", "150650.647500", "150651.647500", "150652.647500", "150653.647500", "150654.647500", "150655.647500", "150656.647500", "150657.647500", "150658.647500", "150659.647500", "150700.647500", "150701.647500", "150702.647500", "150703.647500", "150704.647500", "150705.647500", "150706.647500", "150707.647500", "150708.647500", "150709.647500", "150710.647500", "150711.647500", "150712.647500", "150713.647500", "150714.647500", "150715.647500", "150716.647500", "150717.647500", "150718.647500", "150719.647500", "150720.647500", "150721.647500", "150722.647500", "150723.647500", "150724.647500", "150725.647500", "150726.647500", "150727.647500", "150728.647500", "150729.647500", "150730.647500", "150731.647500", "150732.647500"],
      "ContentTime": ["150342.214000", "150342.218000", "150342.230000", "150342.234000", "150342.237000", "150342.240000", "150342.243000", "150342.246000", "150342.249000", "150342.259000", "150342.262000", "150342.265000", "150342.268000", "150342.271000", "150342.274000", "150342.277000", "150342.280000", "150342.283000", "150342.286000", "150342.289000", "150342.292000", "150342.295000", "150342.298000", "150342.301000", "150342.305000", "150342.308000", "150342.311000", "150402.182000", "150402.185000", "150402.188000", "150402.191000", "150402.197000", "150402.200000", "150402.203000", "150402.206000", "150402.209000", "150402.212000", "150402.215000", "150402.222000", "150402.225000", "150402.229000", "150402.232000", "150402.235000", "150402.238000", "150402.241000", "150402.244000", "150402.247000", "150402.250000", "150402.253000", "150402.256000", "150402.259000", "150402.262000", "150402.265000", "150402.268000", "150402.271000", "150402.274000", "150422.182000", "150422.185000", "150422.188000", "150422.191000", "150422.194000", "150422.198000", "150422.201000", "150422.204000", "150422.207000", "150422.210000", "150422.213000", "150422.216000", "150422.219000", "150422.222000", "150422.225000", "150422.239000", "150422.242000", "150422.245000", "150422.248000", "150422.251000", "150422.254000", "150422.257000", "150422.260000", "150422.263000", "150422.266000", "150422.269000", "150422.273000", "150422.276000", "150442.181000", "150442.184000", "150442.187000", "150442.190000", "150442.193000", "150442.196000", "150442.199000", "150442.203000", "150442.206000", "150442.209000", "150442.212000", "150442.215000", "150442.218000", "150442.221000", "150442.224000", "150442.227000", "150442.230000", "150442.233000", "150442.236000", "150442.240000", "150442.243000", "150442.246000", "150442.249000", "150442.252000", "150442.255000", "150442.258000", "150442.261000", "150442.264000", "150442.267000", "150502.181000", "150502.184000", "150502.187000", "150502.190000", "150502.193000", "150502.197000", "150502.200000", "150502.203000", "150502.206000", "150502.209000", "150502.212000", "150502.215000", "150502.218000", "150502.221000", "150502.224000", "150502.227000", "150502.230000", "150502.233000", "150502.236000", "150502.239000", "150502.242000", "150502.245000", "150502.248000", "150502.251000", "150502.255000", "150502.258000", "150502.261000", "150502.264000", "150522.181000", "150522.184000", "150522.187000", "150522.190000", "150522.193000", "150522.197000", "150522.200000", "150522.203000", "150522.206000", "150522.209000", "150522.212000", "150522.215000", "150522.218000", "150522.221000", "150522.224000", "150522.227000", "150522.230000", "150522.233000", "150522.236000", "150522.239000", "150522.243000", "150522.246000", "150522.249000", "150522.252000", "150522.255000", "150522.258000", "150542.181000", "150542.184000", "150542.188000", "150542.191000", "150542.194000", "150542.197000", "150542.200000", "150542.203000", "150542.206000", "150542.209000", "150542.212000", "150542.215000", "150542.218000", "150542.221000", "150542.224000", "150542.227000", "150542.230000", "150542.233000", "150542.236000", "150542.240000", "150602.182000", "150602.185000", "150602.188000", "150602.192000", "150602.195000", "150602.198000", "150602.201000", "150602.204000", "150602.207000", "150602.210000", "150602.213000", "150602.216000", "150602.219000", "150602.222000", "150602.225000", "150602.228000", "150602.231000", "150602.234000", "150602.238000", "150602.241000", "150622.182000", "150622.185000", "150622.188000", "150622.192000", "150622.195000", "150622.198000", "150622.201000", "150622.204000", "150622.207000", "150622.210000", "150622.213000", "150622.216000", "150622.219000", "150622.222000", "150622.225000", "150622.228000", "150622.231000", "150622.234000", "150622.238000", "150622.241000", "150642.182000", "150642.185000", "150642.188000", "150642.191000", "150642.194000", "150642.198000", "150642.201000", "150642.204000", "150642.207000", "150642.210000", "150642.213000", "150642.216000", "150642.219000", "150642.222000", "150642.225000", "150642.239000", "150642.242000", "150642.245000", "150642.248000", "150642.251000", "150702.181000", "150702.184000", "150702.187000", "150702.191000", "150702.194000", "150702.197000", "150702.200000", "150702.203000", "150702.206000", "150702.209000", "150702.212000", "150702.215000", "150702.218000", "150702.221000", "150702.224000", "150702.227000", "150702.231000", "150702.241000", "150702.244000", "150702.247000", "150722.181000", "150722.184000", "150722.188000", "150722.191000", "150722.194000", "150722.197000", "150722.200000", "150722.203000", "150722.206000", "150722.209000", "150722.212000", "150722.215000", "150722.218000", "150722.221000", "150722.225000", "150722.228000", "150722.231000", "150722.234000", "150722.237000", "150722.240000", "150734.804000", "150734.808000", "150734.811000", "150734.814000", "150734.817000", "150734.820000", "150734.823000", "150734.826000", "150734.829000", "150734.833000", "150734.836000", "150734.839000", "150734.842000"],
      "InstanceCreationTime": ["150342.214000", "150342.218000", "150342.230000", "150342.234000", "150342.237000", "150342.240000", "150342.243000", "150342.246000", "150342.249000", "150342.259000", "150342.262000", "150342.265000", "150342.268000", "150342.271000", "150342.274000", "150342.277000", "150342.280000", "150342.283000", "150342.286000", "150342.289000", "150342.292000", "150342.295000", "150342.298000", "150342.301000", "150342.305000", "150342.308000", "150342.311000", "150402.182000", "150402.185000", "150402.188000", "150402.191000", "150402.197000", "150402.200000", "150402.203000", "150402.206000", "150402.209000", "150402.212000", "150402.215000", "150402.222000", "150402.225000", "150402.229000", "150402.232000", "150402.235000", "150402.238000", "150402.241000", "150402.244000", "150402.247000", "150402.250000", "150402.253000", "150402.256000", "150402.259000", "150402.262000", "150402.265000", "150402.268000", "150402.271000", "150402.274000", "150422.182000", "150422.185000", "150422.188000", "150422.191000", "150422.194000", "150422.198000", "150422.201000", "150422.204000", "150422.207000", "150422.210000", "150422.213000", "150422.216000", "150422.219000", "150422.222000", "150422.225000", "150422.239000", "150422.242000", "150422.245000", "150422.248000", "150422.251000", "150422.254000", "150422.257000", "150422.260000", "150422.263000", "150422.266000", "150422.269000", "150422.273000", "150422.276000", "150442.181000", "150442.184000", "150442.187000", "150442.190000", "150442.193000", "150442.196000", "150442.199000", "150442.203000", "150442.206000", "150442.209000", "150442.212000", "150442.215000", "150442.218000", "150442.221000", "150442.224000", "150442.227000", "150442.230000", "150442.233000", "150442.236000", "150442.240000", "150442.243000", "150442.246000", "150442.249000", "150442.252000", "150442.255000", "150442.258000", "150442.261000", "150442.264000", "150442.267000", "150502.181000", "150502.184000", "150502.187000", "150502.190000", "150502.193000", "150502.197000", "150502.200000", "150502.203000", "150502.206000", "150502.209000", "150502.212000", "150502.215000", "150502.218000", "150502.221000", "150502.224000", "150502.227000", "150502.230000", "150502.233000", "150502.236000", "150502.239000", "150502.242000", "150502.245000", "150502.248000", "150502.251000", "150502.255000", "150502.258000", "150502.261000", "150502.264000", "150522.181000", "150522.184000", "150522.187000", "150522.190000", "150522.193000", "150522.197000", "150522.200000", "150522.203000", "150522.206000", "150522.209000", "150522.212000", "150522.215000", "150522.218000", "150522.221000", "150522.224000", "150522.227000", "150522.230000", "150522.233000", "150522.236000", "150522.239000", "150522.243000", "150522.246000", "150522.249000", "150522.252000", "150522.255000", "150522.258000", "150542.181000", "150542.184000", "150542.188000", "150542.191000", "150542.194000", "150542.197000", "150542.200000", "150542.203000", "150542.206000", "150542.209000", "150542.212000", "150542.215000", "150542.218000", "150542.221000", "150542.224000", "150542.227000", "150542.230000", "150542.233000", "150542.236000", "150542.240000", "150602.182000", "150602.185000", "150602.188000", "150602.192000", "150602.195000", "150602.198000", "150602.201000", "150602.204000", "150602.207000", "150602.210000", "150602.213000", "150602.216000", "150602.219000", "150602.222000", "150602.225000", "150602.228000", "150602.231000", "150602.234000", "150602.238000", "150602.241000", "150622.182000", "150622.185000", "150622.188000", "150622.192000", "150622.195000", "150622.198000", "150622.201000", "150622.204000", "150622.207000", "150622.210000", "150622.213000", "150622.216000", "150622.219000", "150622.222000", "150622.225000", "150622.228000", "150622.231000", "150622.234000", "150622.238000", "150622.241000", "150642.182000", "150642.185000", "150642.188000", "150642.191000", "150642.194000", "150642.198000", "150642.201000", "150642.204000", "150642.207000", "150642.210000", "150642.213000", "150642.216000", "150642.219000", "150642.222000", "150642.225000", "150642.239000", "150642.242000", "150642.245000", "150642.248000", "150642.251000", "150702.181000", "150702.184000", "150702.187000", "150702.191000", "150702.194000", "150702.197000", "150702.200000", "150702.203000", "150702.206000", "150702.209000", "150702.212000", "150702.215000", "150702.218000", "150702.221000", "150702.224000", "150702.227000", "150702.231000", "150702.241000", "150702.244000", "150702.247000", "150722.181000", "150722.184000", "150722.188000", "150722.191000", "150722.194000", "150722.197000", "150722.200000", "150722.203000", "150722.206000", "150722.209000", "150722.212000", "150722.215000", "150722.218000", "150722.221000", "150722.225000", "150722.228000", "150722.231000", "150722.234000", "150722.237000", "150722.240000", "150734.804000", "150734.808000", "150734.811000", "150734.814000", "150734.817000", "150734.820000", "150734.823000", "150734.826000", "150734.829000", "150734.833000", "150734.836000", "150734.839000", "150734.842000"],
      "InstanceNumber": [1, 2, 3, 4, 5, 6, 7, 8, 9, 10, 11, 12, 13, 14, 15, 16, 17, 18, 19, 20, 21, 22, 23, 24, 25, 26, 27, 28, 29, 30, 31, 32, 33, 34, 35, 36, 37, 38, 39, 40, 41, 42, 43, 44, 45, 46, 47, 48, 49, 50, 51, 52, 53, 54, 55, 56, 57, 58, 59, 60, 61, 62, 63, 64, 65, 66, 67, 68, 69, 70, 71, 72, 73, 74, 75, 76, 77, 78, 79, 80, 81, 82, 83, 84, 85, 86, 87, 88, 89, 90, 91, 92, 93, 94, 95, 96, 97, 98, 99, 100, 101, 102, 103, 104, 105, 106, 107, 108, 109, 110, 111, 112, 113, 114, 115, 116, 117, 118, 119, 120, 121, 122, 123, 124, 125, 126, 127, 128, 129, 130, 131, 132, 133, 134, 135, 136, 137, 138, 139, 140, 141, 142, 143, 144, 145, 146, 147, 148, 149, 150, 151, 152, 153, 154, 155, 156, 157, 158, 159, 160, 161, 162, 163, 164, 165, 166, 167, 168, 169, 170, 171, 172, 173, 174, 175, 176, 177, 178, 179, 180, 181, 182, 183, 184, 185, 186, 187, 188, 189, 190, 191, 192, 193, 194, 195, 196, 197, 198, 199, 200, 201, 202, 203, 204, 205, 206, 207, 208, 209, 210, 211, 212, 213, 214, 215, 216, 217, 218, 219, 220, 221, 222, 223, 224, 225, 226, 227, 228, 229, 230, 231, 232, 233, 234, 235, 236, 237, 238, 239, 240, 241, 242, 243, 244, 245, 246, 247, 248, 249, 250, 251, 252, 253, 254, 255, 256, 257, 258, 259, 260, 261, 262, 263, 264, 265, 266, 267, 268, 269, 270, 271, 272, 273, 274, 275, 276, 277, 278, 279, 280, 281, 282, 283, 284, 285, 286, 287, 288, 289, 290, 291, 292, 293, 294, 295, 296, 297, 298, 299, 300],
      "LargestImagePixelValue": [36344, 36688, 36252, 35083, 34437, 36175, 34685, 34183, 35496, 36748, 36466, 33095, 35535, 35844, 35821, 35606, 34898, 34706, 36174, 35440, 33883, 36235, 35339, 32797, 33541, 34138, 33849, 33634, 36087, 35359, 35016, 35709, 36616, 35437, 35417, 35703, 35825, 35218, 35894, 36027, 35209, 36410, 36462, 35439, 36410, 36446, 35164, 34758, 36282, 35424, 34085, 36513, 36302, 34733, 36870, 36047, 34995, 36096, 36422, 35503, 34863, 36728, 36211, 35126, 35996, 36391, 36483, 35271, 35145, 36275, 36060, 34851, 35524, 36379, 35520, 35423, 35819, 36292, 34566, 36327, 36110, 35909, 35978, 36236, 36252, 35660, 36269, 35919, 35538, 35758, 36391, 35911, 36520, 36213, 35839, 35604, 35784, 36047, 35946, 35931, 36521, 35967, 35315, 35804, 36429, 35712, 36112, 36247, 36626, 35933, 36251, 36421, 35955, 36133, 36441, 35984, 35934, 35937, 36091, 35644, 35893, 35755, 35985, 35901, 36754, 35817, 36016, 34738, 35689, 36137, 35314, 34796, 36269, 36786, 34829, 36031, 35943, 35321, 35122, 36654, 36031, 34827, 36028, 36270, 35559, 35894, 36305, 36271, 35324, 35913, 36360, 35843, 35213, 36366, 34954, 35683, 35748, 36452, 35166, 34971, 36412, 35947, 35402, 36050, 35597, 35351, 36349, 35500, 34028, 34744, 36001, 34483, 33820, 35726, 35636, 33923, 35261, 36249, 34425, 35292, 36132, 34456, 34667, 35847, 35743, 34857, 35737, 36249, 35916, 35723, 35533, 36011, 36037, 34808, 35225, 36055, 35492, 34151, 35553, 35544, 35159, 35984, 35458, 34747, 36273, 35789, 35421, 35920, 35294, 35087, 35706, 36491, 35488, 35234, 35798, 35236, 33879, 35168, 36644, 36161, 35611, 36066, 35974, 34626, 35565, 35795, 35550, 35143, 36039, 35478, 35338, 35391, 35848, 35467, 35518, 35860, 35826, 36387, 34519, 36057, 36371, 35393, 36409, 35335, 35961, 35625, 36461, 34957, 35199, 36446, 35972, 35180, 35309, 36153, 35718, 36374, 36148, 35939, 35016, 35647, 35679, 35826, 35237, 36021, 36134, 35729, 36431, 35738, 35590, 35628, 36505, 36181, 34946, 35614, 36144, 34999, 35716, 36363, 35578, 35507, 35603, 35885, 35333, 36407, 36416, 36194, 35321, 36077, 36320, 34740, 35112, 35662, 36009, 35354, 34617, 36224, 36153, 35103, 35112, 36262],
      "WindowCenter": [9544.0, 9523.0, 9503.0, 9462.0, 9449.0, 9483.0, 9466.0, 9460.0, 9461.0, 9485.0, 9438.0, 9382.0, 9454.0, 9471.0, 9443.0, 9422.0, 9401.0, 9385.0, 9408.0, 9395.0, 9372.0, 9390.0, 9372.0, 9326.0, 9344.0, 9354.0, 9349.0, 9349.0, 9394.0, 9387.0, 9389.0, 9403.0, 9423.0, 9421.0, 9432.0, 9457.0, 9460.0, 9455.0, 9457.0, 9456.0, 9435.0, 9444.0, 9461.0, 9478.0, 9510.0, 9501.0, 9466.0, 9442.0, 9448.0, 9434.0, 9405.0, 9434.0, 9434.0, 9408.0, 9432.0, 9425.0, 9400.0, 9415.0, 9414.0, 9401.0, 9405.0, 9447.0, 9452.0, 9443.0, 9440.0, 9424.0, 9397.0, 9377.0, 9385.0, 9397.0, 9405.0, 9406.0, 9435.0, 9477.0, 9471.0, 9469.0, 9461.0, 9447.0, 9414.0, 9434.0, 9427.0, 9421.0, 9420.0, 9426.0, 9427.0, 9414.0, 9408.0, 9390.0, 9392.0, 9408.0, 9430.0, 9428.0, 9441.0, 9420.0, 9403.0, 9404.0, 9421.0, 9427.0, 9437.0, 9466.0, 9501.0, 9506.0, 9493.0, 9488.0, 9476.0, 9453.0, 9449.0, 9439.0, 9435.0, 9429.0, 9411.0, 9416.0, 9404.0, 9407.0, 9405.0, 9385.0, 9392.0, 9383.0, 9397.0, 9400.0, 9416.0, 9427.0, 9431.0, 9430.0, 9402.0, 9440.0, 9437.0, 9444.0, 9476.0, 9475.0, 9463.0, 9432.0, 9428.0, 9414.0, 9392.0, 9416.0, 9420.0, 9418.0, 9433.0, 9441.0, 9418.0, 9390.0, 9396.0, 9404.0, 9393.0, 9424.0, 9441.0, 9443.0, 9425.0, 9429.0, 9434.0, 9454.0, 9455.0, 9479.0, 9440.0, 9432.0, 9421.0, 9423.0, 9407.0, 9418.0, 9461.0, 9449.0, 9441.0, 9419.0, 9387.0, 9385.0, 9401.0, 9398.0, 9404.0, 9453.0, 9491.0, 9471.0, 9449.0, 9460.0, 9426.0, 9392.0, 9399.0, 9417.0, 9395.0, 9391.0, 9407.0, 9382.0, 9382.0, 9399.0, 9402.0, 9401.0, 9413.0, 9407.0, 9393.0, 9394.0, 9428.0, 9474.0, 9494.0, 9478.0, 9470.0, 9479.0, 9456.0, 9422.0, 9431.0, 9427.0, 9422.0, 9424.0, 9417.0, 9404.0, 9405.0, 9397.0, 9397.0, 9402.0, 9406.0, 9424.0, 9439.0, 9452.0, 9442.0, 9442.0, 9433.0, 9433.0, 9417.0, 9447.0, 9471.0, 9457.0, 9443.0, 9454.0, 9450.0, 9451.0, 9461.0, 9457.0, 9433.0, 9427.0, 9440.0, 9418.0, 9410.0, 9416.0, 9431.0, 9449.0, 9481.0, 9499.0, 9500.0, 9492.0, 9445.0, 9450.0, 9437.0, 9420.0, 9426.0, 9401.0, 9414.0, 9405.0, 9415.0, 9391.0, 9389.0, 9406.0, 9400.0, 9396.0, 9406.0, 9409.0, 9402.0, 9431.0, 9447.0, 9467.0, 9487.0, 9504.0, 9497.0, 9490.0, 9468.0, 9471.0, 9461.0, 9450.0, 9459.0, 9443.0, 9437.0, 9424.0, 9440.0, 9432.0, 9408.0, 9417.0, 9423.0, 9405.0, 9415.0, 9420.0, 9399.0, 9406.0, 9416.0, 9441.0, 9448.0, 9466.0, 9455.0, 9421.0, 9399.0, 9418.0, 9436.0, 9438.0, 9450.0, 9448.0, 9444.0, 9440.0, 9444.0, 9478.0, 9480.0, 9470.0, 9462.0, 9464.0],
