{
  "AcquisitionMatrixPE": 104,
  "AcquisitionNumber": 1,
  "AcquisitionTime": "14:59:11.452500",
  "BandwidthPerPixelPhaseEncode": 16.297,
  "BaseResolution": 104,
  "BodyPartExamined": "BRAIN",
  "ConsistencyInfo": "N4_VE11C_LATEST_20160120",
  "ConversionSoftware": "dcm2niix",
  "ConversionSoftwareVersion": "v1.0.20190902",
  "DerivedVendorReportedEchoSpacing": 0.000590009,
  "DeviceSerialNumber": "166018",
  "DwellTime": 2.1e-06,
  "EchoTime": 0.0376,
  "EchoTrainLength": 104,
  "EffectiveEchoSpacing": 0.000590009,
  "FlipAngle": 68,
  "ImageComments": "Unaliased_MB6_PE3_LB",
  "ImageOrientationPatientDICOM": [0.99836, 0.0559172, -0.012309, -0.0566909, 0.935266, -0.349375],
  "ImageType": [
    "ORIGINAL",
    "PRIMARY",
    "M",
    "MB",
    "ND",
    "MOSAIC"
],
  "ImagingFrequency": 123.191,
  "InPlanePhaseEncodingDirectionDICOM": "COL",
  "InstitutionAddress": "Washington_Place_6_NYC_NYC_US_10003",
  "InstitutionName": "NYU_-_CBI",
  "InstitutionalDepartmentName": "Department",
  "MRAcquisitionType": "2D",
  "MagneticFieldStrength": 3,
  "Manufacturer": "Siemens",
  "ManufacturersModelName": "Prisma",
  "Modality": "MR",
  "MultibandAccelerationFactor": 6,
  "PartialFourier": 1,
  "PatientPosition": "HFS",
  "PercentPhaseFOV": 100,
  "PhaseEncodingDirection": "j",
  "PhaseEncodingSteps": 104,
  "PhaseResolution": 1,
  "PixelBandwidth": 2290,
  "ProcedureStepDescription": "Investigators_Winawer",
  "ProtocolName": "cmrr_mbepi_s6_2mm_66sl_PA_task-prf",
  "PulseSequenceDetails": "%CustomerSeq%_cmrr_mbep2d_bold",
  "ReceiveCoilActiveElements": "HC1-7",
  "ReceiveCoilName": "HeadNeck_64",
  "ReconMatrixPE": 104,
  "RepetitionTime": 1,
  "SAR": 0.0804201,
  "ScanOptions": "FS",
  "ScanningSequence": "EP",
  "SequenceName": "epfid2d1_104",
  "SequenceVariant": "SK_SS",
  "SeriesDescription": "cmrr_mbepi_s6_2mm_66sl_PA_task-prf",
  "SeriesNumber": 14,
  "ShimSetting": [249, -12614, -8470, 335, -60, 1, -170, 15],
  "SliceThickness": 2,
  "SliceTiming": [0, 0.535, 0.09, 0.625, 0.1775, 0.7125, 0.2675, 0.8025, 0.3575, 0.89, 0.445, 0, 0.535, 0.09, 0.625, 0.1775, 0.7125, 0.2675, 0.8025, 0.3575, 0.89, 0.445, 0, 0.535, 0.09, 0.625, 0.1775, 0.7125, 0.2675, 0.8025, 0.3575, 0.89, 0.445, 0, 0.535, 0.09, 0.625, 0.1775, 0.7125, 0.2675, 0.8025, 0.3575, 0.89, 0.445, 0, 0.535, 0.09, 0.625, 0.1775, 0.7125, 0.2675, 0.8025, 0.3575, 0.89, 0.445, 0, 0.535, 0.09, 0.625, 0.1775, 0.7125, 0.2675, 0.8025, 0.3575, 0.89, 0.445],
  "SoftwareVersions": "syngo_MR_E11",
  "SpacingBetweenSlices": 2,
  "StationName": "AWP166018",
  "TaskName": "prf",
  "TotalReadoutTime": 0.060771,
  "TxRefAmp": 220.127,
  "VendorReportedEchoSpacing": 0.00059,
  "WipMemBlock": "06bd8f8f-d9f1-47b1-9ba1-3d34c31d127a||Sequence: R016 ve11c/master r/8780670; Nov 27 2017 15:05:12 by eja",
  "dcmmeta_affine": [
    [-1.9967191219329834, -0.11338188499212265, 0.0160477627068758, 112.6077651977539],
    [-0.11183441430330276, 1.8705328702926636, -0.6989991664886475, -52.648216247558594],
    [-0.024617986753582954, 0.698749840259552, 1.8738043308258057, -79.51685333251953],
    [0.0, 0.0, 0.0, 1.0]
],
  "dcmmeta_reorient_transform": [
    [0.0, -1.0, 0.0, 103.0],
    [1.0, 0.0, 0.0, 0.0],
    [0.0, 0.0, 1.0, 0.0],
    [0.0, 0.0, 0.0, 1.0]
],
  "dcmmeta_shape": [104, 104, 66, 192],
  "dcmmeta_slice_dim": 2,
  "dcmmeta_version": 0.6,
  "global": {
    "const": {
      "AccessionNumber": "kgzydrd5",
      "AcquisitionMatrix": [104, 0, 0, 104],
      "AngioFlag": "N",
      "BitsAllocated": 16,
      "BitsStored": 16,
      "BodyPartExamined": "BRAIN",
      "Columns": 936,
      "EchoNumbers": 1,
      "EchoTime": 37.6,
      "EchoTrainLength": 104,
      "FlipAngle": 68.0,
      "HighBit": 15,
      "ImageOrientationPatient": [0.99835953165049, 0.0559172087559, -0.0123089937674, -0.0566909418883, 0.93526643619879, -0.3493749138502],
      "ImagePositionPatient": [-884.39769588002, -964.68146253941, 293.37539381673],
      "ImageType": [
        "ORIGINAL",
        "PRIMARY",
        "M",
        "MB",
        "ND",
        "MOSAIC"
],
      "ImagedNucleus": "1H",
      "ImagingFrequency": 123.190656,
      "InPlanePhaseEncodingDirection": "COL",
      "MRAcquisitionType": "2D",
      "MagneticFieldStrength": 3.0,
      "Manufacturer": "SIEMENS",
      "ManufacturerModelName": "Prisma",
      "Modality": "MR",
      "NumberOfAverages": 1.0,
      "NumberOfPhaseEncodingSteps": 104,
      "PercentPhaseFieldOfView": 100.0,
      "PercentSampling": 100.0,
      "PerformedProcedureStepStartTime": "144050.199000",
      "PhotometricInterpretation": "MONOCHROME2",
      "PixelBandwidth": 2290.0,
      "PixelRepresentation": 0,
      "PixelSpacing": [2.0, 2.0],
      "ProtocolName": "cmrr_mbepi_s6_2mm_66sl_PA_task-prf",
      "RepetitionTime": 1000.0,
      "Rows": 936,
      "SAR": 0.08042010759944,
      "SamplesPerPixel": 1,
      "ScanOptions": "FS",
      "ScanningSequence": "EP",
      "SequenceName": "epfid2d1_104",
      "SequenceVariant": [
        "SK",
        "SS"
],
      "SeriesDescription": "cmrr_mbepi_s6_2mm_66sl_PA_task-prf",
      "SeriesNumber": 14,
      "SeriesTime": "150025.139000",
      "SliceLocation": -55.195427284566,
      "SliceThickness": 2.0,
      "SmallestImagePixelValue": 0,
      "SoftwareVersions": "syngo MR E11",
      "SpacingBetweenSlices": 1.9999999791008,
      "SpecificCharacterSet": "ISO_IR 100",
      "StudyID": "1",
      "StudyTime": "144050.137000",
      "TransmitCoilName": "Body",
      "VariableFlipAngleFlag": "N",
      "WindowCenterWidthExplanation": "Algo1",
      "dBdt": 0.0},
    "slices": {}
  },
  "time": {
    "samples": {
      "AcquisitionNumber": [1, 2, 3, 4, 5, 6, 7, 8, 9, 10, 11, 12, 13, 14, 15, 16, 17, 18, 19, 20, 21, 22, 23, 24, 25, 26, 27, 28, 29, 30, 31, 32, 33, 34, 35, 36, 37, 38, 39, 40, 41, 42, 43, 44, 45, 46, 47, 48, 49, 50, 51, 52, 53, 54, 55, 56, 57, 58, 59, 60, 61, 62, 63, 64, 65, 66, 67, 68, 69, 70, 71, 72, 73, 74, 75, 76, 77, 78, 79, 80, 81, 82, 83, 84, 85, 86, 87, 88, 89, 90, 91, 92, 93, 94, 95, 96, 97, 98, 99, 100, 101, 102, 103, 104, 105, 106, 107, 108, 109, 110, 111, 112, 113, 114, 115, 116, 117, 118, 119, 120, 121, 122, 123, 124, 125, 126, 127, 128, 129, 130, 131, 132, 133, 134, 135, 136, 137, 138, 139, 140, 141, 142, 143, 144, 145, 146, 147, 148, 149, 150, 151, 152, 153, 154, 155, 156, 157, 158, 159, 160, 161, 162, 163, 164, 165, 166, 167, 168, 169, 170, 171, 172, 173, 174, 175, 176, 177, 178, 179, 180, 181, 182, 183, 184, 185, 186, 187, 188, 189, 190, 191, 192],
      "AcquisitionTime": ["145911.452500", "145912.452500", "145913.452500", "145914.452500", "145915.452500", "145916.452500", "145917.452500", "145918.452500", "145919.452500", "145920.452500", "145921.452500", "145922.452500", "145923.452500", "145924.452500", "145925.452500", "145926.452500", "145927.452500", "145928.452500", "145929.452500", "145930.452500", "145931.452500", "145932.452500", "145933.452500", "145934.452500", "145935.452500", "145936.452500", "145937.452500", "145938.452500", "145939.452500", "145940.452500", "145941.452500", "145942.452500", "145943.452500", "145944.452500", "145945.452500", "145946.452500", "145947.452500", "145948.452500", "145949.452500", "145950.452500", "145951.452500", "145952.452500", "145953.452500", "145954.452500", "145955.452500", "145956.452500", "145957.452500", "145958.452500", "145959.452500", "150000.452500", "150001.452500", "150002.452500", "150003.452500", "150004.452500", "150005.452500", "150006.452500", "150007.452500", "150008.452500", "150009.452500", "150010.452500", "150011.452500", "150012.452500", "150013.452500", "150014.452500", "150015.452500", "150016.452500", "150017.452500", "150018.452500", "150019.452500", "150020.452500", "150021.452500", "150022.452500", "150023.452500", "150024.452500", "150025.452500", "150026.452500", "150027.452500", "150028.452500", "150029.452500", "150030.452500", "150031.452500", "150032.452500", "150033.452500", "150034.452500", "150035.452500", "150036.452500", "150037.452500", "150038.452500", "150039.452500", "150040.452500", "150041.452500", "150042.452500", "150043.452500", "150044.452500", "150045.452500", "150046.452500", "150047.452500", "150048.452500", "150049.452500", "150050.452500", "150051.452500", "150052.452500", "150053.452500", "150054.452500", "150055.452500", "150056.452500", "150057.452500", "150058.452500", "150059.452500", "150100.452500", "150101.452500", "150102.452500", "150103.452500", "150104.452500", "150105.452500", "150106.452500", "150107.452500", "150108.452500", "150109.452500", "150110.452500", "150111.452500", "150112.452500", "150113.452500", "150114.452500", "150115.452500", "150116.452500", "150117.452500", "150118.452500", "150119.452500", "150120.452500", "150121.452500", "150122.452500", "150123.452500", "150124.452500", "150125.452500", "150126.452500", "150127.452500", "150128.452500", "150129.452500", "150130.452500", "150131.452500", "150132.452500", "150133.452500", "150134.452500", "150135.452500", "150136.452500", "150137.452500", "150138.452500", "150139.452500", "150140.452500", "150141.452500", "150142.452500", "150143.452500", "150144.452500", "150145.452500", "150146.452500", "150147.452500", "150148.452500", "150149.452500", "150150.452500", "150151.452500", "150152.452500", "150153.452500", "150154.452500", "150155.452500", "150156.452500", "150157.452500", "150158.452500", "150159.452500", "150200.452500", "150201.452500", "150202.452500", "150203.452500", "150204.452500", "150205.452500", "150206.452500", "150207.452500", "150208.452500", "150209.452500", "150210.452500", "150211.452500", "150212.452500", "150213.452500", "150214.452500", "150215.452500", "150216.452500", "150217.452500", "150218.452500", "150219.452500", "150220.452500", "150221.452500", "150222.452500"],
      "ContentTime": ["150025.142000", "150025.146000", "150025.149000", "150025.152000", "150025.154000", "150025.157000", "150025.160000", "150025.163000", "150025.166000", "150025.169000", "150025.172000", "150025.175000", "150025.178000", "150025.181000", "150025.184000", "150025.189000", "150025.192000", "150025.195000", "150025.198000", "150025.201000", "150025.204000", "150025.206000", "150025.209000", "150025.212000", "150025.215000", "150025.218000", "150025.221000", "150025.224000", "150025.227000", "150025.230000", "150025.233000", "150025.236000", "150025.238000", "150045.102000", "150045.105000", "150045.108000", "150045.111000", "150045.114000", "150045.116000", "150045.119000", "150045.122000", "150045.125000", "150045.128000", "150045.131000", "150045.134000", "150045.137000", "150045.139000", "150045.142000", "150045.145000", "150045.148000", "150045.151000", "150045.154000", "150045.157000", "150045.160000", "150045.163000", "150045.166000", "150045.168000", "150045.171000", "150045.181000", "150045.184000", "150045.186000", "150105.101000", "150105.104000", "150105.107000", "150105.110000", "150105.113000", "150105.115000", "150105.118000", "150105.121000", "150105.124000", "150105.127000", "150105.130000", "150105.133000", "150105.136000", "150105.139000", "150105.142000", "150105.144000", "150105.147000", "150105.150000", "150105.153000", "150105.156000", "150105.162000", "150105.164000", "150105.167000", "150105.180000", "150105.183000", "150105.186000", "150105.189000", "150105.191000", "150125.101000", "150125.104000", "150125.107000", "150125.110000", "150125.113000", "150125.115000", "150125.118000", "150125.121000", "150125.124000", "150125.127000", "150125.130000", "150125.133000", "150125.136000", "150125.139000", "150125.141000", "150125.152000", "150125.154000", "150125.157000", "150125.160000", "150125.163000", "150125.166000", "150125.169000", "150125.172000", "150125.175000", "150125.178000", "150125.181000", "150125.183000", "150125.186000", "150125.189000", "150145.101000", "150145.104000", "150145.107000", "150145.110000", "150145.112000", "150145.115000", "150145.118000", "150145.121000", "150145.124000", "150145.127000", "150145.130000", "150145.133000", "150145.136000", "150145.138000", "150145.141000", "150145.144000", "150145.147000", "150145.150000", "150145.153000", "150145.156000", "150145.159000", "150145.162000", "150145.164000", "150145.167000", "150145.170000", "150145.173000", "150145.176000", "150145.179000", "150205.101000", "150205.104000", "150205.107000", "150205.110000", "150205.113000", "150205.115000", "150205.118000", "150205.121000", "150205.124000", "150205.127000", "150205.130000", "150205.133000", "150205.136000", "150205.138000", "150205.141000", "150205.144000", "150205.147000", "150205.158000", "150205.160000", "150205.163000", "150205.166000", "150205.169000", "150205.172000", "150205.175000", "150205.178000", "150205.181000", "150224.490000", "150224.493000", "150224.496000", "150224.499000", "150224.502000", "150224.505000", "150224.508000", "150224.511000", "150224.514000", "150224.517000", "150224.520000", "150224.523000", "150224.526000", "150224.529000", "150224.532000", "150224.535000", "150224.537000", "150224.540000", "150224.543000", "150224.546000"],
      "InstanceCreationTime": ["150025.142000", "150025.146000", "150025.149000", "150025.152000", "150025.154000", "150025.157000", "150025.160000", "150025.163000", "150025.166000", "150025.169000", "150025.172000", "150025.175000", "150025.178000", "150025.181000", "150025.184000", "150025.189000", "150025.192000", "150025.195000", "150025.198000", "150025.201000", "150025.204000", "150025.206000", "150025.209000", "150025.212000", "150025.215000", "150025.218000", "150025.221000", "150025.224000", "150025.227000", "150025.230000", "150025.233000", "150025.236000", "150025.238000", "150045.102000", "150045.105000", "150045.108000", "150045.111000", "150045.114000", "150045.116000", "150045.119000", "150045.122000", "150045.125000", "150045.128000", "150045.131000", "150045.134000", "150045.137000", "150045.139000", "150045.142000", "150045.145000", "150045.148000", "150045.151000", "150045.154000", "150045.157000", "150045.160000", "150045.163000", "150045.166000", "150045.168000", "150045.171000", "150045.181000", "150045.184000", "150045.186000", "150105.101000", "150105.104000", "150105.107000", "150105.110000", "150105.113000", "150105.115000", "150105.118000", "150105.121000", "150105.124000", "150105.127000", "150105.130000", "150105.133000", "150105.136000", "150105.139000", "150105.142000", "150105.144000", "150105.147000", "150105.150000", "150105.153000", "150105.156000", "150105.162000", "150105.164000", "150105.167000", "150105.180000", "150105.183000", "150105.186000", "150105.189000", "150105.191000", "150125.101000", "150125.104000", "150125.107000", "150125.110000", "150125.113000", "150125.115000", "150125.118000", "150125.121000", "150125.124000", "150125.127000", "150125.130000", "150125.133000", "150125.136000", "150125.139000", "150125.141000", "150125.152000", "150125.154000", "150125.157000", "150125.160000", "150125.163000", "150125.166000", "150125.169000", "150125.172000", "150125.175000", "150125.178000", "150125.181000", "150125.183000", "150125.186000", "150125.189000", "150145.101000", "150145.104000", "150145.107000", "150145.110000", "150145.112000", "150145.115000", "150145.118000", "150145.121000", "150145.124000", "150145.127000", "150145.130000", "150145.133000", "150145.136000", "150145.138000", "150145.141000", "150145.144000", "150145.147000", "150145.150000", "150145.153000", "150145.156000", "150145.159000", "150145.162000", "150145.164000", "150145.167000", "150145.170000", "150145.173000", "150145.176000", "150145.179000", "150205.101000", "150205.104000", "150205.107000", "150205.110000", "150205.113000", "150205.115000", "150205.118000", "150205.121000", "150205.124000", "150205.127000", "150205.130000", "150205.133000", "150205.136000", "150205.138000", "150205.141000", "150205.144000", "150205.147000", "150205.158000", "150205.160000", "150205.163000", "150205.166000", "150205.169000", "150205.172000", "150205.175000", "150205.178000", "150205.181000", "150224.490000", "150224.493000", "150224.496000", "150224.499000", "150224.502000", "150224.505000", "150224.508000", "150224.511000", "150224.514000", "150224.517000", "150224.520000", "150224.523000", "150224.526000", "150224.529000", "150224.532000", "150224.535000", "150224.537000", "150224.540000", "150224.543000", "150224.546000"],
      "InstanceNumber": [1, 2, 3, 4, 5, 6, 7, 8, 9, 10, 11, 12, 13, 14, 15, 16, 17, 18, 19, 20, 21, 22, 23, 24, 25, 26, 27, 28, 29, 30, 31, 32, 33, 34, 35, 36, 37, 38, 39, 40, 41, 42, 43, 44, 45, 46, 47, 48, 49, 50, 51, 52, 53, 54, 55, 56, 57, 58, 59, 60, 61, 62, 63, 64, 65, 66, 67, 68, 69, 70, 71, 72, 73, 74, 75, 76, 77, 78, 79, 80, 81, 82, 83, 84, 85, 86, 87, 88, 89, 90, 91, 92, 93, 94, 95, 96, 97, 98, 99, 100, 101, 102, 103, 104, 105, 106, 107, 108, 109, 110, 111, 112, 113, 114, 115, 116, 117, 118, 119, 120, 121, 122, 123, 124, 125, 126, 127, 128, 129, 130, 131, 132, 133, 134, 135, 136, 137, 138, 139, 140, 141, 142, 143, 144, 145, 146, 147, 148, 149, 150, 151, 152, 153, 154, 155, 156, 157, 158, 159, 160, 161, 162, 163, 164, 165, 166, 167, 168, 169, 170, 171, 172, 173, 174, 175, 176, 177, 178, 179, 180, 181, 182, 183, 184, 185, 186, 187, 188, 189, 190, 191, 192],
      "LargestImagePixelValue": [33678, 32904, 31885, 31390, 31086, 30856, 31966, 32680, 30230, 29851, 30376, 31658, 31019, 30983, 31707, 31760, 30825, 30427, 30652, 30567, 29990, 30571, 31859, 31142, 30294, 31502, 31302, 30987, 31430, 31921, 31054, 31298, 31861, 31531, 30490, 31119, 31465, 31394, 31505, 31727, 31915, 30731, 31186, 31184, 31082, 31916, 31919, 31352, 31083, 31381, 31368, 30854, 31162, 31783, 31565, 31280, 31617, 31294, 31283, 31644, 32024, 31290, 31743, 31910, 31542, 31491, 31369, 31727, 31975, 31510, 32172, 31419, 31820, 32508, 32149, 31041, 31270, 31234, 31883, 31069, 31406, 32022, 31348, 31545, 31855, 31948, 31409, 31944, 31373, 31197, 31824, 31667, 31223, 32265, 32203, 31425, 31639, 32010, 31180, 31952, 32048, 31800, 31508, 32182, 31634, 31414, 31712, 31856, 31338, 32246, 31747, 31642, 32022, 31572, 32208, 31723, 32037, 31391, 31607, 32022, 32110, 31678, 32052, 31700, 31204, 31386, 31647, 31147, 31771, 31638, 31204, 31928, 32064, 31170, 32040, 31760, 30896, 31182, 31686, 31415, 31277, 31727, 32192, 31333, 31157, 31576, 31434, 31302, 31669, 32047, 31876, 31553, 31392, 31809, 31081, 31666, 31876, 31121, 31230, 31983, 31645, 31840, 32037, 31284, 31733, 31694, 31016, 31371, 31964, 31203, 31110, 31751, 30967, 31603, 31694, 31739, 31433, 31533, 31516, 31984, 31437, 32090, 32645, 32328, 30946, 30927, 31350, 30916, 30400, 30361, 30498, 30577],
      "WindowCenter": [9907.0, 9857.0, 9831.0, 9822.0, 9810.0, 9827.0, 9838.0, 9827.0, 9771.0, 9741.0, 9743.0, 9763.0, 9768.0, 9780.0, 9799.0, 9794.0, 9769.0, 9752.0, 9757.0, 9748.0, 9737.0, 9741.0, 9764.0, 9745.0, 9741.0, 9759.0, 9767.0, 9763.0, 9770.0, 9788.0, 9781.0, 9793.0, 9805.0, 9797.0, 9785.0, 9796.0, 9803.0, 9796.0, 9796.0, 9808.0, 9796.0, 9775.0, 9781.0, 9780.0, 9772.0, 9790.0, 9795.0, 9790.0, 9788.0, 9795.0, 9794.0, 9798.0, 9803.0, 9817.0, 9824.0, 9820.0, 9818.0, 9796.0, 9795.0, 9800.0, 9806.0, 9802.0, 9808.0, 9822.0, 9809.0, 9810.0, 9811.0, 9808.0, 9807.0, 9803.0, 9812.0, 9801.0, 9801.0, 9826.0, 9797.0, 9780.0, 9786.0, 9791.0, 9787.0, 9771.0, 9777.0, 9788.0, 9770.0, 9781.0, 9798.0, 9804.0, 9795.0, 9807.0, 9793.0, 9789.0, 9793.0, 9791.0, 9788.0, 9814.0, 9814.0, 9803.0, 9810.0, 9811.0, 9799.0, 9816.0, 9826.0, 9818.0, 9817.0, 9833.0, 9813.0, 9808.0, 9821.0, 9819.0, 9813.0, 9833.0, 9822.0, 9823.0, 9829.0, 9815.0, 9828.0, 9823.0, 9813.0, 9801.0, 9807.0, 9814.0, 9810.0, 9805.0, 9813.0, 9796.0, 9793.0, 9792.0, 9796.0, 9786.0, 9796.0, 9797.0, 9793.0, 9811.0, 9809.0, 9789.0, 9798.0, 9782.0, 9768.0, 9778.0, 9798.0, 9785.0, 9792.0, 9798.0, 9792.0, 9775.0, 9770.0, 9780.0, 9773.0, 9783.0, 9780.0, 9779.0, 9769.0, 9764.0, 9766.0, 9764.0, 9753.0, 9764.0, 9768.0, 9759.0, 9764.0, 9776.0, 9769.0, 9770.0, 9776.0, 9765.0, 9769.0, 9767.0, 9752.0, 9766.0, 9774.0, 9763.0, 9760.0, 9770.0, 9769.0, 9765.0, 9770.0, 9762.0, 9763.0, 9770.0, 9772.0, 9782.0, 9782.0, 9792.0, 9814.0, 9786.0, 9770.0, 9742.0, 9721.0, 9698.0, 9692.0, 9697.0, 9718.0, 9749.0],
      "WindowWidth": [21105.0, 20976.0, 20918.0, 20895.0, 20868.0, 20907.0, 20924.0, 20896.0, 20780.0, 20716.0, 20714.0, 20751.0, 20766.0, 20798.0, 20836.0, 20822.0, 20772.0, 20731.0, 20738.0, 20720.0, 20701.0, 20707.0, 20752.0, 20711.0, 20707.0, 20743.0, 20759.0, 20756.0, 20773.0, 20810.0, 20800.0, 20826.0, 20854.0, 20831.0, 20815.0, 20834.0, 20849.0, 20833.0, 20833.0, 20857.0, 20825.0, 20786.0, 20798.0, 20794.0, 20779.0, 20815.0, 20823.0, 20815.0, 20814.0, 20831.0, 20829.0, 20840.0, 20849.0, 20877.0, 20891.0, 20882.0, 20877.0, 20829.0, 20825.0, 20836.0, 20847.0, 20842.0, 20854.0, 20887.0, 20857.0, 20861.0, 20865.0, 20854.0, 20851.0, 20845.0, 20859.0, 20838.0, 20838.0, 20891.0, 20826.0, 20793.0, 20804.0, 20813.0, 20800.0, 20774.0, 20784.0, 20802.0, 20765.0, 20789.0, 20828.0, 20841.0, 20826.0, 20850.0, 20819.0, 20813.0, 20820.0, 20812.0, 20807.0, 20860.0, 20861.0, 20842.0, 20856.0, 20860.0, 20835.0, 20868.0, 20890.0, 20872.0, 20873.0, 20904.0, 20861.0, 20852.0, 20879.0, 20871.0, 20860.0, 20902.0, 20878.0, 20880.0, 20895.0, 20864.0, 20888.0, 20882.0, 20858.0, 20835.0, 20845.0, 20860.0, 20848.0, 20839.0, 20858.0, 20815.0, 20813.0, 20813.0, 20816.0, 20796.0, 20815.0, 20818.0, 20814.0, 20853.0, 20845.0, 20808.0, 20824.0, 20787.0, 20760.0, 20785.0, 20824.0, 20798.0, 20811.0, 20823.0, 20802.0, 20770.0, 20761.0, 20781.0, 20768.0, 20792.0, 20781.0, 20777.0, 20756.0, 20746.0, 20756.0, 20747.0, 20729.0, 20749.0, 20753.0, 20739.0, 20752.0, 20775.0, 20759.0, 20762.0, 20773.0, 20749.0, 20756.0, 20749.0, 20725.0, 20758.0, 20767.0, 20746.0, 20741.0, 20760.0, 20762.0, 20749.0, 20760.0, 20742.0, 20747.0, 20763.0, 20766.0, 20786.0, 20795.0, 20812.0, 20863.0, 20793.0, 20765.0, 20703.0, 20649.0, 20600.0, 20595.0, 20602.0, 20655.0, 20721.0]
    },
    "slices": {}
  },
  "NumberOfVolumes": 192
}