{
  "AcquisitionMatrixPE": 104,
  "AcquisitionNumber": 1,
  "AcquisitionTime": "13:37:8.515000",
  "BandwidthPerPixelPhaseEncode": 16.297,
  "BaseResolution": 104,
  "BodyPartExamined": "BRAIN",
  "ConsistencyInfo": "N4_VE11C_LATEST_20160120",
  "ConversionSoftware": "dcm2niix",
  "ConversionSoftwareVersion": "v1.0.20210317",
  "DerivedVendorReportedEchoSpacing": 0.000590009,
  "DeviceSerialNumber": "166018",
  "DwellTime": 2.1e-06,
  "EchoTime": 0.0376,
  "EchoTrainLength": 104,
  "EffectiveEchoSpacing": 0.000590009,
  "FlipAngle": 68,
  "ImageComments": "Unaliased MB6/PE3/LB",
  "ImageOrientationPatientDICOM": [0.999137, 0.0319706, 0.0265353, -0.0312246, 0.999118, -0.0280671],
  "ImageType": [
    "ORIGINAL",
    "PRIMARY",
    "M",
    "MB",
    "ND",
    "MOSAIC"
],
  "ImagingFrequency": 123.197,
  "InPlanePhaseEncodingDirectionDICOM": "COL",
  "InstitutionAddress": "Washington Place 6,NYC,NYC,US,10003",
  "InstitutionName": "NYU - CBI",
  "InstitutionalDepartmentName": "Department",
  "MRAcquisitionType": "2D",
  "MagneticFieldStrength": 3,
  "Manufacturer": "Siemens",
  "ManufacturersModelName": "Prisma",
  "Modality": "MR",
  "MultibandAccelerationFactor": 6,
  "PartialFourier": 1,
  "PatientPosition": "HFS",
  "PercentPhaseFOV": 100,
  "PercentSampling": 100,
  "PhaseEncodingDirection": "j",
  "PhaseEncodingSteps": 104,
  "PhaseResolution": 1,
  "PixelBandwidth": 2290,
  "ProcedureStepDescription": "Investigators^Winawer",
  "ProtocolName": "cmrr_mbepi_s6_2mm_66sl_PA_task-bar3",
  "PulseSequenceDetails": "%CustomerSeq%\\cmrr_mbep2d_bold",
  "ReceiveCoilActiveElements": "HC1-7",
  "ReceiveCoilName": "HeadNeck_64",
  "ReconMatrixPE": 104,
  "RepetitionTime": 1,
  "SAR": 0.0673445,
  "ScanOptions": "FS",
  "ScanningSequence": "EP",
  "SequenceName": "epfid2d1_104",
  "SequenceVariant": "SK\\SS",
  "SeriesDescription": "cmrr_mbepi_s6_2mm_66sl_PA_task-bar3",
  "SeriesNumber": 16,
  "ShimSetting": [305, -12674, -8482, 176, -24, -310, -45, 39],
  "SliceThickness": 2,
  "SliceTiming": [0, 0.5325, 0.0875, 0.6225, 0.1775, 0.7125, 0.2675, 0.8, 0.355, 0.89, 0.445, 0, 0.5325, 0.0875, 0.6225, 0.1775, 0.7125, 0.2675, 0.8, 0.355, 0.89, 0.445, 0, 0.5325, 0.0875, 0.6225, 0.1775, 0.7125, 0.2675, 0.8, 0.355, 0.89, 0.445, 0, 0.5325, 0.0875, 0.6225, 0.1775, 0.7125, 0.2675, 0.8, 0.355, 0.89, 0.445, 0, 0.5325, 0.0875, 0.6225, 0.1775, 0.7125, 0.2675, 0.8, 0.355, 0.89, 0.445, 0, 0.5325, 0.0875, 0.6225, 0.1775, 0.7125, 0.2675, 0.8, 0.355, 0.89, 0.445],
  "SoftwareVersions": "syngo MR E11",
  "SpacingBetweenSlices": 2,
  "StationName": "AWP166018",
  "TaskName": "bar3",
  "TotalReadoutTime": 0.060771,
  "TxRefAmp": 220.883,
  "VendorReportedEchoSpacing": 0.00059,
  "WipMemBlock": "4c93ddd6-66d6-475b-b818-e21c2739b8d8||Sequence: R016 ve11c/master r/8780670; Nov 27 2017 15:05:12 by eja",
  "dcmmeta_affine": [
    [-1.9982730150222778, -0.06244919076561928, 0.05481838434934616, 110.34265899658203],
    [-0.06394118070602417, 1.9982365369796753, -0.0544285848736763, -78.41769409179688],
    [0.053070537745952606, 0.05613416060805321, 1.9985076189041138, -55.575321197509766],
    [0.0, 0.0, 0.0, 1.0]
],
  "dcmmeta_reorient_transform": [
    [0.0, -1.0, 0.0, 103.0],
    [1.0, 0.0, 0.0, 0.0],
    [0.0, 0.0, 1.0, 0.0],
    [0.0, 0.0, 0.0, 1.0]
],
  "dcmmeta_shape": [104, 104, 66, 300],
  "dcmmeta_slice_dim": 2,
  "dcmmeta_version": 0.6,
  "global": {
    "const": {
      "AccessionNumber": "Lekp4ueL",
      "AcquisitionMatrix": [104, 0, 0, 104],
      "AngioFlag": "N",
      "BitsAllocated": 16,
      "BitsStored": 16,
      "BodyPartExamined": "BRAIN",
      "Columns": 936,
      "EchoNumbers": 1,
      "EchoTime": 37.6,
      "EchoTrainLength": 104,
      "FlipAngle": 68.0,
      "HighBit": 15,
      "ImageOrientationPatient": [0.99913650757735, 0.03197059165988, 0.02653526888982, -0.0312245960232, 0.99911824303022, -0.0280670812054],
      "ImagePositionPatient": [-909.21310447059, -985.26657824027, -48.519035867395],
      "ImageType": [
        "ORIGINAL",
        "PRIMARY",
        "M",
        "MB",
        "ND",
        "MOSAIC"
],
      "ImagedNucleus": "1H",
      "ImagingFrequency": 123.196832,
      "InPlanePhaseEncodingDirection": "COL",
      "MRAcquisitionType": "2D",
      "MagneticFieldStrength": 3.0,
      "Manufacturer": "SIEMENS",
      "ManufacturerModelName": "Prisma",
      "Modality": "MR",
      "NumberOfAverages": 1.0,
      "NumberOfPhaseEncodingSteps": 104,
      "PercentPhaseFieldOfView": 100.0,
      "PercentSampling": 100.0,
      "PerformedProcedureStepStartTime": "130512.337000",
      "PhotometricInterpretation": "MONOCHROME2",
      "PixelBandwidth": 2290.0,
      "PixelRepresentation": 0,
      "PixelSpacing": [2.0, 2.0],
      "ProtocolName": "cmrr_mbepi_s6_2mm_66sl_PA_task-bar3",
      "RepetitionTime": 1000.0,
      "Rows": 936,
      "SAR": 0.06734445756604,
      "SamplesPerPixel": 1,
      "ScanOptions": "FS",
      "ScanningSequence": "EP",
      "SequenceName": "epfid2d1_104",
      "SequenceVariant": [
        "SK",
        "SS"
],
      "SeriesDescription": "cmrr_mbepi_s6_2mm_66sl_PA_task-bar3",
      "SeriesNumber": 16,
      "SeriesTime": "133825.292000",
      "SliceLocation": -50.375365890519,
      "SliceThickness": 2.0,
      "SmallestImagePixelValue": 0,
      "SoftwareVersions": "syngo MR E11",
      "SpacingBetweenSlices": 2.0000000117162,
      "SpecificCharacterSet": "ISO_IR 100",
      "StudyID": "1",
      "StudyTime": "130512.255000",
      "TransmitCoilName": "Body",
      "VariableFlipAngleFlag": "N",
      "WindowCenterWidthExplanation": "Algo1",
      "dBdt": 0.0},
    "slices": {}
  },
  "time": {
    "samples": {
      "AcquisitionNumber": [1, 2, 3, 4, 5, 6, 7, 8, 9, 10, 11, 12, 13, 14, 15, 16, 17, 18, 19, 20, 21, 22, 23, 24, 25, 26, 27, 28, 29, 30, 31, 32, 33, 34, 35, 36, 37, 38, 39, 40, 41, 42, 43, 44, 45, 46, 47, 48, 49, 50, 51, 52, 53, 54, 55, 56, 57, 58, 59, 60, 61, 62, 63, 64, 65, 66, 67, 68, 69, 70, 71, 72, 73, 74, 75, 76, 77, 78, 79, 80, 81, 82, 83, 84, 85, 86, 87, 88, 89, 90, 91, 92, 93, 94, 95, 96, 97, 98, 99, 100, 101, 102, 103, 104, 105, 106, 107, 108, 109, 110, 111, 112, 113, 114, 115, 116, 117, 118, 119, 120, 121, 122, 123, 124, 125, 126, 127, 128, 129, 130, 131, 132, 133, 134, 135, 136, 137, 138, 139, 140, 141, 142, 143, 144, 145, 146, 147, 148, 149, 150, 151, 152, 153, 154, 155, 156, 157, 158, 159, 160, 161, 162, 163, 164, 165, 166, 167, 168, 169, 170, 171, 172, 173, 174, 175, 176, 177, 178, 179, 180, 181, 182, 183, 184, 185, 186, 187, 188, 189, 190, 191, 192, 193, 194, 195, 196, 197, 198, 199, 200, 201, 202, 203, 204, 205, 206, 207, 208, 209, 210, 211, 212, 213, 214, 215, 216, 217, 218, 219, 220, 221, 222, 223, 224, 225, 226, 227, 228, 229, 230, 231, 232, 233, 234, 235, 236, 237, 238, 239, 240, 241, 242, 243, 244, 245, 246, 247, 248, 249, 250, 251, 252, 253, 254, 255, 256, 257, 258, 259, 260, 261, 262, 263, 264, 265, 266, 267, 268, 269, 270, 271, 272, 273, 274, 275, 276, 277, 278, 279, 280, 281, 282, 283, 284, 285, 286, 287, 288, 289, 290, 291, 292, 293, 294, 295, 296, 297, 298, 299, 300],
      "AcquisitionTime": ["133708.515000", "133709.515000", "133710.515000", "133711.515000", "133712.515000", "133713.515000", "133714.515000", "133715.515000", "133716.515000", "133717.515000", "133718.515000", "133719.515000", "133720.515000", "133721.515000", "133722.515000", "133723.515000", "133724.515000", "133725.515000", "133726.515000", "133727.515000", "133728.515000", "133729.515000", "133730.515000", "133731.515000", "133732.515000", "133733.515000", "133734.515000", "133735.515000", "133736.515000", "133737.515000", "133738.515000", "133739.515000", "133740.515000", "133741.515000", "133742.515000", "133743.515000", "133744.515000", "133745.515000", "133746.515000", "133747.515000", "133748.515000", "133749.515000", "133750.515000", "133751.515000", "133752.515000", "133753.515000", "133754.515000", "133755.515000", "133756.515000", "133757.515000", "133758.515000", "133759.515000", "133800.515000", "133801.515000", "133802.515000", "133803.515000", "133804.515000", "133805.515000", "133806.515000", "133807.515000", "133808.515000", "133809.515000", "133810.515000", "133811.515000", "133812.515000", "133813.515000", "133814.515000", "133815.515000", "133816.515000", "133817.515000", "133818.515000", "133819.515000", "133820.515000", "133821.515000", "133822.515000", "133823.515000", "133824.515000", "133825.515000", "133826.515000", "133827.515000", "133828.515000", "133829.515000", "133830.515000", "133831.515000", "133832.515000", "133833.515000", "133834.515000", "133835.515000", "133836.515000", "133837.515000", "133838.515000", "133839.515000", "133840.515000", "133841.515000", "133842.515000", "133843.515000", "133844.515000", "133845.515000", "133846.515000", "133847.515000", "133848.515000", "133849.515000", "133850.515000", "133851.515000", "133852.515000", "133853.515000", "133854.515000", "133855.515000", "133856.515000", "133857.515000", "133858.515000", "133859.515000", "133900.515000", "133901.515000", "133902.515000", "133903.515000", "133904.515000", "133905.515000", "133906.515000", "133907.515000", "133908.515000", "133909.515000", "133910.515000", "133911.515000", "133912.515000", "133913.515000", "133914.515000", "133915.515000", "133916.515000", "133917.515000", "133918.515000", "133919.515000", "133920.515000", "133921.515000", "133922.515000", "133923.515000", "133924.515000", "133925.515000", "133926.515000", "133927.515000", "133928.515000", "133929.515000", "133930.515000", "133931.515000", "133932.515000", "133933.515000", "133934.515000", "133935.515000", "133936.515000", "133937.515000", "133938.515000", "133939.515000", "133940.515000", "133941.515000", "133942.515000", "133943.515000", "133944.515000", "133945.515000", "133946.515000", "133947.515000", "133948.515000", "133949.515000", "133950.515000", "133951.515000", "133952.515000", "133953.515000", "133954.515000", "133955.515000", "133956.515000", "133957.515000", "133958.515000", "133959.515000", "134000.515000", "134001.515000", "134002.515000", "134003.515000", "134004.515000", "134005.515000", "134006.515000", "134007.515000", "134008.515000", "134009.515000", "134010.515000", "134011.515000", "134012.515000", "134013.515000", "134014.515000", "134015.515000", "134016.515000", "134017.515000", "134018.515000", "134019.515000", "134020.515000", "134021.515000", "134022.515000", "134023.515000", "134024.515000", "134025.515000", "134026.515000", "134027.515000", "134028.515000", "134029.515000", "134030.515000", "134031.515000", "134032.515000", "134033.515000", "134034.515000", "134035.515000", "134036.515000", "134037.515000", "134038.515000", "134039.515000", "134040.515000", "134041.515000", "134042.515000", "134043.515000", "134044.515000", "134045.515000", "134046.515000", "134047.515000", "134048.515000", "134049.515000", "134050.515000", "134051.515000", "134052.515000", "134053.515000", "134054.515000", "134055.515000", "134056.515000", "134057.515000", "134058.515000", "134059.515000", "134100.515000", "134101.515000", "134102.515000", "134103.515000", "134104.515000", "134105.515000", "134106.515000", "134107.515000", "134108.515000", "134109.515000", "134110.515000", "134111.515000", "134112.515000", "134113.515000", "134114.515000", "134115.515000", "134116.515000", "134117.515000", "134118.515000", "134119.515000", "134120.515000", "134121.515000", "134122.515000", "134123.515000", "134124.515000", "134125.515000", "134126.515000", "134127.515000", "134128.515000", "134129.515000", "134130.515000", "134131.515000", "134132.515000", "134133.515000", "134134.515000", "134135.515000", "134136.515000", "134137.515000", "134138.515000", "134139.515000", "134140.515000", "134141.515000", "134142.515000", "134143.515000", "134144.515000", "134145.515000", "134146.515000", "134147.515000", "134148.515000", "134149.515000", "134150.515000", "134151.515000", "134152.515000", "134153.515000", "134154.515000", "134155.515000", "134156.515000", "134157.515000", "134158.515000", "134159.515000", "134200.515000", "134201.515000", "134202.515000", "134203.515000", "134204.515000", "134205.515000", "134206.515000", "134207.515000"],
      "ContentTime": ["133825.295000", "133825.299000", "133825.302000", "133825.305000", "133825.308000", "133825.311000", "133825.314000", "133825.317000", "133825.320000", "133825.323000", "133825.326000", "133825.329000", "133825.332000", "133825.335000", "133825.338000", "133825.341000", "133825.344000", "133825.347000", "133825.351000", "133825.354000", "133825.357000", "133825.360000", "133825.363000", "133825.366000", "133825.369000", "133825.372000", "133825.375000", "133825.378000", "133825.381000", "133825.384000", "133825.387000", "133825.390000", "133825.393000", "133825.396000", "133825.399000", "133825.403000", "133825.406000", "133845.255000", "133845.258000", "133845.261000", "133845.264000", "133845.267000", "133845.270000", "133845.273000", "133845.276000", "133845.279000", "133845.282000", "133845.285000", "133845.288000", "133845.291000", "133845.294000", "133845.297000", "133845.312000", "133845.315000", "133845.318000", "133845.321000", "133845.324000", "133845.327000", "133845.330000", "133845.333000", "133845.336000", "133845.339000", "133845.342000", "133845.345000", "133845.348000", "133845.351000", "133905.255000", "133905.258000", "133905.261000", "133905.264000", "133905.267000", "133905.270000", "133905.273000", "133905.277000", "133905.280000", "133905.283000", "133905.286000", "133905.289000", "133905.292000", "133905.295000", "133905.298000", "133905.301000", "133905.304000", "133905.307000", "133905.324000", "133905.327000", "133905.330000", "133905.333000", "133905.336000", "133905.339000", "133905.342000", "133905.345000", "133905.348000", "133905.351000", "133925.255000", "133925.258000", "133925.261000", "133925.264000", "133925.277000", "133925.280000", "133925.283000", "133925.286000", "133925.289000", "133925.292000", "133925.295000", "133925.298000", "133925.301000", "133925.304000", "133925.307000", "133925.310000", "133925.313000", "133925.316000", "133925.319000", "133925.322000", "133925.325000", "133925.328000", "133925.331000", "133925.334000", "133925.338000", "133925.341000", "133925.344000", "133925.347000", "133945.255000", "133945.258000", "133945.261000", "133945.264000", "133945.273000", "133945.276000", "133945.279000", "133945.282000", "133945.285000", "133945.288000", "133945.291000", "133945.294000", "133945.297000", "133945.300000", "133945.303000", "133945.306000", "133945.309000", "133945.312000", "133945.315000", "133945.318000", "133945.321000", "133945.324000", "133945.327000", "133945.330000", "133945.333000", "133945.336000", "133945.339000", "133945.342000", "133945.345000", "134005.256000", "134005.259000", "134005.262000", "134005.265000", "134005.268000", "134005.271000", "134005.275000", "134005.278000", "134005.281000", "134005.284000", "134005.287000", "134005.290000", "134005.293000", "134005.296000", "134005.299000", "134005.302000", "134005.305000", "134005.308000", "134005.311000", "134005.314000", "134005.317000", "134005.320000", "134005.323000", "134005.326000", "134005.329000", "134025.256000", "134025.259000", "134025.262000", "134025.265000", "134025.268000", "134025.271000", "134025.274000", "134025.277000", "134025.281000", "134025.284000", "134025.287000", "134025.290000", "134025.293000", "134025.296000", "134025.299000", "134025.302000", "134025.305000", "134025.308000", "134025.311000", "134025.314000", "134045.255000", "134045.258000", "134045.261000", "134045.264000", "134045.267000", "134045.270000", "134045.273000", "134045.276000", "134045.279000", "134045.282000", "134045.285000", "134045.288000", "134045.291000", "134045.294000", "134045.297000", "134045.300000", "134045.303000", "134045.307000", "134045.310000", "134045.313000", "134105.255000", "134105.258000", "134105.261000", "134105.264000", "134105.267000", "134105.271000", "134105.274000", "134105.277000", "134105.280000", "134105.283000", "134105.286000", "134105.289000", "134105.292000", "134105.295000", "134105.298000", "134105.301000", "134105.304000", "134105.307000", "134105.310000", "134105.313000", "134125.255000", "134125.258000", "134125.261000", "134125.264000", "134125.267000", "134125.270000", "134125.274000", "134125.277000", "134125.280000", "134125.283000", "134125.286000", "134125.294000", "134125.297000", "134125.300000", "134125.303000", "134125.306000", "134125.309000", "134125.312000", "134125.315000", "134125.318000", "134145.255000", "134145.258000", "134145.261000", "134145.264000", "134145.267000", "134145.270000", "134145.273000", "134145.276000", "134145.279000", "134145.282000", "134145.296000", "134145.299000", "134145.302000", "134145.305000", "134145.308000", "134145.311000", "134145.314000", "134145.317000", "134145.320000", "134145.323000", "134205.255000", "134205.258000", "134205.261000", "134205.265000", "134205.268000", "134205.271000", "134205.274000", "134205.277000", "134205.280000", "134205.283000", "134205.286000", "134205.289000", "134205.292000", "134205.295000", "134205.298000", "134205.301000", "134205.304000", "134205.307000", "134205.310000", "134205.313000", "134209.069000", "134209.073000", "134209.076000", "134209.079000"],
      "InstanceCreationTime": ["133825.295000", "133825.299000", "133825.302000", "133825.305000", "133825.308000", "133825.311000", "133825.314000", "133825.317000", "133825.320000", "133825.323000", "133825.326000", "133825.329000", "133825.332000", "133825.335000", "133825.338000", "133825.341000", "133825.344000", "133825.347000", "133825.351000", "133825.354000", "133825.357000", "133825.360000", "133825.363000", "133825.366000", "133825.369000", "133825.372000", "133825.375000", "133825.378000", "133825.381000", "133825.384000", "133825.387000", "133825.390000", "133825.393000", "133825.396000", "133825.399000", "133825.403000", "133825.406000", "133845.255000", "133845.258000", "133845.261000", "133845.264000", "133845.267000", "133845.270000", "133845.273000", "133845.276000", "133845.279000", "133845.282000", "133845.285000", "133845.288000", "133845.291000", "133845.294000", "133845.297000", "133845.312000", "133845.315000", "133845.318000", "133845.321000", "133845.324000", "133845.327000", "133845.330000", "133845.333000", "133845.336000", "133845.339000", "133845.342000", "133845.345000", "133845.348000", "133845.351000", "133905.255000", "133905.258000", "133905.261000", "133905.264000", "133905.267000", "133905.270000", "133905.273000", "133905.277000", "133905.280000", "133905.283000", "133905.286000", "133905.289000", "133905.292000", "133905.295000", "133905.298000", "133905.301000", "133905.304000", "133905.307000", "133905.324000", "133905.327000", "133905.330000", "133905.333000", "133905.336000", "133905.339000", "133905.342000", "133905.345000", "133905.348000", "133905.351000", "133925.255000", "133925.258000", "133925.261000", "133925.264000", "133925.277000", "133925.280000", "133925.283000", "133925.286000", "133925.289000", "133925.292000", "133925.295000", "133925.298000", "133925.301000", "133925.304000", "133925.307000", "133925.310000", "133925.313000", "133925.316000", "133925.319000", "133925.322000", "133925.325000", "133925.328000", "133925.331000", "133925.334000", "133925.338000", "133925.341000", "133925.344000", "133925.347000", "133945.255000", "133945.258000", "133945.261000", "133945.264000", "133945.273000", "133945.276000", "133945.279000", "133945.282000", "133945.285000", "133945.288000", "133945.291000", "133945.294000", "133945.297000", "133945.300000", "133945.303000", "133945.306000", "133945.309000", "133945.312000", "133945.315000", "133945.318000", "133945.321000", "133945.324000", "133945.327000", "133945.330000", "133945.333000", "133945.336000", "133945.339000", "133945.342000", "133945.345000", "134005.256000", "134005.259000", "134005.262000", "134005.265000", "134005.268000", "134005.271000", "134005.275000", "134005.278000", "134005.281000", "134005.284000", "134005.287000", "134005.290000", "134005.293000", "134005.296000", "134005.299000", "134005.302000", "134005.305000", "134005.308000", "134005.311000", "134005.314000", "134005.317000", "134005.320000", "134005.323000", "134005.326000", "134005.329000", "134025.256000", "134025.259000", "134025.262000", "134025.265000", "134025.268000", "134025.271000", "134025.274000", "134025.277000", "134025.281000", "134025.284000", "134025.287000", "134025.290000", "134025.293000", "134025.296000", "134025.299000", "134025.302000", "134025.305000", "134025.308000", "134025.311000", "134025.314000", "134045.255000", "134045.258000", "134045.261000", "134045.264000", "134045.267000", "134045.270000", "134045.273000", "134045.276000", "134045.279000", "134045.282000", "134045.285000", "134045.288000", "134045.291000", "134045.294000", "134045.297000", "134045.300000", "134045.303000", "134045.307000", "134045.310000", "134045.313000", "134105.255000", "134105.258000", "134105.261000", "134105.264000", "134105.267000", "134105.271000", "134105.274000", "134105.277000", "134105.280000", "134105.283000", "134105.286000", "134105.289000", "134105.292000", "134105.295000", "134105.298000", "134105.301000", "134105.304000", "134105.307000", "134105.310000", "134105.313000", "134125.255000", "134125.258000", "134125.261000", "134125.264000", "134125.267000", "134125.270000", "134125.274000", "134125.277000", "134125.280000", "134125.283000", "134125.286000", "134125.294000", "134125.297000", "134125.300000", "134125.303000", "134125.306000", "134125.309000", "134125.312000", "134125.315000", "134125.318000", "134145.255000", "134145.258000", "134145.261000", "134145.264000", "134145.267000", "134145.270000", "134145.273000", "134145.276000", "134145.279000", "134145.282000", "134145.296000", "134145.299000", "134145.302000", "134145.305000", "134145.308000", "134145.311000", "134145.314000", "134145.317000", "134145.320000", "134145.323000", "134205.255000", "134205.258000", "134205.261000", "134205.265000", "134205.268000", "134205.271000", "134205.274000", "134205.277000", "134205.280000", "134205.283000", "134205.286000", "134205.289000", "134205.292000", "134205.295000", "134205.298000", "134205.301000", "134205.304000", "134205.307000", "134205.310000", "134205.313000", "134209.069000", "134209.073000", "134209.076000", "134209.079000"],
      "InstanceNumber": [1, 2, 3, 4, 5, 6, 7, 8, 9, 10, 11, 12, 13, 14, 15, 16, 17, 18, 19, 20, 21, 22, 23, 24, 25, 26, 27, 28, 29, 30, 31, 32, 33, 34, 35, 36, 37, 38, 39, 40, 41, 42, 43, 44, 45, 46, 47, 48, 49, 50, 51, 52, 53, 54, 55, 56, 57, 58, 59, 60, 61, 62, 63, 64, 65, 66, 67, 68, 69, 70, 71, 72, 73, 74, 75, 76, 77, 78, 79, 80, 81, 82, 83, 84, 85, 86, 87, 88, 89, 90, 91, 92, 93, 94, 95, 96, 97, 98, 99, 100, 101, 102, 103, 104, 105, 106, 107, 108, 109, 110, 111, 112, 113, 114, 115, 116, 117, 118, 119, 120, 121, 122, 123, 124, 125, 126, 127, 128, 129, 130, 131, 132, 133, 134, 135, 136, 137, 138, 139, 140, 141, 142, 143, 144, 145, 146, 147, 148, 149, 150, 151, 152, 153, 154, 155, 156, 157, 158, 159, 160, 161, 162, 163, 164, 165, 166, 167, 168, 169, 170, 171, 172, 173, 174, 175, 176, 177, 178, 179, 180, 181, 182, 183, 184, 185, 186, 187, 188, 189, 190, 191, 192, 193, 194, 195, 196, 197, 198, 199, 200, 201, 202, 203, 204, 205, 206, 207, 208, 209, 210, 211, 212, 213, 214, 215, 216, 217, 218, 219, 220, 221, 222, 223, 224, 225, 226, 227, 228, 229, 230, 231, 232, 233, 234, 235, 236, 237, 238, 239, 240, 241, 242, 243, 244, 245, 246, 247, 248, 249, 250, 251, 252, 253, 254, 255, 256, 257, 258, 259, 260, 261, 262, 263, 264, 265, 266, 267, 268, 269, 270, 271, 272, 273, 274, 275, 276, 277, 278, 279, 280, 281, 282, 283, 284, 285, 286, 287, 288, 289, 290, 291, 292, 293, 294, 295, 296, 297, 298, 299, 300],
      "LargestImagePixelValue": [56036, 55078, 54769, 53754, 53276, 52912, 52709, 51622, 52032, 51339, 52200, 52349, 51798, 52056, 52998, 52745, 53336, 53530, 52310, 52752, 53516, 53117, 52891, 53757, 53540, 53445, 53321, 53505, 54325, 53319, 52842, 52573, 52701, 52912, 53025, 51614, 52614, 52261, 52125, 52250, 51557, 51333, 51775, 51027, 51826, 51300, 51237, 51847, 52428, 51632, 52303, 52195, 52632, 52976, 52807, 52123, 51823, 52442, 52285, 52031, 51698, 51806, 52463, 52436, 52457, 52090, 51827, 52190, 52208, 51894, 51976, 51516, 51630, 52508, 52727, 52930, 52311, 52242, 51882, 51638, 51422, 51751, 51321, 52064, 52722, 52413, 52515, 52120, 51777, 52113, 51815, 51782, 51377, 50937, 51478, 51253, 50566, 51197, 51006, 50858, 50970, 51620, 51193, 52163, 52002, 51471, 51877, 52026, 51536, 52083, 51748, 51918, 51733, 51347, 51319, 51911, 51431, 51398, 51721, 51485, 51182, 51280, 51466, 51399, 51346, 50726, 50830, 50319, 50474, 50333, 50131, 50177, 50252, 50591, 51479, 50516, 51016, 50484, 50546, 51335, 51437, 51087, 50744, 51097, 51195, 50824, 51548, 51192, 51637, 52074, 51132, 51281, 51282, 50765, 51650, 52189, 50902, 51418, 50973, 51404, 51509, 51704, 51788, 51762, 52111, 52179, 52095, 51951, 51574, 51337, 51969, 51126, 51441, 51528, 50659, 50958, 50511, 49782, 50242, 50214, 49223, 49517, 49649, 49636, 50167, 50369, 51246, 51101, 51579, 51198, 51026, 51117, 50960, 51227, 50627, 50791, 51301, 51048, 51550, 52112, 50986, 51208, 51419, 50992, 51636, 51076, 50396, 50641, 50273, 49570, 50075, 49952, 50501, 50998, 51744, 51627, 52380, 52553, 52501, 51761, 51251, 51286, 51135, 51420, 51333, 51913, 51464, 52340, 51421, 51623, 51933, 51217, 52025, 51829, 52089, 51361, 51616, 51539, 51214, 51406, 51696, 50813, 51486, 51462, 50569, 51444, 51145, 51360, 51309, 51366, 52075, 52201, 51812, 52464, 52199, 51681, 51864, 51832, 51960, 52198, 51509, 52686, 52429, 51680, 50926, 50436, 50707, 50677, 50875, 50823, 50770, 50786, 50729, 50602, 50441, 50328, 50113, 50493, 50182, 50132, 50406, 50694, 50904, 51009, 51283, 51420, 51821, 51933, 51224, 51514, 51712, 51250, 51450, 51883, 52319, 51885, 51713, 51042, 50929, 50888],
      "WindowCenter": [11282.0, 11244.0, 11218.0, 11214.0, 11202.0, 11195.0, 11197.0, 11195.0, 11185.0, 11173.0, 11170.0, 11178.0, 11178.0, 11178.0, 11178.0, 11186.0, 11198.0, 11195.0, 11180.0, 11168.0, 11154.0, 11154.0, 11152.0, 11151.0, 11148.0, 11158.0, 11171.0, 11177.0, 11195.0, 11196.0, 11183.0, 11177.0, 11182.0, 11175.0, 11180.0, 11173.0, 11177.0, 11191.0, 11202.0, 11223.0, 11216.0, 11212.0, 11210.0, 11198.0, 11198.0, 11181.0, 11180.0, 11179.0, 11184.0, 11177.0, 11172.0, 11176.0, 11174.0, 11179.0, 11176.0, 11178.0, 11180.0, 11188.0, 11193.0, 11188.0, 11188.0, 11188.0, 11175.0, 11176.0, 11179.0, 11180.0, 11179.0, 11190.0, 11194.0, 11183.0, 11176.0, 11163.0, 11154.0, 11149.0, 11151.0, 11175.0, 11190.0, 11197.0, 11194.0, 11190.0, 11180.0, 11170.0, 11163.0, 11156.0, 11155.0, 11161.0, 11156.0, 11164.0, 11168.0, 11173.0, 11172.0, 11181.0, 11184.0, 11175.0, 11182.0, 11188.0, 11193.0, 11187.0, 11174.0, 11179.0, 11171.0, 11175.0, 11171.0, 11165.0, 11165.0, 11168.0, 11161.0, 11173.0, 11165.0, 11176.0, 11177.0, 11176.0, 11180.0, 11173.0, 11176.0, 11171.0, 11170.0, 11164.0, 11159.0, 11156.0, 11142.0, 11148.0, 11171.0, 11186.0, 11194.0, 11202.0, 11195.0, 11190.0, 11181.0, 11173.0, 11179.0, 11167.0, 11175.0, 11175.0, 11177.0, 11200.0, 11203.0, 11201.0, 11182.0, 11184.0, 11182.0, 11167.0, 11155.0, 11151.0, 11142.0, 11152.0, 11154.0, 11159.0, 11182.0, 11191.0, 11192.0, 11195.0, 11183.0, 11178.0, 11175.0, 11178.0, 11168.0, 11159.0, 11149.0, 11150.0, 11151.0, 11164.0, 11160.0, 11166.0, 11162.0, 11170.0, 11170.0, 11154.0, 11150.0, 11152.0, 11156.0, 11174.0, 11188.0, 11199.0, 11206.0, 11208.0, 11204.0, 11204.0, 11200.0, 11201.0, 11186.0, 11175.0, 11165.0, 11158.0, 11152.0, 11144.0, 11152.0, 11155.0, 11167.0, 11188.0, 11202.0, 11199.0, 11183.0, 11171.0, 11160.0, 11143.0, 11131.0, 11128.0, 11120.0, 11125.0, 11129.0, 11147.0, 11158.0, 11168.0, 11174.0, 11180.0, 11183.0, 11172.0, 11166.0, 11159.0, 11155.0, 11132.0, 11129.0, 11122.0, 11129.0, 11127.0, 11136.0, 11155.0, 11173.0, 11166.0, 11168.0, 11173.0, 11167.0, 11183.0, 11177.0, 11181.0, 11188.0, 11186.0, 11184.0, 11179.0, 11177.0, 11178.0, 11180.0, 11174.0, 11186.0, 11186.0, 11180.0, 11175.0, 11176.0, 11180.0, 11174.0, 11176.0, 11174.0, 11176.0, 11180.0, 11176.0, 11172.0, 11175.0, 11156.0, 11154.0, 11157.0, 11157.0, 11168.0, 11174.0, 11179.0, 11182.0, 11170.0, 11174.0, 11174.0, 11179.0, 11170.0, 11198.0, 11220.0, 11217.0, 11207.0, 11193.0, 11182.0, 11183.0, 11165.0, 11165.0, 11155.0, 11155.0, 11157.0, 11164.0, 11174.0, 11173.0, 11172.0, 11181.0, 11176.0, 11177.0, 11169.0, 11172.0, 11175.0, 11173.0, 11166.0, 11162.0, 11162.0, 11167.0, 11165.0, 11170.0, 11171.0, 11180.0, 11175.0, 11178.0, 11188.0, 11210.0, 11213.0, 11206.0, 11189.0, 11194.0],
