{
  "AcquisitionMatrixPE": 104,
  "AcquisitionNumber": 1,
  "AcquisitionTime": "13:30:52.672500",
  "BandwidthPerPixelPhaseEncode": 16.297,
  "BaseResolution": 104,
  "BodyPartExamined": "BRAIN",
  "ConsistencyInfo": "N4_VE11C_LATEST_20160120",
  "ConversionSoftware": "dcm2niix",
  "ConversionSoftwareVersion": "v1.0.20210317",
  "DerivedVendorReportedEchoSpacing": 0.000590009,
  "DeviceSerialNumber": "166018",
  "DwellTime": 2.1e-06,
  "EchoTime": 0.0376,
  "EchoTrainLength": 104,
  "EffectiveEchoSpacing": 0.000590009,
  "FlipAngle": 68,
  "ImageComments": "Unaliased MB6/PE3/LB",
  "ImageOrientationPatientDICOM": [0.999137, 0.0319706, 0.0265353, -0.0312246, 0.999118, -0.0280671],
  "ImageType": [
    "ORIGINAL",
    "PRIMARY",
    "M",
    "MB",
    "ND",
    "MOSAIC"
],
  "ImagingFrequency": 123.197,
  "InPlanePhaseEncodingDirectionDICOM": "COL",
  "InstitutionAddress": "Washington Place 6,NYC,NYC,US,10003",
  "InstitutionName": "NYU - CBI",
  "InstitutionalDepartmentName": "Department",
  "MRAcquisitionType": "2D",
  "MagneticFieldStrength": 3,
  "Manufacturer": "Siemens",
  "ManufacturersModelName": "Prisma",
  "Modality": "MR",
  "MultibandAccelerationFactor": 6,
  "PartialFourier": 1,
  "PatientPosition": "HFS",
  "PercentPhaseFOV": 100,
  "PercentSampling": 100,
  "PhaseEncodingDirection": "j",
  "PhaseEncodingSteps": 104,
  "PhaseResolution": 1,
  "PixelBandwidth": 2290,
  "ProcedureStepDescription": "Investigators^Winawer",
  "ProtocolName": "cmrr_mbepi_s6_2mm_66sl_PA_task-wedgering2",
  "PulseSequenceDetails": "%CustomerSeq%\\cmrr_mbep2d_bold",
  "ReceiveCoilActiveElements": "HC1-7",
  "ReceiveCoilName": "HeadNeck_64",
  "ReconMatrixPE": 104,
  "RepetitionTime": 1,
  "SAR": 0.0673445,
  "ScanOptions": "FS",
  "ScanningSequence": "EP",
  "SequenceName": "epfid2d1_104",
  "SequenceVariant": "SK\\SS",
  "SeriesDescription": "cmrr_mbepi_s6_2mm_66sl_PA_task-wedgering2",
  "SeriesNumber": 14,
  "ShimSetting": [305, -12674, -8482, 176, -24, -310, -45, 39],
  "SliceThickness": 2,
  "SliceTiming": [0, 0.5325, 0.0875, 0.6225, 0.1775, 0.7125, 0.265, 0.8, 0.355, 0.89, 0.445, 0, 0.5325, 0.0875, 0.6225, 0.1775, 0.7125, 0.265, 0.8, 0.355, 0.89, 0.445, 0, 0.5325, 0.0875, 0.6225, 0.1775, 0.7125, 0.265, 0.8, 0.355, 0.89, 0.445, 0, 0.5325, 0.0875, 0.6225, 0.1775, 0.7125, 0.265, 0.8, 0.355, 0.89, 0.445, 0, 0.5325, 0.0875, 0.6225, 0.1775, 0.7125, 0.265, 0.8, 0.355, 0.89, 0.445, 0, 0.5325, 0.0875, 0.6225, 0.1775, 0.7125, 0.265, 0.8, 0.355, 0.89, 0.445],
  "SoftwareVersions": "syngo MR E11",
  "SpacingBetweenSlices": 2,
  "StationName": "AWP166018",
  "TaskName": "wedgering2",
  "TotalReadoutTime": 0.060771,
  "TxRefAmp": 220.883,
  "VendorReportedEchoSpacing": 0.00059,
  "WipMemBlock": "5e77c9db-f456-42a3-a0db-229e0da63dcf||Sequence: R016 ve11c/master r/8780670; Nov 27 2017 15:05:12 by eja",
  "dcmmeta_affine": [
    [-1.9982730150222778, -0.06244919076561928, 0.05481838434934616, 110.34265899658203],
    [-0.06394118070602417, 1.9982365369796753, -0.0544285848736763, -78.41769409179688],
    [0.053070537745952606, 0.05613416060805321, 1.9985076189041138, -55.575321197509766],
    [0.0, 0.0, 0.0, 1.0]
],
  "dcmmeta_reorient_transform": [
    [0.0, -1.0, 0.0, 103.0],
    [1.0, 0.0, 0.0, 0.0],
    [0.0, 0.0, 1.0, 0.0],
    [0.0, 0.0, 0.0, 1.0]
],
  "dcmmeta_shape": [104, 104, 66, 300],
  "dcmmeta_slice_dim": 2,
  "dcmmeta_version": 0.6,
  "global": {
    "const": {
      "AccessionNumber": "Lekp4ueL",
      "AcquisitionMatrix": [104, 0, 0, 104],
      "AngioFlag": "N",
      "BitsAllocated": 16,
      "BitsStored": 16,
      "BodyPartExamined": "BRAIN",
      "Columns": 936,
      "EchoNumbers": 1,
      "EchoTime": 37.6,
      "EchoTrainLength": 104,
      "FlipAngle": 68.0,
      "HighBit": 15,
      "ImageOrientationPatient": [0.99913650757735, 0.03197059165988, 0.02653526888982, -0.0312245960232, 0.99911824303022, -0.0280670812054],
      "ImagePositionPatient": [-909.21310447059, -985.26657824027, -48.519035867395],
      "ImageType": [
        "ORIGINAL",
        "PRIMARY",
        "M",
        "MB",
        "ND",
        "MOSAIC"
],
      "ImagedNucleus": "1H",
      "ImagingFrequency": 123.196829,
      "InPlanePhaseEncodingDirection": "COL",
      "MRAcquisitionType": "2D",
      "MagneticFieldStrength": 3.0,
      "Manufacturer": "SIEMENS",
      "ManufacturerModelName": "Prisma",
      "Modality": "MR",
      "NumberOfAverages": 1.0,
      "NumberOfPhaseEncodingSteps": 104,
      "PercentPhaseFieldOfView": 100.0,
      "PercentSampling": 100.0,
      "PerformedProcedureStepStartTime": "130512.337000",
      "PhotometricInterpretation": "MONOCHROME2",
      "PixelBandwidth": 2290.0,
      "PixelRepresentation": 0,
      "PixelSpacing": [2.0, 2.0],
      "ProtocolName": "cmrr_mbepi_s6_2mm_66sl_PA_task-wedgering2",
      "RepetitionTime": 1000.0,
      "Rows": 936,
      "SAR": 0.06734445756604,
      "SamplesPerPixel": 1,
      "ScanOptions": "FS",
      "ScanningSequence": "EP",
      "SequenceName": "epfid2d1_104",
      "SequenceVariant": [
        "SK",
        "SS"
],
      "SeriesDescription": "cmrr_mbepi_s6_2mm_66sl_PA_task-wedgering2",
      "SeriesNumber": 14,
      "SeriesTime": "133205.126000",
      "SliceLocation": -50.375365890519,
      "SliceThickness": 2.0,
      "SmallestImagePixelValue": 0,
      "SoftwareVersions": "syngo MR E11",
      "SpacingBetweenSlices": 2.0000000117162,
      "SpecificCharacterSet": "ISO_IR 100",
      "StudyID": "1",
      "StudyTime": "130512.255000",
      "TransmitCoilName": "Body",
      "VariableFlipAngleFlag": "N",
      "WindowCenterWidthExplanation": "Algo1",
      "dBdt": 0.0},
    "slices": {}
  },
  "time": {
    "samples": {
      "AcquisitionNumber": [1, 2, 3, 4, 5, 6, 7, 8, 9, 10, 11, 12, 13, 14, 15, 16, 17, 18, 19, 20, 21, 22, 23, 24, 25, 26, 27, 28, 29, 30, 31, 32, 33, 34, 35, 36, 37, 38, 39, 40, 41, 42, 43, 44, 45, 46, 47, 48, 49, 50, 51, 52, 53, 54, 55, 56, 57, 58, 59, 60, 61, 62, 63, 64, 65, 66, 67, 68, 69, 70, 71, 72, 73, 74, 75, 76, 77, 78, 79, 80, 81, 82, 83, 84, 85, 86, 87, 88, 89, 90, 91, 92, 93, 94, 95, 96, 97, 98, 99, 100, 101, 102, 103, 104, 105, 106, 107, 108, 109, 110, 111, 112, 113, 114, 115, 116, 117, 118, 119, 120, 121, 122, 123, 124, 125, 126, 127, 128, 129, 130, 131, 132, 133, 134, 135, 136, 137, 138, 139, 140, 141, 142, 143, 144, 145, 146, 147, 148, 149, 150, 151, 152, 153, 154, 155, 156, 157, 158, 159, 160, 161, 162, 163, 164, 165, 166, 167, 168, 169, 170, 171, 172, 173, 174, 175, 176, 177, 178, 179, 180, 181, 182, 183, 184, 185, 186, 187, 188, 189, 190, 191, 192, 193, 194, 195, 196, 197, 198, 199, 200, 201, 202, 203, 204, 205, 206, 207, 208, 209, 210, 211, 212, 213, 214, 215, 216, 217, 218, 219, 220, 221, 222, 223, 224, 225, 226, 227, 228, 229, 230, 231, 232, 233, 234, 235, 236, 237, 238, 239, 240, 241, 242, 243, 244, 245, 246, 247, 248, 249, 250, 251, 252, 253, 254, 255, 256, 257, 258, 259, 260, 261, 262, 263, 264, 265, 266, 267, 268, 269, 270, 271, 272, 273, 274, 275, 276, 277, 278, 279, 280, 281, 282, 283, 284, 285, 286, 287, 288, 289, 290, 291, 292, 293, 294, 295, 296, 297, 298, 299, 300],
      "AcquisitionTime": ["133052.672500", "133053.672500", "133054.672500", "133055.672500", "133056.672500", "133057.672500", "133058.672500", "133059.672500", "133100.672500", "133101.672500", "133102.672500", "133103.672500", "133104.672500", "133105.672500", "133106.672500", "133107.672500", "133108.672500", "133109.672500", "133110.672500", "133111.672500", "133112.672500", "133113.672500", "133114.672500", "133115.672500", "133116.672500", "133117.672500", "133118.672500", "133119.672500", "133120.672500", "133121.672500", "133122.672500", "133123.672500", "133124.672500", "133125.672500", "133126.672500", "133127.672500", "133128.672500", "133129.672500", "133130.672500", "133131.672500", "133132.672500", "133133.672500", "133134.672500", "133135.672500", "133136.672500", "133137.672500", "133138.672500", "133139.672500", "133140.672500", "133141.672500", "133142.672500", "133143.672500", "133144.672500", "133145.672500", "133146.672500", "133147.672500", "133148.672500", "133149.672500", "133150.672500", "133151.672500", "133152.672500", "133153.672500", "133154.672500", "133155.672500", "133156.672500", "133157.672500", "133158.672500", "133159.672500", "133200.672500", "133201.672500", "133202.672500", "133203.672500", "133204.672500", "133205.672500", "133206.672500", "133207.672500", "133208.672500", "133209.672500", "133210.672500", "133211.672500", "133212.672500", "133213.672500", "133214.672500", "133215.672500", "133216.672500", "133217.672500", "133218.672500", "133219.672500", "133220.672500", "133221.672500", "133222.672500", "133223.672500", "133224.672500", "133225.672500", "133226.672500", "133227.672500", "133228.672500", "133229.672500", "133230.672500", "133231.672500", "133232.672500", "133233.672500", "133234.672500", "133235.672500", "133236.672500", "133237.672500", "133238.672500", "133239.672500", "133240.672500", "133241.672500", "133242.672500", "133243.672500", "133244.672500", "133245.672500", "133246.672500", "133247.672500", "133248.672500", "133249.672500", "133250.672500", "133251.672500", "133252.672500", "133253.672500", "133254.672500", "133255.672500", "133256.672500", "133257.672500", "133258.672500", "133259.672500", "133300.672500", "133301.672500", "133302.672500", "133303.672500", "133304.672500", "133305.672500", "133306.672500", "133307.672500", "133308.672500", "133309.672500", "133310.672500", "133311.672500", "133312.672500", "133313.672500", "133314.672500", "133315.672500", "133316.672500", "133317.672500", "133318.672500", "133319.672500", "133320.672500", "133321.672500", "133322.672500", "133323.672500", "133324.672500", "133325.672500", "133326.672500", "133327.672500", "133328.672500", "133329.672500", "133330.672500", "133331.672500", "133332.672500", "133333.672500", "133334.672500", "133335.672500", "133336.672500", "133337.672500", "133338.672500", "133339.672500", "133340.672500", "133341.672500", "133342.672500", "133343.672500", "133344.672500", "133345.672500", "133346.672500", "133347.672500", "133348.672500", "133349.672500", "133350.672500", "133351.672500", "133352.672500", "133353.672500", "133354.672500", "133355.672500", "133356.672500", "133357.672500", "133358.672500", "133359.672500", "133400.672500", "133401.672500", "133402.672500", "133403.672500", "133404.672500", "133405.672500", "133406.672500", "133407.672500", "133408.672500", "133409.672500", "133410.672500", "133411.672500", "133412.672500", "133413.672500", "133414.672500", "133415.672500", "133416.672500", "133417.672500", "133418.672500", "133419.672500", "133420.672500", "133421.672500", "133422.672500", "133423.672500", "133424.672500", "133425.672500", "133426.672500", "133427.672500", "133428.672500", "133429.672500", "133430.672500", "133431.672500", "133432.672500", "133433.672500", "133434.672500", "133435.672500", "133436.672500", "133437.672500", "133438.672500", "133439.672500", "133440.672500", "133441.672500", "133442.672500", "133443.672500", "133444.672500", "133445.672500", "133446.672500", "133447.672500", "133448.672500", "133449.672500", "133450.672500", "133451.672500", "133452.672500", "133453.672500", "133454.672500", "133455.672500", "133456.672500", "133457.672500", "133458.672500", "133459.672500", "133500.672500", "133501.672500", "133502.672500", "133503.672500", "133504.672500", "133505.672500", "133506.672500", "133507.672500", "133508.672500", "133509.672500", "133510.672500", "133511.672500", "133512.672500", "133513.672500", "133514.672500", "133515.672500", "133516.672500", "133517.672500", "133518.672500", "133519.672500", "133520.672500", "133521.672500", "133522.672500", "133523.672500", "133524.672500", "133525.672500", "133526.672500", "133527.672500", "133528.672500", "133529.672500", "133530.672500", "133531.672500", "133532.672500", "133533.672500", "133534.672500", "133535.672500", "133536.672500", "133537.672500", "133538.672500", "133539.672500", "133540.672500", "133541.672500", "133542.672500", "133543.672500", "133544.672500", "133545.672500", "133546.672500", "133547.672500", "133548.672500", "133549.672500", "133550.672500", "133551.672500"],
      "ContentTime": ["133205.129000", "133205.133000", "133205.136000", "133205.145000", "133205.155000", "133205.158000", "133205.161000", "133205.169000", "133205.172000", "133205.175000", "133205.178000", "133205.181000", "133205.184000", "133205.187000", "133205.190000", "133205.193000", "133205.196000", "133205.199000", "133205.202000", "133205.205000", "133205.208000", "133205.211000", "133205.214000", "133205.217000", "133225.095000", "133225.098000", "133225.101000", "133225.104000", "133225.107000", "133225.110000", "133225.113000", "133225.116000", "133225.119000", "133225.122000", "133225.125000", "133225.128000", "133225.132000", "133225.135000", "133225.138000", "133225.141000", "133225.144000", "133225.146000", "133225.150000", "133225.153000", "133225.156000", "133225.159000", "133225.162000", "133225.178000", "133225.189000", "133225.192000", "133225.195000", "133225.198000", "133245.095000", "133245.098000", "133245.101000", "133245.104000", "133245.107000", "133245.110000", "133245.113000", "133245.116000", "133245.119000", "133245.122000", "133245.125000", "133245.129000", "133245.132000", "133245.135000", "133245.138000", "133245.141000", "133245.144000", "133245.147000", "133245.150000", "133245.153000", "133245.156000", "133245.159000", "133245.162000", "133245.165000", "133245.168000", "133245.171000", "133245.174000", "133245.177000", "133305.096000", "133305.099000", "133305.102000", "133305.105000", "133305.108000", "133305.112000", "133305.115000", "133305.118000", "133305.121000", "133305.124000", "133305.127000", "133305.130000", "133305.133000", "133305.136000", "133305.139000", "133305.142000", "133305.145000", "133305.148000", "133305.151000", "133305.154000", "133305.157000", "133305.160000", "133305.163000", "133305.166000", "133305.169000", "133305.172000", "133305.175000", "133305.178000", "133325.096000", "133325.099000", "133325.102000", "133325.105000", "133325.108000", "133325.111000", "133325.114000", "133325.117000", "133325.120000", "133325.123000", "133325.174000", "133325.177000", "133325.180000", "133325.183000", "133325.186000", "133325.189000", "133325.192000", "133325.195000", "133325.198000", "133325.201000", "133325.204000", "133325.207000", "133325.210000", "133325.213000", "133325.216000", "133325.219000", "133325.222000", "133325.225000", "133325.228000", "133345.095000", "133345.098000", "133345.101000", "133345.104000", "133345.107000", "133345.110000", "133345.113000", "133345.116000", "133345.119000", "133345.122000", "133345.125000", "133345.129000", "133345.132000", "133345.135000", "133345.138000", "133345.141000", "133345.144000", "133345.147000", "133345.150000", "133345.153000", "133345.156000", "133345.159000", "133345.162000", "133345.165000", "133345.168000", "133345.171000", "133345.174000", "133345.177000", "133405.095000", "133405.098000", "133405.101000", "133405.104000", "133405.107000", "133405.110000", "133405.113000", "133405.116000", "133405.119000", "133405.122000", "133405.125000", "133405.128000", "133405.132000", "133405.135000", "133405.138000", "133405.141000", "133405.144000", "133405.147000", "133405.150000", "133405.153000", "133405.156000", "133405.159000", "133405.162000", "133405.165000", "133405.168000", "133405.171000", "133405.174000", "133425.095000", "133425.098000", "133425.101000", "133425.104000", "133425.107000", "133425.110000", "133425.113000", "133425.116000", "133425.119000", "133425.122000", "133425.125000", "133425.128000", "133425.131000", "133425.135000", "133425.142000", "133425.145000", "133425.148000", "133425.152000", "133425.155000", "133425.158000", "133445.095000", "133445.098000", "133445.101000", "133445.104000", "133445.107000", "133445.110000", "133445.113000", "133445.116000", "133445.119000", "133445.122000", "133445.125000", "133445.129000", "133445.132000", "133445.135000", "133445.138000", "133445.141000", "133445.144000", "133445.147000", "133445.165000", "133445.168000", "133505.095000", "133505.098000", "133505.101000", "133505.104000", "133505.107000", "133505.110000", "133505.113000", "133505.116000", "133505.119000", "133505.122000", "133505.125000", "133505.129000", "133505.132000", "133505.135000", "133505.138000", "133505.141000", "133505.144000", "133505.147000", "133505.150000", "133505.153000", "133525.096000", "133525.099000", "133525.102000", "133525.105000", "133525.108000", "133525.111000", "133525.114000", "133525.117000", "133525.120000", "133525.123000", "133525.126000", "133525.130000", "133525.133000", "133525.136000", "133525.139000", "133525.142000", "133525.145000", "133525.148000", "133525.151000", "133525.154000", "133545.096000", "133545.099000", "133545.102000", "133545.105000", "133545.108000", "133545.111000", "133545.114000", "133545.118000", "133545.121000", "133545.124000", "133545.127000", "133545.130000", "133545.133000", "133545.136000", "133545.139000", "133545.142000", "133545.145000", "133545.148000", "133545.151000", "133545.154000", "133553.124000", "133553.128000", "133553.131000", "133553.134000", "133553.137000", "133553.140000", "133553.143000", "133553.146000"],
      "InstanceCreationTime": ["133205.129000", "133205.133000", "133205.136000", "133205.145000", "133205.155000", "133205.158000", "133205.161000", "133205.169000", "133205.172000", "133205.175000", "133205.178000", "133205.181000", "133205.184000", "133205.187000", "133205.190000", "133205.193000", "133205.196000", "133205.199000", "133205.202000", "133205.205000", "133205.208000", "133205.211000", "133205.214000", "133205.217000", "133225.095000", "133225.098000", "133225.101000", "133225.104000", "133225.107000", "133225.110000", "133225.113000", "133225.116000", "133225.119000", "133225.122000", "133225.125000", "133225.128000", "133225.132000", "133225.135000", "133225.138000", "133225.141000", "133225.144000", "133225.146000", "133225.150000", "133225.153000", "133225.156000", "133225.159000", "133225.162000", "133225.178000", "133225.189000", "133225.192000", "133225.195000", "133225.198000", "133245.095000", "133245.098000", "133245.101000", "133245.104000", "133245.107000", "133245.110000", "133245.113000", "133245.116000", "133245.119000", "133245.122000", "133245.125000", "133245.129000", "133245.132000", "133245.135000", "133245.138000", "133245.141000", "133245.144000", "133245.147000", "133245.150000", "133245.153000", "133245.156000", "133245.159000", "133245.162000", "133245.165000", "133245.168000", "133245.171000", "133245.174000", "133245.177000", "133305.096000", "133305.099000", "133305.102000", "133305.105000", "133305.108000", "133305.112000", "133305.115000", "133305.118000", "133305.121000", "133305.124000", "133305.127000", "133305.130000", "133305.133000", "133305.136000", "133305.139000", "133305.142000", "133305.145000", "133305.148000", "133305.151000", "133305.154000", "133305.157000", "133305.160000", "133305.163000", "133305.166000", "133305.169000", "133305.172000", "133305.175000", "133305.178000", "133325.096000", "133325.099000", "133325.102000", "133325.105000", "133325.108000", "133325.111000", "133325.114000", "133325.117000", "133325.120000", "133325.123000", "133325.174000", "133325.177000", "133325.180000", "133325.183000", "133325.186000", "133325.189000", "133325.192000", "133325.195000", "133325.198000", "133325.201000", "133325.204000", "133325.207000", "133325.210000", "133325.213000", "133325.216000", "133325.219000", "133325.222000", "133325.225000", "133325.228000", "133345.095000", "133345.098000", "133345.101000", "133345.104000", "133345.107000", "133345.110000", "133345.113000", "133345.116000", "133345.119000", "133345.122000", "133345.125000", "133345.129000", "133345.132000", "133345.135000", "133345.138000", "133345.141000", "133345.144000", "133345.147000", "133345.150000", "133345.153000", "133345.156000", "133345.159000", "133345.162000", "133345.165000", "133345.168000", "133345.171000", "133345.174000", "133345.177000", "133405.095000", "133405.098000", "133405.101000", "133405.104000", "133405.107000", "133405.110000", "133405.113000", "133405.116000", "133405.119000", "133405.122000", "133405.125000", "133405.128000", "133405.132000", "133405.135000", "133405.138000", "133405.141000", "133405.144000", "133405.147000", "133405.150000", "133405.153000", "133405.156000", "133405.159000", "133405.162000", "133405.165000", "133405.168000", "133405.171000", "133405.174000", "133425.095000", "133425.098000", "133425.101000", "133425.104000", "133425.107000", "133425.110000", "133425.113000", "133425.116000", "133425.119000", "133425.122000", "133425.125000", "133425.128000", "133425.131000", "133425.135000", "133425.142000", "133425.145000", "133425.148000", "133425.152000", "133425.155000", "133425.158000", "133445.095000", "133445.098000", "133445.101000", "133445.104000", "133445.107000", "133445.110000", "133445.113000", "133445.116000", "133445.119000", "133445.122000", "133445.125000", "133445.129000", "133445.132000", "133445.135000", "133445.138000", "133445.141000", "133445.144000", "133445.147000", "133445.165000", "133445.168000", "133505.095000", "133505.098000", "133505.101000", "133505.104000", "133505.107000", "133505.110000", "133505.113000", "133505.116000", "133505.119000", "133505.122000", "133505.125000", "133505.129000", "133505.132000", "133505.135000", "133505.138000", "133505.141000", "133505.144000", "133505.147000", "133505.150000", "133505.153000", "133525.096000", "133525.099000", "133525.102000", "133525.105000", "133525.108000", "133525.111000", "133525.114000", "133525.117000", "133525.120000", "133525.123000", "133525.126000", "133525.130000", "133525.133000", "133525.136000", "133525.139000", "133525.142000", "133525.145000", "133525.148000", "133525.151000", "133525.154000", "133545.096000", "133545.099000", "133545.102000", "133545.105000", "133545.108000", "133545.111000", "133545.114000", "133545.118000", "133545.121000", "133545.124000", "133545.127000", "133545.130000", "133545.133000", "133545.136000", "133545.139000", "133545.142000", "133545.145000", "133545.148000", "133545.151000", "133545.154000", "133553.124000", "133553.128000", "133553.131000", "133553.134000", "133553.137000", "133553.140000", "133553.143000", "133553.146000"],
      "InstanceNumber": [1, 2, 3, 4, 5, 6, 7, 8, 9, 10, 11, 12, 13, 14, 15, 16, 17, 18, 19, 20, 21, 22, 23, 24, 25, 26, 27, 28, 29, 30, 31, 32, 33, 34, 35, 36, 37, 38, 39, 40, 41, 42, 43, 44, 45, 46, 47, 48, 49, 50, 51, 52, 53, 54, 55, 56, 57, 58, 59, 60, 61, 62, 63, 64, 65, 66, 67, 68, 69, 70, 71, 72, 73, 74, 75, 76, 77, 78, 79, 80, 81, 82, 83, 84, 85, 86, 87, 88, 89, 90, 91, 92, 93, 94, 95, 96, 97, 98, 99, 100, 101, 102, 103, 104, 105, 106, 107, 108, 109, 110, 111, 112, 113, 114, 115, 116, 117, 118, 119, 120, 121, 122, 123, 124, 125, 126, 127, 128, 129, 130, 131, 132, 133, 134, 135, 136, 137, 138, 139, 140, 141, 142, 143, 144, 145, 146, 147, 148, 149, 150, 151, 152, 153, 154, 155, 156, 157, 158, 159, 160, 161, 162, 163, 164, 165, 166, 167, 168, 169, 170, 171, 172, 173, 174, 175, 176, 177, 178, 179, 180, 181, 182, 183, 184, 185, 186, 187, 188, 189, 190, 191, 192, 193, 194, 195, 196, 197, 198, 199, 200, 201, 202, 203, 204, 205, 206, 207, 208, 209, 210, 211, 212, 213, 214, 215, 216, 217, 218, 219, 220, 221, 222, 223, 224, 225, 226, 227, 228, 229, 230, 231, 232, 233, 234, 235, 236, 237, 238, 239, 240, 241, 242, 243, 244, 245, 246, 247, 248, 249, 250, 251, 252, 253, 254, 255, 256, 257, 258, 259, 260, 261, 262, 263, 264, 265, 266, 267, 268, 269, 270, 271, 272, 273, 274, 275, 276, 277, 278, 279, 280, 281, 282, 283, 284, 285, 286, 287, 288, 289, 290, 291, 292, 293, 294, 295, 296, 297, 298, 299, 300],
      "LargestImagePixelValue": [53351, 51061, 50539, 49726, 50262, 49807, 49510, 49951, 49262, 48946, 48674, 49101, 48630, 49087, 49061, 49392, 49389, 49281, 49186, 48741, 48880, 47704, 48523, 48507, 48484, 48855, 48959, 49648, 48775, 48497, 49174, 48021, 48883, 48908, 48812, 48728, 49289, 49137, 49047, 48950, 49195, 49095, 48901, 48018, 48150, 48716, 48913, 49059, 49265, 49447, 48893, 49099, 49640, 49388, 48618, 48597, 48905, 48887, 48489, 49006, 48376, 48844, 49123, 48817, 49211, 49798, 48927, 48816, 48556, 48460, 48271, 48444, 48759, 48909, 48933, 49259, 49566, 49271, 49235, 49693, 50148, 49772, 49834, 50274, 49797, 49250, 49061, 48401, 48733, 48928, 48650, 49633, 49445, 49209, 48668, 48734, 49459, 49310, 49355, 48938, 49394, 49605, 49062, 49524, 49438, 49476, 48007, 47061, 48445, 48865, 49227, 49077, 49109, 49119, 49323, 49714, 49933, 49725, 48543, 49588, 49155, 50502, 50200, 51164, 49173, 50520, 50312, 50247, 50270, 51263, 50161, 50456, 50749, 49768, 50232, 50818, 49548, 50041, 49816, 50060, 48950, 49356, 49049, 48670, 48882, 48638, 48258, 48937, 47974, 48310, 48458, 48641, 48073, 48954, 49198, 48906, 49773, 48732, 49151, 49100, 48201, 48971, 48494, 48325, 48940, 48826, 49072, 49724, 49801, 48969, 49167, 47700, 48368, 46707, 48604, 49154, 49711, 49732, 49952, 50511, 50852, 51484, 50917, 51084, 51894, 51689, 51278, 51501, 51279, 50912, 51573, 52081, 52130, 51857, 51801, 51834, 51804, 51622, 51137, 51428, 50993, 50914, 51274, 50779, 49836, 50387, 50415, 49034, 50143, 50269, 49922, 50017, 49753, 50026, 49687, 50002, 50347, 51501, 50354, 50377, 51163, 51523, 49920, 51006, 50926, 50594, 51402, 51202, 50319, 50804, 50742, 50261, 50443, 50639, 51150, 50119, 51316, 50722, 50936, 51188, 50817, 50946, 50592, 50232, 50611, 50328, 49861, 50212, 49460, 50016, 49993, 49813, 50129, 49782, 50293, 50571, 50521, 49918, 50266, 49716, 50740, 51055, 50653, 51049, 51198, 50611, 50471, 50754, 50940, 50689, 50093, 49955, 51228, 51259, 51310, 51423, 50763, 50779, 50924, 51609, 51219, 51898, 51470, 50768, 51094, 51688, 50720, 50308, 50465, 50748, 51216, 51708, 51744, 51694, 51292, 50872, 50897, 51337, 51164, 51633],
      "WindowCenter": [11281.0, 11234.0, 11194.0, 11173.0, 11174.0, 11182.0, 11175.0, 11183.0, 11200.0, 11198.0, 11189.0, 11180.0, 11185.0, 11177.0, 11169.0, 11177.0, 11182.0, 11182.0, 11196.0, 11184.0, 11190.0, 11187.0, 11187.0, 11182.0, 11177.0, 11178.0, 11173.0, 11202.0, 11191.0, 11190.0, 11186.0, 11172.0, 11167.0, 11151.0, 11157.0, 11156.0, 11161.0, 11177.0, 11193.0, 11207.0, 11224.0, 11225.0, 11208.0, 11188.0, 11174.0, 11160.0, 11152.0, 11150.0, 11153.0, 11169.0, 11170.0, 11173.0, 11189.0, 11190.0, 11179.0, 11169.0, 11166.0, 11166.0, 11166.0, 11159.0, 11168.0, 11180.0, 11180.0, 11192.0, 11195.0, 11205.0, 11199.0, 11198.0, 11187.0, 11184.0, 11178.0, 11167.0, 11162.0, 11157.0, 11152.0, 11160.0, 11157.0, 11176.0, 11168.0, 11176.0, 11161.0, 11164.0, 11169.0, 11172.0, 11177.0, 11169.0, 11161.0, 11158.0, 11164.0, 11170.0, 11178.0, 11181.0, 11180.0, 11182.0, 11167.0, 11163.0, 11176.0, 11184.0, 11177.0, 11171.0, 11168.0, 11173.0, 11172.0, 11165.0, 11159.0, 11167.0, 11154.0, 11152.0, 11169.0, 11184.0, 11196.0, 11193.0, 11185.0, 11172.0, 11148.0, 11127.0, 11110.0, 11093.0, 11079.0, 11080.0, 11078.0, 11114.0, 11128.0, 11146.0, 11123.0, 11124.0, 11103.0, 11110.0, 11122.0, 11146.0, 11154.0, 11162.0, 11165.0, 11166.0, 11178.0, 11196.0, 11199.0, 11213.0, 11228.0, 11236.0, 11226.0, 11220.0, 11215.0, 11213.0, 11211.0, 11215.0, 11210.0, 11220.0, 11214.0, 11213.0, 11213.0, 11230.0, 11207.0, 11198.0, 11203.0, 11198.0, 11205.0, 11206.0, 11209.0, 11199.0, 11202.0, 11197.0, 11193.0, 11186.0, 11188.0, 11193.0, 11188.0, 11187.0, 11198.0, 11198.0, 11197.0, 11202.0, 11190.0, 11174.0, 11195.0, 11197.0, 11185.0, 11178.0, 11164.0, 11159.0, 11153.0, 11154.0, 11157.0, 11157.0, 11173.0, 11188.0, 11197.0, 11194.0, 11189.0, 11182.0, 11169.0, 11173.0, 11170.0, 11160.0, 11171.0, 11174.0, 11184.0, 11196.0, 11199.0, 11202.0, 11200.0, 11210.0, 11205.0, 11206.0, 11203.0, 11201.0, 11215.0, 11204.0, 11218.0, 11226.0, 11222.0, 11217.0, 11201.0, 11193.0, 11179.0, 11180.0, 11179.0, 11186.0, 11182.0, 11175.0, 11182.0, 11188.0, 11180.0, 11176.0, 11175.0, 11176.0, 11192.0, 11202.0, 11201.0, 11200.0, 11192.0, 11193.0, 11180.0, 11168.0, 11172.0, 11168.0, 11185.0, 11192.0, 11188.0, 11189.0, 11187.0, 11183.0, 11177.0, 11191.0, 11195.0, 11195.0, 11190.0, 11202.0, 11201.0, 11198.0, 11200.0, 11201.0, 11214.0, 11218.0, 11224.0, 11225.0, 11218.0, 11202.0, 11196.0, 11177.0, 11174.0, 11167.0, 11169.0, 11180.0, 11188.0, 11200.0, 11205.0, 11210.0, 11204.0, 11201.0, 11189.0, 11170.0, 11173.0, 11178.0, 11175.0, 11172.0, 11173.0, 11168.0, 11167.0, 11164.0, 11161.0, 11168.0, 11174.0, 11177.0, 11178.0, 11189.0, 11176.0, 11165.0, 11165.0, 11172.0, 11174.0, 11187.0, 11194.0, 11195.0, 11184.0, 11183.0, 11170.0, 11171.0, 11184.0, 11192.0],
