{
  "AcquisitionMatrixPE": 104,
  "AcquisitionNumber": 1,
  "AcquisitionTime": "13:10:50.557500",
  "BandwidthPerPixelPhaseEncode": 16.297,
  "BaseResolution": 104,
  "BodyPartExamined": "BRAIN",
  "ConsistencyInfo": "N4_VE11C_LATEST_20160120",
  "ConversionSoftware": "dcm2niix",
  "ConversionSoftwareVersion": "v1.0.20210317",
  "DerivedVendorReportedEchoSpacing": 0.000590009,
  "DeviceSerialNumber": "166018",
  "DwellTime": 2.1e-06,
  "EchoTime": 0.0376,
  "EchoTrainLength": 104,
  "EffectiveEchoSpacing": 0.000590009,
  "FlipAngle": 68,
  "ImageComments": "Unaliased MB6/PE3/LB",
  "ImageOrientationPatientDICOM": [0.999137, 0.0319706, 0.0265353, -0.0312246, 0.999118, -0.0280671],
  "ImageType": [
    "ORIGINAL",
    "PRIMARY",
    "M",
    "MB",
    "ND",
    "MOSAIC"
],
  "ImagingFrequency": 123.197,
  "InPlanePhaseEncodingDirectionDICOM": "COL",
  "InstitutionAddress": "Washington Place 6,NYC,NYC,US,10003",
  "InstitutionName": "NYU - CBI",
  "InstitutionalDepartmentName": "Department",
  "MRAcquisitionType": "2D",
  "MagneticFieldStrength": 3,
  "Manufacturer": "Siemens",
  "ManufacturersModelName": "Prisma",
  "Modality": "MR",
  "MultibandAccelerationFactor": 6,
  "PartialFourier": 1,
  "PatientPosition": "HFS",
  "PercentPhaseFOV": 100,
  "PercentSampling": 100,
  "PhaseEncodingDirection": "j",
  "PhaseEncodingSteps": 104,
  "PhaseResolution": 1,
  "PixelBandwidth": 2290,
  "ProcedureStepDescription": "Investigators^Winawer",
  "ProtocolName": "cmrr_mbepi_s6_2mm_66sl_PA_task-bar1",
  "PulseSequenceDetails": "%CustomerSeq%\\cmrr_mbep2d_bold",
  "ReceiveCoilActiveElements": "HC1-7",
  "ReceiveCoilName": "HeadNeck_64",
  "ReconMatrixPE": 104,
  "RepetitionTime": 1,
  "SAR": 0.0673445,
  "ScanOptions": "FS",
  "ScanningSequence": "EP",
  "SequenceName": "epfid2d1_104",
  "SequenceVariant": "SK\\SS",
  "SeriesDescription": "cmrr_mbepi_s6_2mm_66sl_PA_task-bar1",
  "SeriesNumber": 8,
  "ShimSetting": [305, -12674, -8482, 176, -24, -310, -45, 39],
  "SliceThickness": 2,
  "SliceTiming": [0, 0.535, 0.09, 0.625, 0.18, 0.7125, 0.2675, 0.8025, 0.3575, 0.8925, 0.4475, 0, 0.535, 0.09, 0.625, 0.18, 0.7125, 0.2675, 0.8025, 0.3575, 0.8925, 0.4475, 0, 0.535, 0.09, 0.625, 0.18, 0.7125, 0.2675, 0.8025, 0.3575, 0.8925, 0.4475, 0, 0.535, 0.09, 0.625, 0.18, 0.7125, 0.2675, 0.8025, 0.3575, 0.8925, 0.4475, 0, 0.535, 0.09, 0.625, 0.18, 0.7125, 0.2675, 0.8025, 0.3575, 0.8925, 0.4475, 0, 0.535, 0.09, 0.625, 0.18, 0.7125, 0.2675, 0.8025, 0.3575, 0.8925, 0.4475],
  "SoftwareVersions": "syngo MR E11",
  "SpacingBetweenSlices": 2,
  "StationName": "AWP166018",
  "TaskName": "bar1",
  "TotalReadoutTime": 0.060771,
  "TxRefAmp": 220.883,
  "VendorReportedEchoSpacing": 0.00059,
  "WipMemBlock": "2129d1b5-a45c-4367-9f8a-b6b9b3d0cbdf||Sequence: R016 ve11c/master r/8780670; Nov 27 2017 15:05:12 by eja",
  "dcmmeta_affine": [
    [-1.9982730150222778, -0.06244919076561928, 0.05481838434934616, 110.34265899658203],
    [-0.06394118070602417, 1.9982365369796753, -0.0544285848736763, -78.41769409179688],
    [0.053070537745952606, 0.05613416060805321, 1.9985076189041138, -55.575321197509766],
    [0.0, 0.0, 0.0, 1.0]
],
  "dcmmeta_reorient_transform": [
    [0.0, -1.0, 0.0, 103.0],
    [1.0, 0.0, 0.0, 0.0],
    [0.0, 0.0, 1.0, 0.0],
    [0.0, 0.0, 0.0, 1.0]
],
  "dcmmeta_shape": [104, 104, 66, 300],
  "dcmmeta_slice_dim": 2,
  "dcmmeta_version": 0.6,
  "global": {
    "const": {
      "AccessionNumber": "Lekp4ueL",
      "AcquisitionMatrix": [104, 0, 0, 104],
      "AngioFlag": "N",
      "BitsAllocated": 16,
      "BitsStored": 16,
      "BodyPartExamined": "BRAIN",
      "Columns": 936,
      "EchoNumbers": 1,
      "EchoTime": 37.6,
      "EchoTrainLength": 104,
      "FlipAngle": 68.0,
      "HighBit": 15,
      "ImageOrientationPatient": [0.99913650757735, 0.03197059165988, 0.02653526888982, -0.0312245960232, 0.99911824303022, -0.0280670812054],
      "ImagePositionPatient": [-909.21310447059, -985.26657824027, -48.519035867395],
      "ImageType": [
        "ORIGINAL",
        "PRIMARY",
        "M",
        "MB",
        "ND",
        "MOSAIC"
],
      "ImagedNucleus": "1H",
      "ImagingFrequency": 123.196818,
      "InPlanePhaseEncodingDirection": "COL",
      "MRAcquisitionType": "2D",
      "MagneticFieldStrength": 3.0,
      "Manufacturer": "SIEMENS",
      "ManufacturerModelName": "Prisma",
      "Modality": "MR",
      "NumberOfAverages": 1.0,
      "NumberOfPhaseEncodingSteps": 104,
      "PercentPhaseFieldOfView": 100.0,
      "PercentSampling": 100.0,
      "PerformedProcedureStepStartTime": "130512.337000",
      "PhotometricInterpretation": "MONOCHROME2",
      "PixelBandwidth": 2290.0,
      "PixelRepresentation": 0,
      "PixelSpacing": [2.0, 2.0],
      "ProtocolName": "cmrr_mbepi_s6_2mm_66sl_PA_task-bar1",
      "RepetitionTime": 1000.0,
      "Rows": 936,
      "SAR": 0.06734445756604,
      "SamplesPerPixel": 1,
      "ScanOptions": "FS",
      "ScanningSequence": "EP",
      "SequenceName": "epfid2d1_104",
      "SequenceVariant": [
        "SK",
        "SS"
],
      "SeriesDescription": "cmrr_mbepi_s6_2mm_66sl_PA_task-bar1",
      "SeriesNumber": 8,
      "SeriesTime": "131205.095000",
      "SliceLocation": -50.375365890519,
      "SliceThickness": 2.0,
      "SmallestImagePixelValue": 0,
      "SoftwareVersions": "syngo MR E11",
      "SpacingBetweenSlices": 2.0000000117162,
      "SpecificCharacterSet": "ISO_IR 100",
      "StudyID": "1",
      "StudyTime": "130512.255000",
      "TransmitCoilName": "Body",
      "VariableFlipAngleFlag": "N",
      "WindowCenterWidthExplanation": "Algo1",
      "dBdt": 0.0},
    "slices": {}
  },
  "time": {
    "samples": {
      "AcquisitionNumber": [1, 2, 3, 4, 5, 6, 7, 8, 9, 10, 11, 12, 13, 14, 15, 16, 17, 18, 19, 20, 21, 22, 23, 24, 25, 26, 27, 28, 29, 30, 31, 32, 33, 34, 35, 36, 37, 38, 39, 40, 41, 42, 43, 44, 45, 46, 47, 48, 49, 50, 51, 52, 53, 54, 55, 56, 57, 58, 59, 60, 61, 62, 63, 64, 65, 66, 67, 68, 69, 70, 71, 72, 73, 74, 75, 76, 77, 78, 79, 80, 81, 82, 83, 84, 85, 86, 87, 88, 89, 90, 91, 92, 93, 94, 95, 96, 97, 98, 99, 100, 101, 102, 103, 104, 105, 106, 107, 108, 109, 110, 111, 112, 113, 114, 115, 116, 117, 118, 119, 120, 121, 122, 123, 124, 125, 126, 127, 128, 129, 130, 131, 132, 133, 134, 135, 136, 137, 138, 139, 140, 141, 142, 143, 144, 145, 146, 147, 148, 149, 150, 151, 152, 153, 154, 155, 156, 157, 158, 159, 160, 161, 162, 163, 164, 165, 166, 167, 168, 169, 170, 171, 172, 173, 174, 175, 176, 177, 178, 179, 180, 181, 182, 183, 184, 185, 186, 187, 188, 189, 190, 191, 192, 193, 194, 195, 196, 197, 198, 199, 200, 201, 202, 203, 204, 205, 206, 207, 208, 209, 210, 211, 212, 213, 214, 215, 216, 217, 218, 219, 220, 221, 222, 223, 224, 225, 226, 227, 228, 229, 230, 231, 232, 233, 234, 235, 236, 237, 238, 239, 240, 241, 242, 243, 244, 245, 246, 247, 248, 249, 250, 251, 252, 253, 254, 255, 256, 257, 258, 259, 260, 261, 262, 263, 264, 265, 266, 267, 268, 269, 270, 271, 272, 273, 274, 275, 276, 277, 278, 279, 280, 281, 282, 283, 284, 285, 286, 287, 288, 289, 290, 291, 292, 293, 294, 295, 296, 297, 298, 299, 300],
      "AcquisitionTime": ["131050.557500", "131051.557500", "131052.557500", "131053.557500", "131054.557500", "131055.557500", "131056.557500", "131057.557500", "131058.557500", "131059.557500", "131100.557500", "131101.557500", "131102.557500", "131103.557500", "131104.557500", "131105.557500", "131106.557500", "131107.557500", "131108.557500", "131109.557500", "131110.557500", "131111.557500", "131112.557500", "131113.557500", "131114.557500", "131115.557500", "131116.557500", "131117.557500", "131118.557500", "131119.557500", "131120.557500", "131121.557500", "131122.557500", "131123.557500", "131124.557500", "131125.557500", "131126.557500", "131127.557500", "131128.557500", "131129.557500", "131130.557500", "131131.557500", "131132.557500", "131133.557500", "131134.557500", "131135.557500", "131136.557500", "131137.557500", "131138.557500", "131139.557500", "131140.557500", "131141.557500", "131142.557500", "131143.557500", "131144.557500", "131145.557500", "131146.557500", "131147.557500", "131148.557500", "131149.557500", "131150.557500", "131151.557500", "131152.557500", "131153.557500", "131154.557500", "131155.557500", "131156.557500", "131157.557500", "131158.557500", "131159.557500", "131200.557500", "131201.557500", "131202.557500", "131203.557500", "131204.557500", "131205.557500", "131206.557500", "131207.557500", "131208.557500", "131209.557500", "131210.557500", "131211.557500", "131212.557500", "131213.557500", "131214.557500", "131215.557500", "131216.557500", "131217.557500", "131218.557500", "131219.557500", "131220.557500", "131221.557500", "131222.557500", "131223.557500", "131224.557500", "131225.557500", "131226.557500", "131227.557500", "131228.557500", "131229.557500", "131230.557500", "131231.557500", "131232.557500", "131233.557500", "131234.557500", "131235.557500", "131236.557500", "131237.557500", "131238.557500", "131239.557500", "131240.557500", "131241.557500", "131242.557500", "131243.557500", "131244.557500", "131245.557500", "131246.557500", "131247.557500", "131248.557500", "131249.557500", "131250.557500", "131251.557500", "131252.557500", "131253.557500", "131254.557500", "131255.557500", "131256.557500", "131257.557500", "131258.557500", "131259.557500", "131300.557500", "131301.557500", "131302.557500", "131303.557500", "131304.557500", "131305.557500", "131306.557500", "131307.557500", "131308.557500", "131309.557500", "131310.557500", "131311.557500", "131312.557500", "131313.557500", "131314.557500", "131315.557500", "131316.557500", "131317.557500", "131318.557500", "131319.557500", "131320.557500", "131321.557500", "131322.557500", "131323.557500", "131324.557500", "131325.557500", "131326.557500", "131327.557500", "131328.557500", "131329.557500", "131330.557500", "131331.557500", "131332.557500", "131333.557500", "131334.557500", "131335.557500", "131336.557500", "131337.557500", "131338.557500", "131339.557500", "131340.557500", "131341.557500", "131342.557500", "131343.557500", "131344.557500", "131345.557500", "131346.557500", "131347.557500", "131348.557500", "131349.557500", "131350.557500", "131351.557500", "131352.557500", "131353.557500", "131354.557500", "131355.557500", "131356.557500", "131357.557500", "131358.557500", "131359.557500", "131400.557500", "131401.557500", "131402.557500", "131403.557500", "131404.557500", "131405.557500", "131406.557500", "131407.557500", "131408.557500", "131409.557500", "131410.557500", "131411.557500", "131412.557500", "131413.557500", "131414.557500", "131415.557500", "131416.557500", "131417.557500", "131418.557500", "131419.557500", "131420.557500", "131421.557500", "131422.557500", "131423.557500", "131424.557500", "131425.557500", "131426.557500", "131427.557500", "131428.557500", "131429.557500", "131430.557500", "131431.557500", "131432.557500", "131433.557500", "131434.557500", "131435.557500", "131436.557500", "131437.557500", "131438.557500", "131439.557500", "131440.557500", "131441.557500", "131442.557500", "131443.557500", "131444.557500", "131445.557500", "131446.557500", "131447.557500", "131448.557500", "131449.557500", "131450.557500", "131451.557500", "131452.557500", "131453.557500", "131454.557500", "131455.557500", "131456.557500", "131457.557500", "131458.557500", "131459.557500", "131500.557500", "131501.557500", "131502.557500", "131503.557500", "131504.557500", "131505.557500", "131506.557500", "131507.557500", "131508.557500", "131509.557500", "131510.557500", "131511.557500", "131512.557500", "131513.557500", "131514.557500", "131515.557500", "131516.557500", "131517.557500", "131518.557500", "131519.557500", "131520.557500", "131521.557500", "131522.557500", "131523.557500", "131524.557500", "131525.557500", "131526.557500", "131527.557500", "131528.557500", "131529.557500", "131530.557500", "131531.557500", "131532.557500", "131533.557500", "131534.557500", "131535.557500", "131536.557500", "131537.557500", "131538.557500", "131539.557500", "131540.557500", "131541.557500", "131542.557500", "131543.557500", "131544.557500", "131545.557500", "131546.557500", "131547.557500", "131548.557500", "131549.557500"],
      "ContentTime": ["131205.098000", "131205.138000", "131205.141000", "131205.144000", "131205.147000", "131205.150000", "131205.153000", "131205.156000", "131205.159000", "131205.162000", "131205.165000", "131205.169000", "131205.172000", "131205.175000", "131205.178000", "131205.181000", "131205.184000", "131205.187000", "131205.190000", "131205.193000", "131205.196000", "131205.202000", "131205.205000", "131205.208000", "131205.211000", "131205.214000", "131205.217000", "131205.220000", "131225.096000", "131225.099000", "131225.102000", "131225.105000", "131225.108000", "131225.111000", "131225.114000", "131225.117000", "131225.120000", "131225.124000", "131225.127000", "131225.130000", "131225.133000", "131225.136000", "131225.139000", "131225.142000", "131225.148000", "131225.151000", "131225.154000", "131225.157000", "131225.160000", "131225.164000", "131225.167000", "131225.170000", "131225.173000", "131225.181000", "131225.184000", "131225.187000", "131225.190000", "131245.096000", "131245.099000", "131245.102000", "131245.105000", "131245.108000", "131245.111000", "131245.114000", "131245.117000", "131245.120000", "131245.123000", "131245.126000", "131245.129000", "131245.132000", "131245.135000", "131245.138000", "131245.147000", "131245.150000", "131245.153000", "131245.156000", "131245.159000", "131245.162000", "131245.165000", "131245.168000", "131245.171000", "131245.174000", "131245.178000", "131245.180000", "131245.184000", "131305.095000", "131305.098000", "131305.101000", "131305.104000", "131305.107000", "131305.110000", "131305.113000", "131305.116000", "131305.119000", "131305.122000", "131305.125000", "131305.128000", "131305.131000", "131305.134000", "131305.137000", "131305.140000", "131305.143000", "131305.146000", "131305.150000", "131305.153000", "131305.156000", "131305.159000", "131305.162000", "131305.165000", "131305.168000", "131305.171000", "131305.174000", "131305.177000", "131305.180000", "131325.095000", "131325.098000", "131325.101000", "131325.104000", "131325.107000", "131325.110000", "131325.113000", "131325.116000", "131325.119000", "131325.122000", "131325.125000", "131325.128000", "131325.131000", "131325.134000", "131325.138000", "131325.141000", "131325.144000", "131325.147000", "131325.150000", "131325.153000", "131325.156000", "131325.159000", "131325.162000", "131325.165000", "131325.168000", "131325.171000", "131325.174000", "131325.177000", "131345.095000", "131345.098000", "131345.114000", "131345.117000", "131345.120000", "131345.123000", "131345.126000", "131345.129000", "131345.132000", "131345.135000", "131345.138000", "131345.141000", "131345.144000", "131345.147000", "131345.150000", "131345.154000", "131345.157000", "131345.160000", "131345.163000", "131345.166000", "131345.169000", "131345.172000", "131345.175000", "131345.178000", "131345.181000", "131345.184000", "131345.187000", "131345.190000", "131405.095000", "131405.098000", "131405.101000", "131405.104000", "131405.107000", "131405.110000", "131405.113000", "131405.116000", "131405.119000", "131405.123000", "131405.126000", "131405.129000", "131405.132000", "131405.135000", "131405.138000", "131405.141000", "131405.144000", "131405.147000", "131405.150000", "131405.153000", "131405.156000", "131405.159000", "131405.162000", "131405.165000", "131425.096000", "131425.099000", "131425.105000", "131425.108000", "131425.111000", "131425.114000", "131425.118000", "131425.121000", "131425.124000", "131425.127000", "131425.130000", "131425.133000", "131425.136000", "131425.139000", "131425.142000", "131425.145000", "131425.148000", "131425.151000", "131425.154000", "131425.157000", "131445.096000", "131445.099000", "131445.102000", "131445.105000", "131445.108000", "131445.111000", "131445.114000", "131445.117000", "131445.120000", "131445.123000", "131445.126000", "131445.130000", "131445.133000", "131445.136000", "131445.139000", "131445.142000", "131445.145000", "131445.148000", "131445.151000", "131445.154000", "131505.096000", "131505.099000", "131505.102000", "131505.105000", "131505.108000", "131505.111000", "131505.114000", "131505.117000", "131505.121000", "131505.124000", "131505.127000", "131505.130000", "131505.133000", "131505.136000", "131505.139000", "131505.142000", "131505.145000", "131505.148000", "131505.151000", "131505.154000", "131525.095000", "131525.098000", "131525.101000", "131525.104000", "131525.107000", "131525.118000", "131525.121000", "131525.124000", "131525.127000", "131525.130000", "131525.133000", "131525.136000", "131525.139000", "131525.142000", "131525.145000", "131525.148000", "131525.151000", "131525.155000", "131525.158000", "131525.161000", "131545.095000", "131545.098000", "131545.101000", "131545.104000", "131545.107000", "131545.110000", "131545.113000", "131545.116000", "131545.119000", "131545.123000", "131545.126000", "131545.129000", "131545.132000", "131545.135000", "131545.138000", "131545.141000", "131545.144000", "131545.147000", "131545.150000", "131545.153000", "131551.076000", "131551.079000", "131551.082000", "131551.085000", "131551.088000", "131551.092000"],
      "InstanceCreationTime": ["131205.098000", "131205.138000", "131205.141000", "131205.144000", "131205.147000", "131205.150000", "131205.153000", "131205.156000", "131205.159000", "131205.162000", "131205.165000", "131205.169000", "131205.172000", "131205.175000", "131205.178000", "131205.181000", "131205.184000", "131205.187000", "131205.190000", "131205.193000", "131205.196000", "131205.202000", "131205.205000", "131205.208000", "131205.211000", "131205.214000", "131205.217000", "131205.220000", "131225.096000", "131225.099000", "131225.102000", "131225.105000", "131225.108000", "131225.111000", "131225.114000", "131225.117000", "131225.120000", "131225.124000", "131225.127000", "131225.130000", "131225.133000", "131225.136000", "131225.139000", "131225.142000", "131225.148000", "131225.151000", "131225.154000", "131225.157000", "131225.160000", "131225.164000", "131225.167000", "131225.170000", "131225.173000", "131225.181000", "131225.184000", "131225.187000", "131225.190000", "131245.096000", "131245.099000", "131245.102000", "131245.105000", "131245.108000", "131245.111000", "131245.114000", "131245.117000", "131245.120000", "131245.123000", "131245.126000", "131245.129000", "131245.132000", "131245.135000", "131245.138000", "131245.147000", "131245.150000", "131245.153000", "131245.156000", "131245.159000", "131245.162000", "131245.165000", "131245.168000", "131245.171000", "131245.174000", "131245.178000", "131245.180000", "131245.184000", "131305.095000", "131305.098000", "131305.101000", "131305.104000", "131305.107000", "131305.110000", "131305.113000", "131305.116000", "131305.119000", "131305.122000", "131305.125000", "131305.128000", "131305.131000", "131305.134000", "131305.137000", "131305.140000", "131305.143000", "131305.146000", "131305.150000", "131305.153000", "131305.156000", "131305.159000", "131305.162000", "131305.165000", "131305.168000", "131305.171000", "131305.174000", "131305.177000", "131305.180000", "131325.095000", "131325.098000", "131325.101000", "131325.104000", "131325.107000", "131325.110000", "131325.113000", "131325.116000", "131325.119000", "131325.122000", "131325.125000", "131325.128000", "131325.131000", "131325.134000", "131325.138000", "131325.141000", "131325.144000", "131325.147000", "131325.150000", "131325.153000", "131325.156000", "131325.159000", "131325.162000", "131325.165000", "131325.168000", "131325.171000", "131325.174000", "131325.177000", "131345.095000", "131345.098000", "131345.114000", "131345.117000", "131345.120000", "131345.123000", "131345.126000", "131345.129000", "131345.132000", "131345.135000", "131345.138000", "131345.141000", "131345.144000", "131345.147000", "131345.150000", "131345.154000", "131345.157000", "131345.160000", "131345.163000", "131345.166000", "131345.169000", "131345.172000", "131345.175000", "131345.178000", "131345.181000", "131345.184000", "131345.187000", "131345.190000", "131405.095000", "131405.098000", "131405.101000", "131405.104000", "131405.107000", "131405.110000", "131405.113000", "131405.116000", "131405.119000", "131405.123000", "131405.126000", "131405.129000", "131405.132000", "131405.135000", "131405.138000", "131405.141000", "131405.144000", "131405.147000", "131405.150000", "131405.153000", "131405.156000", "131405.159000", "131405.162000", "131405.165000", "131425.096000", "131425.099000", "131425.105000", "131425.108000", "131425.111000", "131425.114000", "131425.118000", "131425.121000", "131425.124000", "131425.127000", "131425.130000", "131425.133000", "131425.136000", "131425.139000", "131425.142000", "131425.145000", "131425.148000", "131425.151000", "131425.154000", "131425.157000", "131445.096000", "131445.099000", "131445.102000", "131445.105000", "131445.108000", "131445.111000", "131445.114000", "131445.117000", "131445.120000", "131445.123000", "131445.126000", "131445.130000", "131445.133000", "131445.136000", "131445.139000", "131445.142000", "131445.145000", "131445.148000", "131445.151000", "131445.154000", "131505.096000", "131505.099000", "131505.102000", "131505.105000", "131505.108000", "131505.111000", "131505.114000", "131505.117000", "131505.121000", "131505.124000", "131505.127000", "131505.130000", "131505.133000", "131505.136000", "131505.139000", "131505.142000", "131505.145000", "131505.148000", "131505.151000", "131505.154000", "131525.095000", "131525.098000", "131525.101000", "131525.104000", "131525.107000", "131525.118000", "131525.121000", "131525.124000", "131525.127000", "131525.130000", "131525.133000", "131525.136000", "131525.139000", "131525.142000", "131525.145000", "131525.148000", "131525.151000", "131525.155000", "131525.158000", "131525.161000", "131545.095000", "131545.098000", "131545.101000", "131545.104000", "131545.107000", "131545.110000", "131545.113000", "131545.116000", "131545.119000", "131545.123000", "131545.126000", "131545.129000", "131545.132000", "131545.135000", "131545.138000", "131545.141000", "131545.144000", "131545.147000", "131545.150000", "131545.153000", "131551.076000", "131551.079000", "131551.082000", "131551.085000", "131551.088000", "131551.092000"],
      "InstanceNumber": [1, 2, 3, 4, 5, 6, 7, 8, 9, 10, 11, 12, 13, 14, 15, 16, 17, 18, 19, 20, 21, 22, 23, 24, 25, 26, 27, 28, 29, 30, 31, 32, 33, 34, 35, 36, 37, 38, 39, 40, 41, 42, 43, 44, 45, 46, 47, 48, 49, 50, 51, 52, 53, 54, 55, 56, 57, 58, 59, 60, 61, 62, 63, 64, 65, 66, 67, 68, 69, 70, 71, 72, 73, 74, 75, 76, 77, 78, 79, 80, 81, 82, 83, 84, 85, 86, 87, 88, 89, 90, 91, 92, 93, 94, 95, 96, 97, 98, 99, 100, 101, 102, 103, 104, 105, 106, 107, 108, 109, 110, 111, 112, 113, 114, 115, 116, 117, 118, 119, 120, 121, 122, 123, 124, 125, 126, 127, 128, 129, 130, 131, 132, 133, 134, 135, 136, 137, 138, 139, 140, 141, 142, 143, 144, 145, 146, 147, 148, 149, 150, 151, 152, 153, 154, 155, 156, 157, 158, 159, 160, 161, 162, 163, 164, 165, 166, 167, 168, 169, 170, 171, 172, 173, 174, 175, 176, 177, 178, 179, 180, 181, 182, 183, 184, 185, 186, 187, 188, 189, 190, 191, 192, 193, 194, 195, 196, 197, 198, 199, 200, 201, 202, 203, 204, 205, 206, 207, 208, 209, 210, 211, 212, 213, 214, 215, 216, 217, 218, 219, 220, 221, 222, 223, 224, 225, 226, 227, 228, 229, 230, 231, 232, 233, 234, 235, 236, 237, 238, 239, 240, 241, 242, 243, 244, 245, 246, 247, 248, 249, 250, 251, 252, 253, 254, 255, 256, 257, 258, 259, 260, 261, 262, 263, 264, 265, 266, 267, 268, 269, 270, 271, 272, 273, 274, 275, 276, 277, 278, 279, 280, 281, 282, 283, 284, 285, 286, 287, 288, 289, 290, 291, 292, 293, 294, 295, 296, 297, 298, 299, 300],
      "LargestImagePixelValue": [50001, 48923, 48746, 48520, 47501, 47139, 46819, 46227, 46961, 46849, 46947, 46926, 46357, 46685, 46702, 46698, 46188, 46637, 47017, 47004, 46970, 47478, 46170, 46621, 46697, 46102, 46147, 46189, 46039, 46424, 45859, 46301, 46228, 46121, 45834, 45955, 46212, 46072, 46110, 46207, 46216, 46223, 46601, 46710, 46640, 46472, 46610, 46528, 46630, 46381, 46585, 46942, 46226, 46452, 46467, 46064, 46320, 46376, 45957, 46185, 46572, 45784, 46326, 46227, 45857, 46325, 46013, 46083, 46166, 46479, 46785, 46711, 46942, 46750, 46380, 46270, 46883, 46505, 46136, 46769, 46911, 47146, 47240, 46775, 46623, 46998, 46375, 46525, 46580, 46333, 46560, 46419, 46720, 46685, 46674, 46658, 47054, 47203, 46910, 47406, 46781, 47254, 47022, 46912, 46690, 47243, 46840, 47064, 46513, 47101, 47138, 47240, 46917, 47019, 47954, 47881, 47268, 47521, 47255, 47549, 47386, 47363, 47424, 47333, 47098, 47178, 47279, 46994, 47098, 47007, 46805, 46554, 46660, 46223, 46276, 46129, 46753, 46507, 46730, 46914, 47175, 47191, 47722, 47604, 47772, 47233, 46944, 47630, 47672, 47712, 47131, 47688, 47460, 47462, 47238, 47197, 47313, 47240, 47185, 47256, 47676, 47374, 47516, 47492, 47129, 46792, 46853, 46920, 47027, 46783, 46723, 46859, 46943, 46980, 46970, 46835, 46919, 46641, 46909, 46795, 46360, 46928, 47171, 46754, 47038, 47251, 47530, 47478, 47739, 47608, 47598, 47869, 47467, 47450, 47586, 47169, 47023, 46992, 47178, 46783, 47477, 47207, 47871, 47192, 47181, 47331, 47878, 47615, 47965, 47333, 47228, 46922, 46660, 46733, 46871, 46731, 47398, 46827, 46806, 46951, 47042, 47130, 47069, 47501, 47223, 47239, 47806, 47587, 47291, 47247, 47128, 47001, 47249, 47195, 47235, 47004, 47127, 47035, 47415, 47235, 47189, 46653, 47264, 47087, 47179, 47698, 47035, 47185, 47233, 47837, 47659, 47600, 48031, 47469, 47423, 47834, 47810, 47805, 47578, 47114, 48185, 48717, 49343, 48682, 48707, 48189, 48292, 48333, 48078, 47826, 48092, 47865, 48120, 48761, 48554, 48615, 49301, 49568, 49426, 49421, 49479, 49387, 49752, 49059, 49005, 48789, 49351, 48538, 49302, 49035, 49138, 49979, 49347, 49033, 48892, 48409, 49138, 49076, 48463, 48716],
      "WindowCenter": [11298.0, 11257.0, 11241.0, 11245.0, 11245.0, 11255.0, 11245.0, 11239.0, 11248.0, 11235.0, 11238.0, 11244.0, 11238.0, 11235.0, 11227.0, 11218.0, 11215.0, 11208.0, 11206.0, 11213.0, 11216.0, 11227.0, 11236.0, 11242.0, 11249.0, 11247.0, 11246.0, 11253.0, 11267.0, 11267.0, 11263.0, 11267.0, 11271.0, 11267.0, 11265.0, 11274.0, 11269.0, 11261.0, 11249.0, 11245.0, 11245.0, 11230.0, 11232.0, 11232.0, 11227.0, 11227.0, 11233.0, 11228.0, 11221.0, 11221.0, 11222.0, 11223.0, 11227.0, 11239.0, 11240.0, 11246.0, 11243.0, 11251.0, 11254.0, 11256.0, 11269.0, 11273.0, 11278.0, 11274.0, 11267.0, 11254.0, 11249.0, 11246.0, 11227.0, 11227.0, 11229.0, 11225.0, 11229.0, 11236.0, 11225.0, 11224.0, 11228.0, 11217.0, 11205.0, 11213.0, 11211.0, 11218.0, 11223.0, 11226.0, 11231.0, 11234.0, 11243.0, 11239.0, 11237.0, 11237.0, 11232.0, 11218.0, 11219.0, 11210.0, 11206.0, 11199.0, 11201.0, 11200.0, 11197.0, 11193.0, 11199.0, 11216.0, 11215.0, 11218.0, 11223.0, 11232.0, 11233.0, 11248.0, 11245.0, 11240.0, 11240.0, 11228.0, 11208.0, 11198.0, 11207.0, 11209.0, 11210.0, 11218.0, 11229.0, 11232.0, 11236.0, 11239.0, 11244.0, 11239.0, 11238.0, 11233.0, 11236.0, 11252.0, 11261.0, 11269.0, 11279.0, 11275.0, 11280.0, 11268.0, 11261.0, 11248.0, 11249.0, 11232.0, 11228.0, 11228.0, 11222.0, 11216.0, 11225.0, 11228.0, 11222.0, 11214.0, 11216.0, 11220.0, 11219.0, 11220.0, 11223.0, 11232.0, 11228.0, 11235.0, 11242.0, 11238.0, 11236.0, 11230.0, 11230.0, 11238.0, 11240.0, 11236.0, 11237.0, 11232.0, 11231.0, 11229.0, 11227.0, 11237.0, 11239.0, 11242.0, 11248.0, 11250.0, 11250.0, 11253.0, 11255.0, 11243.0, 11250.0, 11252.0, 11253.0, 11249.0, 11253.0, 11255.0, 11249.0, 11247.0, 11242.0, 11234.0, 11223.0, 11210.0, 11205.0, 11211.0, 11219.0, 11238.0, 11247.0, 11249.0, 11248.0, 11240.0, 11246.0, 11248.0, 11248.0, 11242.0, 11241.0, 11234.0, 11230.0, 11217.0, 11216.0, 11226.0, 11224.0, 11235.0, 11248.0, 11252.0, 11263.0, 11264.0, 11252.0, 11252.0, 11251.0, 11245.0, 11239.0, 11243.0, 11236.0, 11232.0, 11234.0, 11233.0, 11225.0, 11228.0, 11221.0, 11215.0, 11219.0, 11222.0, 11216.0, 11222.0, 11213.0, 11211.0, 11223.0, 11225.0, 11225.0, 11226.0, 11228.0, 11225.0, 11231.0, 11239.0, 11234.0, 11243.0, 11245.0, 11241.0, 11234.0, 11249.0, 11239.0, 11227.0, 11229.0, 11230.0, 11238.0, 11230.0, 11233.0, 11233.0, 11224.0, 11227.0, 11237.0, 11229.0, 11228.0, 11219.0, 11225.0, 11225.0, 11228.0, 11224.0, 11221.0, 11228.0, 11222.0, 11220.0, 11209.0, 11198.0, 11188.0, 11165.0, 11147.0, 11136.0, 11118.0, 11108.0, 11111.0, 11114.0, 11127.0, 11129.0, 11144.0, 11173.0, 11191.0, 11196.0, 11203.0, 11198.0, 11205.0, 11192.0, 11187.0, 11202.0, 11207.0, 11219.0, 11226.0, 11228.0, 11240.0, 11245.0, 11254.0, 11261.0, 11243.0, 11237.0],
