{
  "AcquisitionMatrixPE": 104,
  "AcquisitionNumber": 1,
  "AcquisitionTime": "13:36:55.380000",
  "BandwidthPerPixelPhaseEncode": 16.578,
  "BaseResolution": 104,
  "BodyPartExamined": "BRAIN",
  "ConsistencyInfo": "N4_VE11C_LATEST_20160120",
  "ConversionSoftware": "dcm2niix",
  "ConversionSoftwareVersion": "v1.0.20190902",
  "DerivedVendorReportedEchoSpacing": 0.000580009,
  "DeviceSerialNumber": "166018",
  "DwellTime": 2.1e-06,
  "EchoTime": 0.037,
  "EchoTrainLength": 104,
  "EffectiveEchoSpacing": 0.000580009,
  "FlipAngle": 68,
  "ImageComments": "Unaliased_MB6_PE3_LB",
  "ImageOrientationPatientDICOM": [0.995554, 0.0645202, -0.0686182, -0.0769534, 0.97726, -0.19759],
  "ImageType": [
    "ORIGINAL",
    "PRIMARY",
    "M",
    "MB",
    "ND",
    "MOSAIC"
],
  "ImagingFrequency": 123.191,
  "InPlanePhaseEncodingDirectionDICOM": "COL",
  "InstitutionAddress": "Washington_Place_6_NYC_NYC_US_10003",
  "InstitutionName": "NYU_-_CBI",
  "InstitutionalDepartmentName": "Department",
  "MRAcquisitionType": "2D",
  "MagneticFieldStrength": 3,
  "Manufacturer": "Siemens",
  "ManufacturersModelName": "Prisma",
  "Modality": "MR",
  "MultibandAccelerationFactor": 6,
  "PartialFourier": 1,
  "PatientPosition": "HFS",
  "PercentPhaseFOV": 100,
  "PhaseEncodingDirection": "j",
  "PhaseEncodingSteps": 104,
  "PhaseResolution": 1,
  "PixelBandwidth": 2290,
  "ProcedureStepDescription": "Investigators_Winawer",
  "ProtocolName": "cmrr_mbepi_s6_2mm_66sl_PA_task-prf",
  "PulseSequenceDetails": "%CustomerSeq%_cmrr_mbep2d_bold",
  "ReceiveCoilActiveElements": "HC1-7",
  "ReceiveCoilName": "HeadNeck_64",
  "ReconMatrixPE": 104,
  "RepetitionTime": 1,
  "SAR": 0.0983483,
  "ScanOptions": "FS",
  "ScanningSequence": "EP",
  "SequenceName": "epfid2d1_104",
  "SequenceVariant": "SK_SS",
  "SeriesDescription": "cmrr_mbepi_s6_2mm_66sl_PA_task-prf",
  "SeriesNumber": 16,
  "ShimSetting": [231, -12585, -8463, 401, -12, -194, 23, 27],
  "SliceThickness": 2,
  "SliceTiming": [0, 0.535, 0.09, 0.6225, 0.1775, 0.7125, 0.2675, 0.8025, 0.3575, 0.89, 0.445, 0, 0.535, 0.09, 0.6225, 0.1775, 0.7125, 0.2675, 0.8025, 0.3575, 0.89, 0.445, 0, 0.535, 0.09, 0.6225, 0.1775, 0.7125, 0.2675, 0.8025, 0.3575, 0.89, 0.445, 0, 0.535, 0.09, 0.6225, 0.1775, 0.7125, 0.2675, 0.8025, 0.3575, 0.89, 0.445, 0, 0.535, 0.09, 0.6225, 0.1775, 0.7125, 0.2675, 0.8025, 0.3575, 0.89, 0.445, 0, 0.535, 0.09, 0.6225, 0.1775, 0.7125, 0.2675, 0.8025, 0.3575, 0.89, 0.445],
  "SoftwareVersions": "syngo_MR_E11",
  "SpacingBetweenSlices": 2,
  "StationName": "AWP166018",
  "TaskName": "prf",
  "TotalReadoutTime": 0.0597409,
  "TxRefAmp": 271.107,
  "WipMemBlock": "e3efcfaf-b4f0-49eb-82a6-e9b015d56c2a||Sequence: R016 ve11c/master r/8780670; Nov 27 2017 15:05:12 by eja",
  "dcmmeta_affine": [
    [-1.9911088943481445, -0.15390674769878387, -0.10861846804618835, 114.90558624267578],
    [-0.1290404498577118, 1.954519271850586, -0.4039839208126068, -68.88261413574219],
    [-0.13723637163639069, 0.3951798975467682, 1.9557604789733887, -60.4350471496582],
    [0.0, 0.0, 0.0, 1.0]
],
  "dcmmeta_reorient_transform": [
    [0.0, -1.0, 0.0, 103.0],
    [1.0, 0.0, 0.0, 0.0],
    [0.0, 0.0, 1.0, 0.0],
    [0.0, 0.0, 0.0, 1.0]
],
  "dcmmeta_shape": [104, 104, 66, 192],
  "dcmmeta_slice_dim": 2,
  "dcmmeta_version": 0.6,
  "global": {
    "const": {
      "AccessionNumber": "jxweL473",
      "AcquisitionMatrix": [104, 0, 0, 104],
      "AngioFlag": "N",
      "BitsAllocated": 16,
      "BitsStored": 16,
      "BodyPartExamined": "BRAIN",
      "Columns": 936,
      "EchoNumbers": 1,
      "EchoTime": 37.0,
      "EchoTrainLength": 104,
      "FlipAngle": 68.0,
      "HighBit": 15,
      "ImageOrientationPatient": [0.99555446120522, 0.0645202274782, -0.0686181828712, -0.0769533761215, 0.97725963343646, -0.1975899459971],
      "ImagePositionPatient": [-863.32929168096, -999.19371646346, 201.75364477183],
      "ImageType": [
        "ORIGINAL",
        "PRIMARY",
        "M",
        "MB",
        "ND",
        "MOSAIC"
],
      "ImagedNucleus": "1H",
      "ImagingFrequency": 123.191079,
      "InPlanePhaseEncodingDirection": "COL",
      "MRAcquisitionType": "2D",
      "MagneticFieldStrength": 3.0,
      "Manufacturer": "SIEMENS",
      "ManufacturerModelName": "Prisma",
      "Modality": "MR",
      "NumberOfAverages": 1.0,
      "NumberOfPhaseEncodingSteps": 104,
      "PercentPhaseFieldOfView": 100.0,
      "PercentSampling": 100.0,
      "PerformedProcedureStepStartTime": "131535.069000",
      "PhotometricInterpretation": "MONOCHROME2",
      "PixelBandwidth": 2290.0,
      "PixelRepresentation": 0,
      "PixelSpacing": [2.0, 2.0],
      "ProtocolName": "cmrr_mbepi_s6_2mm_66sl_PA_task-prf",
      "RepetitionTime": 1000.0,
      "Rows": 936,
      "SAR": 0.0983482532159,
      "SamplesPerPixel": 1,
      "ScanOptions": "FS",
      "ScanningSequence": "EP",
      "SequenceName": "epfid2d1_104",
      "SequenceVariant": [
        "SK",
        "SS"
],
      "SeriesDescription": "cmrr_mbepi_s6_2mm_66sl_PA_task-prf",
      "SeriesNumber": 16,
      "SeriesTime": "133759.642000",
      "SliceLocation": -51.424939053249,
      "SliceThickness": 2.0,
      "SmallestImagePixelValue": 0,
      "SoftwareVersions": "syngo MR E11",
      "SpacingBetweenSlices": 2.0000000124456,
      "SpecificCharacterSet": "ISO_IR 100",
      "StudyID": "1",
      "StudyTime": "131534.955000",
      "TransmitCoilName": "Body",
      "VariableFlipAngleFlag": "N",
      "WindowCenterWidthExplanation": "Algo1",
      "dBdt": 0.0},
    "slices": {}
  },
  "time": {
    "samples": {
      "AcquisitionNumber": [1, 2, 3, 4, 5, 6, 7, 8, 9, 10, 11, 12, 13, 14, 15, 16, 17, 18, 19, 20, 21, 22, 23, 24, 25, 26, 27, 28, 29, 30, 31, 32, 33, 34, 35, 36, 37, 38, 39, 40, 41, 42, 43, 44, 45, 46, 47, 48, 49, 50, 51, 52, 53, 54, 55, 56, 57, 58, 59, 60, 61, 62, 63, 64, 65, 66, 67, 68, 69, 70, 71, 72, 73, 74, 75, 76, 77, 78, 79, 80, 81, 82, 83, 84, 85, 86, 87, 88, 89, 90, 91, 92, 93, 94, 95, 96, 97, 98, 99, 100, 101, 102, 103, 104, 105, 106, 107, 108, 109, 110, 111, 112, 113, 114, 115, 116, 117, 118, 119, 120, 121, 122, 123, 124, 125, 126, 127, 128, 129, 130, 131, 132, 133, 134, 135, 136, 137, 138, 139, 140, 141, 142, 143, 144, 145, 146, 147, 148, 149, 150, 151, 152, 153, 154, 155, 156, 157, 158, 159, 160, 161, 162, 163, 164, 165, 166, 167, 168, 169, 170, 171, 172, 173, 174, 175, 176, 177, 178, 179, 180, 181, 182, 183, 184, 185, 186, 187, 188, 189, 190, 191, 192],
      "AcquisitionTime": ["133655.380000", "133656.380000", "133657.380000", "133658.380000", "133659.380000", "133700.380000", "133701.380000", "133702.380000", "133703.380000", "133704.380000", "133705.380000", "133706.380000", "133707.380000", "133708.380000", "133709.380000", "133710.380000", "133711.380000", "133712.380000", "133713.380000", "133714.380000", "133715.380000", "133716.380000", "133717.380000", "133718.380000", "133719.380000", "133720.380000", "133721.380000", "133722.380000", "133723.380000", "133724.380000", "133725.380000", "133726.380000", "133727.380000", "133728.380000", "133729.380000", "133730.380000", "133731.380000", "133732.380000", "133733.380000", "133734.380000", "133735.380000", "133736.380000", "133737.380000", "133738.380000", "133739.380000", "133740.380000", "133741.380000", "133742.380000", "133743.380000", "133744.380000", "133745.380000", "133746.380000", "133747.380000", "133748.380000", "133749.380000", "133750.380000", "133751.380000", "133752.380000", "133753.380000", "133754.380000", "133755.380000", "133756.380000", "133757.380000", "133758.380000", "133759.380000", "133800.380000", "133801.380000", "133802.380000", "133803.380000", "133804.380000", "133805.380000", "133806.380000", "133807.380000", "133808.380000", "133809.380000", "133810.380000", "133811.380000", "133812.380000", "133813.380000", "133814.380000", "133815.380000", "133816.380000", "133817.380000", "133818.380000", "133819.380000", "133820.380000", "133821.380000", "133822.380000", "133823.380000", "133824.380000", "133825.380000", "133826.380000", "133827.380000", "133828.380000", "133829.380000", "133830.380000", "133831.380000", "133832.380000", "133833.380000", "133834.380000", "133835.380000", "133836.380000", "133837.380000", "133838.380000", "133839.380000", "133840.380000", "133841.380000", "133842.380000", "133843.380000", "133844.380000", "133845.380000", "133846.380000", "133847.380000", "133848.380000", "133849.380000", "133850.380000", "133851.380000", "133852.380000", "133853.380000", "133854.380000", "133855.380000", "133856.380000", "133857.380000", "133858.380000", "133859.380000", "133900.380000", "133901.380000", "133902.380000", "133903.380000", "133904.380000", "133905.380000", "133906.380000", "133907.380000", "133908.380000", "133909.380000", "133910.380000", "133911.380000", "133912.380000", "133913.380000", "133914.380000", "133915.380000", "133916.380000", "133917.380000", "133918.380000", "133919.380000", "133920.380000", "133921.380000", "133922.380000", "133923.380000", "133924.380000", "133925.380000", "133926.380000", "133927.380000", "133928.380000", "133929.380000", "133930.380000", "133931.380000", "133932.380000", "133933.380000", "133934.380000", "133935.380000", "133936.380000", "133937.380000", "133938.380000", "133939.380000", "133940.380000", "133941.380000", "133942.380000", "133943.380000", "133944.380000", "133945.380000", "133946.380000", "133947.380000", "133948.380000", "133949.380000", "133950.380000", "133951.380000", "133952.380000", "133953.380000", "133954.380000", "133955.380000", "133956.380000", "133957.380000", "133958.380000", "133959.380000", "134000.380000", "134001.380000", "134002.380000", "134003.380000", "134004.380000", "134005.380000", "134006.380000"],
      "ContentTime": ["133759.645000", "133759.649000", "133759.652000", "133759.657000", "133759.660000", "133759.663000", "133759.666000", "133759.669000", "133759.672000", "133759.675000", "133759.678000", "133759.681000", "133759.684000", "133759.687000", "133759.690000", "133759.693000", "133759.696000", "133759.699000", "133759.702000", "133759.705000", "133759.717000", "133759.720000", "133819.616000", "133819.634000", "133819.637000", "133819.640000", "133819.643000", "133819.647000", "133819.650000", "133819.653000", "133819.656000", "133819.659000", "133819.662000", "133819.665000", "133819.668000", "133819.671000", "133819.674000", "133819.677000", "133819.680000", "133819.683000", "133819.686000", "133819.689000", "133819.692000", "133819.696000", "133819.699000", "133819.702000", "133819.705000", "133819.708000", "133819.711000", "133819.714000", "133839.615000", "133839.618000", "133839.621000", "133839.624000", "133839.627000", "133839.631000", "133839.634000", "133839.637000", "133839.640000", "133839.643000", "133839.646000", "133839.649000", "133839.653000", "133839.656000", "133839.659000", "133839.662000", "133839.665000", "133839.668000", "133839.671000", "133839.674000", "133839.677000", "133839.680000", "133839.683000", "133839.686000", "133839.689000", "133839.692000", "133839.695000", "133839.699000", "133859.616000", "133859.619000", "133859.622000", "133859.625000", "133859.628000", "133859.631000", "133859.634000", "133859.637000", "133859.640000", "133859.643000", "133859.646000", "133859.649000", "133859.653000", "133859.655000", "133859.658000", "133859.662000", "133859.665000", "133859.668000", "133859.671000", "133859.674000", "133859.677000", "133859.680000", "133859.683000", "133859.686000", "133859.689000", "133859.692000", "133859.695000", "133859.698000", "133859.701000", "133919.616000", "133919.619000", "133919.622000", "133919.625000", "133919.628000", "133919.631000", "133919.635000", "133919.638000", "133919.641000", "133919.643000", "133919.647000", "133919.650000", "133919.653000", "133919.656000", "133919.659000", "133919.662000", "133919.665000", "133919.668000", "133919.671000", "133919.674000", "133919.677000", "133919.680000", "133919.683000", "133919.686000", "133919.689000", "133919.692000", "133919.695000", "133919.698000", "133939.616000", "133939.619000", "133939.622000", "133939.625000", "133939.628000", "133939.631000", "133939.634000", "133939.637000", "133939.640000", "133939.654000", "133939.658000", "133939.661000", "133939.664000", "133939.667000", "133939.670000", "133939.673000", "133939.677000", "133939.680000", "133939.683000", "133939.686000", "133939.689000", "133939.692000", "133939.695000", "133939.698000", "133939.701000", "133939.704000", "133939.707000", "133939.710000", "133939.713000", "133959.616000", "133959.619000", "133959.622000", "133959.625000", "133959.628000", "133959.631000", "133959.634000", "133959.638000", "133959.641000", "133959.643000", "133959.646000", "133959.650000", "133959.653000", "133959.656000", "133959.659000", "133959.662000", "133959.665000", "133959.668000", "133959.671000", "133959.674000", "134007.602000", "134007.605000", "134007.608000", "134007.611000", "134007.614000", "134007.617000", "134007.620000", "134007.623000"],
      "InstanceCreationTime": ["133759.645000", "133759.649000", "133759.652000", "133759.657000", "133759.660000", "133759.663000", "133759.666000", "133759.669000", "133759.672000", "133759.675000", "133759.678000", "133759.681000", "133759.684000", "133759.687000", "133759.690000", "133759.693000", "133759.696000", "133759.699000", "133759.702000", "133759.705000", "133759.717000", "133759.720000", "133819.616000", "133819.634000", "133819.637000", "133819.640000", "133819.643000", "133819.647000", "133819.650000", "133819.653000", "133819.656000", "133819.659000", "133819.662000", "133819.665000", "133819.668000", "133819.671000", "133819.674000", "133819.677000", "133819.680000", "133819.683000", "133819.686000", "133819.689000", "133819.692000", "133819.696000", "133819.699000", "133819.702000", "133819.705000", "133819.708000", "133819.711000", "133819.714000", "133839.615000", "133839.618000", "133839.621000", "133839.624000", "133839.627000", "133839.631000", "133839.634000", "133839.637000", "133839.640000", "133839.643000", "133839.646000", "133839.649000", "133839.653000", "133839.656000", "133839.659000", "133839.662000", "133839.665000", "133839.668000", "133839.671000", "133839.674000", "133839.677000", "133839.680000", "133839.683000", "133839.686000", "133839.689000", "133839.692000", "133839.695000", "133839.699000", "133859.616000", "133859.619000", "133859.622000", "133859.625000", "133859.628000", "133859.631000", "133859.634000", "133859.637000", "133859.640000", "133859.643000", "133859.646000", "133859.649000", "133859.653000", "133859.655000", "133859.658000", "133859.662000", "133859.665000", "133859.668000", "133859.671000", "133859.674000", "133859.677000", "133859.680000", "133859.683000", "133859.686000", "133859.689000", "133859.692000", "133859.695000", "133859.698000", "133859.701000", "133919.616000", "133919.619000", "133919.622000", "133919.625000", "133919.628000", "133919.631000", "133919.635000", "133919.638000", "133919.641000", "133919.643000", "133919.647000", "133919.650000", "133919.653000", "133919.656000", "133919.659000", "133919.662000", "133919.665000", "133919.668000", "133919.671000", "133919.674000", "133919.677000", "133919.680000", "133919.683000", "133919.686000", "133919.689000", "133919.692000", "133919.695000", "133919.698000", "133939.616000", "133939.619000", "133939.622000", "133939.625000", "133939.628000", "133939.631000", "133939.634000", "133939.637000", "133939.640000", "133939.654000", "133939.658000", "133939.661000", "133939.664000", "133939.667000", "133939.670000", "133939.673000", "133939.677000", "133939.680000", "133939.683000", "133939.686000", "133939.689000", "133939.692000", "133939.695000", "133939.698000", "133939.701000", "133939.704000", "133939.707000", "133939.710000", "133939.713000", "133959.616000", "133959.619000", "133959.622000", "133959.625000", "133959.628000", "133959.631000", "133959.634000", "133959.638000", "133959.641000", "133959.643000", "133959.646000", "133959.650000", "133959.653000", "133959.656000", "133959.659000", "133959.662000", "133959.665000", "133959.668000", "133959.671000", "133959.674000", "134007.602000", "134007.605000", "134007.608000", "134007.611000", "134007.614000", "134007.617000", "134007.620000", "134007.623000"],
      "InstanceNumber": [1, 2, 3, 4, 5, 6, 7, 8, 9, 10, 11, 12, 13, 14, 15, 16, 17, 18, 19, 20, 21, 22, 23, 24, 25, 26, 27, 28, 29, 30, 31, 32, 33, 34, 35, 36, 37, 38, 39, 40, 41, 42, 43, 44, 45, 46, 47, 48, 49, 50, 51, 52, 53, 54, 55, 56, 57, 58, 59, 60, 61, 62, 63, 64, 65, 66, 67, 68, 69, 70, 71, 72, 73, 74, 75, 76, 77, 78, 79, 80, 81, 82, 83, 84, 85, 86, 87, 88, 89, 90, 91, 92, 93, 94, 95, 96, 97, 98, 99, 100, 101, 102, 103, 104, 105, 106, 107, 108, 109, 110, 111, 112, 113, 114, 115, 116, 117, 118, 119, 120, 121, 122, 123, 124, 125, 126, 127, 128, 129, 130, 131, 132, 133, 134, 135, 136, 137, 138, 139, 140, 141, 142, 143, 144, 145, 146, 147, 148, 149, 150, 151, 152, 153, 154, 155, 156, 157, 158, 159, 160, 161, 162, 163, 164, 165, 166, 167, 168, 169, 170, 171, 172, 173, 174, 175, 176, 177, 178, 179, 180, 181, 182, 183, 184, 185, 186, 187, 188, 189, 190, 191, 192],
      "LargestImagePixelValue": [37542, 36296, 35583, 36634, 36898, 37344, 38832, 38789, 36527, 36429, 37195, 37644, 38317, 37784, 36880, 38622, 35412, 35864, 36661, 37935, 37109, 38284, 37717, 35439, 36036, 37944, 37781, 38504, 36227, 35766, 36057, 38266, 37648, 38656, 37418, 35958, 36752, 39376, 39072, 39188, 37514, 38248, 37135, 36450, 36329, 37277, 37977, 37228, 37250, 38622, 35784, 35659, 37497, 37738, 38604, 37766, 37962, 39765, 37996, 37016, 37248, 36859, 37331, 37791, 37511, 37562, 37815, 36890, 38710, 37554, 37744, 37658, 36797, 37374, 37321, 38001, 39034, 39555, 38895, 38895, 39368, 38952, 40150, 40158, 38413, 37129, 36556, 38437, 38082, 37880, 35799, 38036, 36930, 37287, 35225, 36811, 36039, 36921, 36268, 37450, 37545, 37205, 37805, 38528, 39218, 38699, 37577, 38316, 39813, 37323, 37383, 37022, 38059, 37836, 37621, 38468, 37419, 37660, 37312, 37672, 38720, 38562, 38178, 39392, 38759, 38116, 37863, 37314, 36828, 37838, 36373, 36214, 39269, 39543, 38571, 38781, 38621, 38598, 38659, 39302, 38511, 38177, 39739, 38412, 35221, 36327, 37464, 36983, 38173, 40018, 39690, 38608, 39699, 38861, 37064, 37297, 39080, 39456, 36598, 36704, 37395, 37102, 37093, 37583, 36010, 36401, 37718, 37559, 36262, 37507, 36633, 37529, 37771, 37764, 37246, 36945, 38646, 37466, 36819, 37935, 37483, 37364, 37833, 39121, 38981, 36603, 37661, 37229, 36152, 37011, 36910, 37096],
      "WindowCenter": [9232.0, 9188.0, 9162.0, 9183.0, 9201.0, 9222.0, 9245.0, 9245.0, 9224.0, 9221.0, 9235.0, 9246.0, 9259.0, 9263.0, 9249.0, 9259.0, 9230.0, 9237.0, 9250.0, 9252.0, 9230.0, 9249.0, 9241.0, 9225.0, 9232.0, 9242.0, 9242.0, 9239.0, 9221.0, 9232.0, 9253.0, 9270.0, 9250.0, 9251.0, 9242.0, 9236.0, 9260.0, 9265.0, 9247.0, 9228.0, 9206.0, 9219.0, 9216.0, 9220.0, 9228.0, 9236.0, 9258.0, 9244.0, 9245.0, 9258.0, 9232.0, 9234.0, 9247.0, 9253.0, 9258.0, 9261.0, 9282.0, 9275.0, 9238.0, 9220.0, 9204.0, 9194.0, 9207.0, 9213.0, 9210.0, 9217.0, 9226.0, 9221.0, 9242.0, 9228.0, 9224.0, 9215.0, 9202.0, 9207.0, 9207.0, 9215.0, 9225.0, 9230.0, 9218.0, 9225.0, 9234.0, 9237.0, 9242.0, 9242.0, 9226.0, 9218.0, 9213.0, 9243.0, 9242.0, 9254.0, 9248.0, 9265.0, 9227.0, 9219.0, 9191.0, 9194.0, 9197.0, 9201.0, 9203.0, 9225.0, 9222.0, 9210.0, 9217.0, 9221.0, 9226.0, 9229.0, 9219.0, 9231.0, 9235.0, 9210.0, 9218.0, 9221.0, 9250.0, 9234.0, 9225.0, 9224.0, 9216.0, 9224.0, 9225.0, 9217.0, 9218.0, 9209.0, 9202.0, 9211.0, 9198.0, 9201.0, 9208.0, 9213.0, 9218.0, 9212.0, 9197.0, 9215.0, 9236.0, 9215.0, 9195.0, 9199.0, 9198.0, 9191.0, 9191.0, 9202.0, 9163.0, 9223.0, 9230.0, 9237.0, 9238.0, 9246.0, 9232.0, 9222.0, 9226.0, 9234.0, 9218.0, 9211.0, 9224.0, 9227.0, 9229.0, 9227.0, 9238.0, 9238.0, 9212.0, 9218.0, 9230.0, 9228.0, 9221.0, 9208.0, 9184.0, 9181.0, 9192.0, 9184.0, 9167.0, 9193.0, 9191.0, 9197.0, 9204.0, 9204.0, 9198.0, 9200.0, 9229.0, 9206.0, 9218.0, 9230.0, 9198.0, 9192.0, 9189.0, 9207.0, 9208.0, 9183.0, 9203.0, 9215.0, 9216.0, 9239.0, 9221.0, 9203.0],
      "WindowWidth": [19620.0, 19518.0, 19462.0, 19498.0, 19537.0, 19577.0, 19622.0, 19624.0, 19592.0, 19587.0, 19608.0, 19634.0, 19660.0, 19675.0, 19651.0, 19663.0, 19617.0, 19624.0, 19650.0, 19644.0, 19603.0, 19630.0, 19615.0, 19595.0, 19609.0, 19618.0, 19620.0, 19611.0, 19579.0, 19609.0, 19657.0, 19683.0, 19645.0, 19643.0, 19620.0, 19618.0, 19671.0, 19667.0, 19630.0, 19587.0, 19546.0, 19566.0, 19566.0, 19577.0, 19595.0, 19608.0, 19650.0, 19627.0, 19626.0, 19645.0, 19606.0, 19613.0, 19633.0, 19643.0, 19648.0, 19658.0, 19707.0, 19685.0, 19611.0, 19579.0, 19548.0, 19523.0, 19549.0, 19560.0, 19562.0, 19573.0, 19594.0, 19586.0, 19620.0, 19595.0, 19579.0, 19556.0, 19535.0, 19544.0, 19544.0, 19559.0, 19573.0, 19580.0, 19558.0, 19575.0, 19593.0, 19606.0, 19614.0, 19611.0, 19588.0, 19578.0, 19572.0, 19627.0, 19627.0, 19653.0, 19645.0, 19674.0, 19593.0, 19567.0, 19517.0, 19520.0, 19533.0, 19537.0, 19544.0, 19584.0, 19576.0, 19557.0, 19563.0, 19569.0, 19578.0, 19586.0, 19576.0, 19598.0, 19600.0, 19561.0, 19576.0, 19586.0, 19645.0, 19613.0, 19593.0, 19581.0, 19563.0, 19580.0, 19581.0, 19563.0, 19558.0, 19539.0, 19524.0, 19536.0, 19513.0, 19524.0, 19540.0, 19555.0, 19571.0, 19552.0, 19527.0, 19568.0, 19596.0, 19549.0, 19516.0, 19520.0, 19514.0, 19501.0, 19502.0, 19517.0, 19444.0, 19575.0, 19581.0, 19598.0, 19623.0, 19638.0, 19601.0, 19579.0, 19584.0, 19592.0, 19561.0, 19549.0, 19572.0, 19584.0, 19600.0, 19596.0, 19612.0, 19612.0, 19572.0, 19581.0, 19607.0, 19599.0, 19584.0, 19550.0, 19499.0, 19491.0, 19507.0, 19493.0, 19464.0, 19507.0, 19514.0, 19524.0, 19536.0, 19535.0, 19524.0, 19529.0, 19591.0, 19543.0, 19568.0, 19590.0, 19522.0, 19515.0, 19507.0, 19539.0, 19539.0, 19501.0, 19532.0, 19563.0, 19573.0, 19615.0, 19577.0, 19535.0]
    },
    "slices": {}
  },
  "NumberOfVolumes": 192
}