{
  "AcquisitionMatrixPE": 104,
  "AcquisitionNumber": 1,
  "AcquisitionTime": "13:41:17.452500",
  "BandwidthPerPixelPhaseEncode": 16.578,
  "BaseResolution": 104,
  "BodyPartExamined": "BRAIN",
  "ConsistencyInfo": "N4_VE11C_LATEST_20160120",
  "ConversionSoftware": "dcm2niix",
  "ConversionSoftwareVersion": "v1.0.20190902",
  "DerivedVendorReportedEchoSpacing": 0.000580009,
  "DeviceSerialNumber": "166018",
  "DwellTime": 2.1e-06,
  "EchoTime": 0.037,
  "EchoTrainLength": 104,
  "EffectiveEchoSpacing": 0.000580009,
  "FlipAngle": 68,
  "ImageComments": "Unaliased_MB6_PE3_LB",
  "ImageOrientationPatientDICOM": [0.995554, 0.0645202, -0.0686182, -0.0769534, 0.97726, -0.19759],
  "ImageType": [
    "ORIGINAL",
    "PRIMARY",
    "M",
    "MB",
    "ND",
    "MOSAIC"
],
  "ImagingFrequency": 123.191,
  "InPlanePhaseEncodingDirectionDICOM": "COL",
  "InstitutionAddress": "Washington_Place_6_NYC_NYC_US_10003",
  "InstitutionName": "NYU_-_CBI",
  "InstitutionalDepartmentName": "Department",
  "MRAcquisitionType": "2D",
  "MagneticFieldStrength": 3,
  "Manufacturer": "Siemens",
  "ManufacturersModelName": "Prisma",
  "Modality": "MR",
  "MultibandAccelerationFactor": 6,
  "PartialFourier": 1,
  "PatientPosition": "HFS",
  "PercentPhaseFOV": 100,
  "PhaseEncodingDirection": "j",
  "PhaseEncodingSteps": 104,
  "PhaseResolution": 1,
  "PixelBandwidth": 2290,
  "ProcedureStepDescription": "Investigators_Winawer",
  "ProtocolName": "cmrr_mbepi_s6_2mm_66sl_PA_task-prf",
  "PulseSequenceDetails": "%CustomerSeq%_cmrr_mbep2d_bold",
  "ReceiveCoilActiveElements": "HC1-7",
  "ReceiveCoilName": "HeadNeck_64",
  "ReconMatrixPE": 104,
  "RepetitionTime": 1,
  "SAR": 0.0983483,
  "ScanOptions": "FS",
  "ScanningSequence": "EP",
  "SequenceName": "epfid2d1_104",
  "SequenceVariant": "SK_SS",
  "SeriesDescription": "cmrr_mbepi_s6_2mm_66sl_PA_task-prf",
  "SeriesNumber": 18,
  "ShimSetting": [231, -12585, -8463, 401, -12, -194, 23, 27],
  "SliceThickness": 2,
  "SliceTiming": [0, 0.535, 0.0875, 0.6225, 0.1775, 0.7125, 0.2675, 0.8025, 0.355, 0.89, 0.445, 0, 0.535, 0.0875, 0.6225, 0.1775, 0.7125, 0.2675, 0.8025, 0.355, 0.89, 0.445, 0, 0.535, 0.0875, 0.6225, 0.1775, 0.7125, 0.2675, 0.8025, 0.355, 0.89, 0.445, 0, 0.535, 0.0875, 0.6225, 0.1775, 0.7125, 0.2675, 0.8025, 0.355, 0.89, 0.445, 0, 0.535, 0.0875, 0.6225, 0.1775, 0.7125, 0.2675, 0.8025, 0.355, 0.89, 0.445, 0, 0.535, 0.0875, 0.6225, 0.1775, 0.7125, 0.2675, 0.8025, 0.355, 0.89, 0.445],
  "SoftwareVersions": "syngo_MR_E11",
  "SpacingBetweenSlices": 2,
  "StationName": "AWP166018",
  "TaskName": "prf",
  "TotalReadoutTime": 0.0597409,
  "TxRefAmp": 271.107,
  "WipMemBlock": "93d34e30-bc81-42ed-a11e-c856b2457942||Sequence: R016 ve11c/master r/8780670; Nov 27 2017 15:05:12 by eja",
  "dcmmeta_affine": [
    [-1.9911088943481445, -0.15390674769878387, -0.10861846804618835, 114.90558624267578],
    [-0.1290404498577118, 1.954519271850586, -0.4039839208126068, -68.88261413574219],
    [-0.13723637163639069, 0.3951798975467682, 1.9557604789733887, -60.4350471496582],
    [0.0, 0.0, 0.0, 1.0]
],
  "dcmmeta_reorient_transform": [
    [0.0, -1.0, 0.0, 103.0],
    [1.0, 0.0, 0.0, 0.0],
    [0.0, 0.0, 1.0, 0.0],
    [0.0, 0.0, 0.0, 1.0]
],
  "dcmmeta_shape": [104, 104, 66, 192],
  "dcmmeta_slice_dim": 2,
  "dcmmeta_version": 0.6,
  "global": {
    "const": {
      "AccessionNumber": "jxweL473",
      "AcquisitionMatrix": [104, 0, 0, 104],
      "AngioFlag": "N",
      "BitsAllocated": 16,
      "BitsStored": 16,
      "BodyPartExamined": "BRAIN",
      "Columns": 936,
      "EchoNumbers": 1,
      "EchoTime": 37.0,
      "EchoTrainLength": 104,
      "FlipAngle": 68.0,
      "HighBit": 15,
      "ImageOrientationPatient": [0.99555446120522, 0.0645202274782, -0.0686181828712, -0.0769533761215, 0.97725963343646, -0.1975899459971],
      "ImagePositionPatient": [-863.32929168096, -999.19371646346, 201.75364477183],
      "ImageType": [
        "ORIGINAL",
        "PRIMARY",
        "M",
        "MB",
        "ND",
        "MOSAIC"
],
      "ImagedNucleus": "1H",
      "ImagingFrequency": 123.191081,
      "InPlanePhaseEncodingDirection": "COL",
      "MRAcquisitionType": "2D",
      "MagneticFieldStrength": 3.0,
      "Manufacturer": "SIEMENS",
      "ManufacturerModelName": "Prisma",
      "Modality": "MR",
      "NumberOfAverages": 1.0,
      "NumberOfPhaseEncodingSteps": 104,
      "PercentPhaseFieldOfView": 100.0,
      "PercentSampling": 100.0,
      "PerformedProcedureStepStartTime": "131535.069000",
      "PhotometricInterpretation": "MONOCHROME2",
      "PixelBandwidth": 2290.0,
      "PixelRepresentation": 0,
      "PixelSpacing": [2.0, 2.0],
      "ProtocolName": "cmrr_mbepi_s6_2mm_66sl_PA_task-prf",
      "RepetitionTime": 1000.0,
      "Rows": 936,
      "SAR": 0.0983482532159,
      "SamplesPerPixel": 1,
      "ScanOptions": "FS",
      "ScanningSequence": "EP",
      "SequenceName": "epfid2d1_104",
      "SequenceVariant": [
        "SK",
        "SS"
],
      "SeriesDescription": "cmrr_mbepi_s6_2mm_66sl_PA_task-prf",
      "SeriesNumber": 18,
      "SeriesTime": "134239.713000",
      "SliceLocation": -51.424939053249,
      "SliceThickness": 2.0,
      "SmallestImagePixelValue": 0,
      "SoftwareVersions": "syngo MR E11",
      "SpacingBetweenSlices": 2.0000000124456,
      "SpecificCharacterSet": "ISO_IR 100",
      "StudyID": "1",
      "StudyTime": "131534.955000",
      "TransmitCoilName": "Body",
      "VariableFlipAngleFlag": "N",
      "WindowCenterWidthExplanation": "Algo1",
      "dBdt": 0.0},
    "slices": {}
  },
  "time": {
    "samples": {
      "AcquisitionNumber": [1, 2, 3, 4, 5, 6, 7, 8, 9, 10, 11, 12, 13, 14, 15, 16, 17, 18, 19, 20, 21, 22, 23, 24, 25, 26, 27, 28, 29, 30, 31, 32, 33, 34, 35, 36, 37, 38, 39, 40, 41, 42, 43, 44, 45, 46, 47, 48, 49, 50, 51, 52, 53, 54, 55, 56, 57, 58, 59, 60, 61, 62, 63, 64, 65, 66, 67, 68, 69, 70, 71, 72, 73, 74, 75, 76, 77, 78, 79, 80, 81, 82, 83, 84, 85, 86, 87, 88, 89, 90, 91, 92, 93, 94, 95, 96, 97, 98, 99, 100, 101, 102, 103, 104, 105, 106, 107, 108, 109, 110, 111, 112, 113, 114, 115, 116, 117, 118, 119, 120, 121, 122, 123, 124, 125, 126, 127, 128, 129, 130, 131, 132, 133, 134, 135, 136, 137, 138, 139, 140, 141, 142, 143, 144, 145, 146, 147, 148, 149, 150, 151, 152, 153, 154, 155, 156, 157, 158, 159, 160, 161, 162, 163, 164, 165, 166, 167, 168, 169, 170, 171, 172, 173, 174, 175, 176, 177, 178, 179, 180, 181, 182, 183, 184, 185, 186, 187, 188, 189, 190, 191, 192],
      "AcquisitionTime": ["134117.452500", "134118.452500", "134119.452500", "134120.452500", "134121.452500", "134122.452500", "134123.452500", "134124.452500", "134125.452500", "134126.452500", "134127.452500", "134128.452500", "134129.452500", "134130.452500", "134131.452500", "134132.452500", "134133.452500", "134134.452500", "134135.452500", "134136.452500", "134137.452500", "134138.452500", "134139.452500", "134140.452500", "134141.452500", "134142.452500", "134143.452500", "134144.452500", "134145.452500", "134146.452500", "134147.452500", "134148.452500", "134149.452500", "134150.452500", "134151.452500", "134152.452500", "134153.452500", "134154.452500", "134155.452500", "134156.452500", "134157.452500", "134158.452500", "134159.452500", "134200.452500", "134201.452500", "134202.452500", "134203.452500", "134204.452500", "134205.452500", "134206.452500", "134207.452500", "134208.452500", "134209.452500", "134210.452500", "134211.452500", "134212.452500", "134213.452500", "134214.452500", "134215.452500", "134216.452500", "134217.452500", "134218.452500", "134219.452500", "134220.452500", "134221.452500", "134222.452500", "134223.452500", "134224.452500", "134225.452500", "134226.452500", "134227.452500", "134228.452500", "134229.452500", "134230.452500", "134231.452500", "134232.452500", "134233.452500", "134234.452500", "134235.452500", "134236.452500", "134237.452500", "134238.452500", "134239.452500", "134240.452500", "134241.452500", "134242.452500", "134243.452500", "134244.452500", "134245.452500", "134246.452500", "134247.452500", "134248.452500", "134249.452500", "134250.452500", "134251.452500", "134252.452500", "134253.452500", "134254.452500", "134255.452500", "134256.452500", "134257.452500", "134258.452500", "134259.452500", "134300.452500", "134301.452500", "134302.452500", "134303.452500", "134304.452500", "134305.452500", "134306.452500", "134307.452500", "134308.452500", "134309.452500", "134310.452500", "134311.452500", "134312.452500", "134313.452500", "134314.452500", "134315.452500", "134316.452500", "134317.452500", "134318.452500", "134319.452500", "134320.452500", "134321.452500", "134322.452500", "134323.452500", "134324.452500", "134325.452500", "134326.452500", "134327.452500", "134328.452500", "134329.452500", "134330.452500", "134331.452500", "134332.452500", "134333.452500", "134334.452500", "134335.452500", "134336.452500", "134337.452500", "134338.452500", "134339.452500", "134340.452500", "134341.452500", "134342.452500", "134343.452500", "134344.452500", "134345.452500", "134346.452500", "134347.452500", "134348.452500", "134349.452500", "134350.452500", "134351.452500", "134352.452500", "134353.452500", "134354.452500", "134355.452500", "134356.452500", "134357.452500", "134358.452500", "134359.452500", "134400.452500", "134401.452500", "134402.452500", "134403.452500", "134404.452500", "134405.452500", "134406.452500", "134407.452500", "134408.452500", "134409.452500", "134410.452500", "134411.452500", "134412.452500", "134413.452500", "134414.452500", "134415.452500", "134416.452500", "134417.452500", "134418.452500", "134419.452500", "134420.452500", "134421.452500", "134422.452500", "134423.452500", "134424.452500", "134425.452500", "134426.452500", "134427.452500", "134428.452500"],
      "ContentTime": ["134239.716000", "134239.720000", "134239.723000", "134239.726000", "134239.730000", "134239.733000", "134239.736000", "134239.739000", "134239.742000", "134239.745000", "134239.748000", "134239.751000", "134239.754000", "134239.757000", "134239.760000", "134239.763000", "134239.767000", "134239.770000", "134239.773000", "134239.776000", "134239.779000", "134239.786000", "134239.789000", "134239.792000", "134239.798000", "134239.801000", "134239.804000", "134239.807000", "134239.810000", "134239.813000", "134239.816000", "134239.819000", "134239.822000", "134239.825000", "134239.828000", "134239.831000", "134259.685000", "134259.688000", "134259.691000", "134259.694000", "134259.697000", "134259.700000", "134259.703000", "134259.706000", "134259.714000", "134259.717000", "134259.720000", "134259.723000", "134259.726000", "134259.729000", "134259.732000", "134259.735000", "134259.738000", "134259.741000", "134259.744000", "134259.747000", "134259.750000", "134259.753000", "134259.756000", "134259.759000", "134259.762000", "134259.765000", "134259.768000", "134259.771000", "134259.774000", "134319.685000", "134319.688000", "134319.691000", "134319.694000", "134319.697000", "134319.700000", "134319.703000", "134319.706000", "134319.709000", "134319.712000", "134319.715000", "134319.718000", "134319.721000", "134319.724000", "134319.727000", "134319.730000", "134319.733000", "134319.736000", "134319.739000", "134319.742000", "134319.746000", "134319.749000", "134319.752000", "134319.754000", "134319.758000", "134319.769000", "134319.772000", "134319.775000", "134339.686000", "134339.689000", "134339.692000", "134339.695000", "134339.698000", "134339.701000", "134339.704000", "134339.707000", "134339.710000", "134339.713000", "134339.716000", "134339.719000", "134339.723000", "134339.726000", "134339.729000", "134339.732000", "134339.736000", "134339.739000", "134339.742000", "134339.745000", "134339.748000", "134339.751000", "134339.754000", "134339.757000", "134339.760000", "134339.763000", "134339.766000", "134339.769000", "134359.686000", "134359.689000", "134359.692000", "134359.695000", "134359.698000", "134359.701000", "134359.704000", "134359.707000", "134359.710000", "134359.713000", "134359.716000", "134359.739000", "134359.742000", "134359.745000", "134359.748000", "134359.751000", "134359.754000", "134359.757000", "134359.760000", "134359.763000", "134359.766000", "134359.769000", "134359.772000", "134359.775000", "134359.778000", "134359.781000", "134359.784000", "134359.787000", "134419.686000", "134419.689000", "134419.692000", "134419.695000", "134419.698000", "134419.701000", "134419.704000", "134419.707000", "134419.710000", "134419.713000", "134419.717000", "134419.720000", "134419.723000", "134419.726000", "134419.729000", "134419.732000", "134419.735000", "134419.738000", "134419.746000", "134419.749000", "134419.752000", "134419.755000", "134419.758000", "134419.761000", "134419.764000", "134419.767000", "134419.778000", "134419.781000", "134419.784000", "134430.379000", "134430.382000", "134430.385000", "134430.388000", "134430.391000", "134430.394000", "134430.397000", "134430.400000", "134430.403000", "134430.407000", "134430.410000", "134430.413000", "134430.416000", "134430.419000"],
      "InstanceCreationTime": ["134239.716000", "134239.720000", "134239.723000", "134239.726000", "134239.730000", "134239.733000", "134239.736000", "134239.739000", "134239.742000", "134239.745000", "134239.748000", "134239.751000", "134239.754000", "134239.757000", "134239.760000", "134239.763000", "134239.767000", "134239.770000", "134239.773000", "134239.776000", "134239.779000", "134239.786000", "134239.789000", "134239.792000", "134239.798000", "134239.801000", "134239.804000", "134239.807000", "134239.810000", "134239.813000", "134239.816000", "134239.819000", "134239.822000", "134239.825000", "134239.828000", "134239.831000", "134259.685000", "134259.688000", "134259.691000", "134259.694000", "134259.697000", "134259.700000", "134259.703000", "134259.706000", "134259.714000", "134259.717000", "134259.720000", "134259.723000", "134259.726000", "134259.729000", "134259.732000", "134259.735000", "134259.738000", "134259.741000", "134259.744000", "134259.747000", "134259.750000", "134259.753000", "134259.756000", "134259.759000", "134259.762000", "134259.765000", "134259.768000", "134259.771000", "134259.774000", "134319.685000", "134319.688000", "134319.691000", "134319.694000", "134319.697000", "134319.700000", "134319.703000", "134319.706000", "134319.709000", "134319.712000", "134319.715000", "134319.718000", "134319.721000", "134319.724000", "134319.727000", "134319.730000", "134319.733000", "134319.736000", "134319.739000", "134319.742000", "134319.746000", "134319.749000", "134319.752000", "134319.754000", "134319.758000", "134319.769000", "134319.772000", "134319.775000", "134339.686000", "134339.689000", "134339.692000", "134339.695000", "134339.698000", "134339.701000", "134339.704000", "134339.707000", "134339.710000", "134339.713000", "134339.716000", "134339.719000", "134339.723000", "134339.726000", "134339.729000", "134339.732000", "134339.736000", "134339.739000", "134339.742000", "134339.745000", "134339.748000", "134339.751000", "134339.754000", "134339.757000", "134339.760000", "134339.763000", "134339.766000", "134339.769000", "134359.686000", "134359.689000", "134359.692000", "134359.695000", "134359.698000", "134359.701000", "134359.704000", "134359.707000", "134359.710000", "134359.713000", "134359.716000", "134359.739000", "134359.742000", "134359.745000", "134359.748000", "134359.751000", "134359.754000", "134359.757000", "134359.760000", "134359.763000", "134359.766000", "134359.769000", "134359.772000", "134359.775000", "134359.778000", "134359.781000", "134359.784000", "134359.787000", "134419.686000", "134419.689000", "134419.692000", "134419.695000", "134419.698000", "134419.701000", "134419.704000", "134419.707000", "134419.710000", "134419.713000", "134419.717000", "134419.720000", "134419.723000", "134419.726000", "134419.729000", "134419.732000", "134419.735000", "134419.738000", "134419.746000", "134419.749000", "134419.752000", "134419.755000", "134419.758000", "134419.761000", "134419.764000", "134419.767000", "134419.778000", "134419.781000", "134419.784000", "134430.379000", "134430.382000", "134430.385000", "134430.388000", "134430.391000", "134430.394000", "134430.397000", "134430.400000", "134430.403000", "134430.407000", "134430.410000", "134430.413000", "134430.416000", "134430.419000"],
      "InstanceNumber": [1, 2, 3, 4, 5, 6, 7, 8, 9, 10, 11, 12, 13, 14, 15, 16, 17, 18, 19, 20, 21, 22, 23, 24, 25, 26, 27, 28, 29, 30, 31, 32, 33, 34, 35, 36, 37, 38, 39, 40, 41, 42, 43, 44, 45, 46, 47, 48, 49, 50, 51, 52, 53, 54, 55, 56, 57, 58, 59, 60, 61, 62, 63, 64, 65, 66, 67, 68, 69, 70, 71, 72, 73, 74, 75, 76, 77, 78, 79, 80, 81, 82, 83, 84, 85, 86, 87, 88, 89, 90, 91, 92, 93, 94, 95, 96, 97, 98, 99, 100, 101, 102, 103, 104, 105, 106, 107, 108, 109, 110, 111, 112, 113, 114, 115, 116, 117, 118, 119, 120, 121, 122, 123, 124, 125, 126, 127, 128, 129, 130, 131, 132, 133, 134, 135, 136, 137, 138, 139, 140, 141, 142, 143, 144, 145, 146, 147, 148, 149, 150, 151, 152, 153, 154, 155, 156, 157, 158, 159, 160, 161, 162, 163, 164, 165, 166, 167, 168, 169, 170, 171, 172, 173, 174, 175, 176, 177, 178, 179, 180, 181, 182, 183, 184, 185, 186, 187, 188, 189, 190, 191, 192],
      "LargestImagePixelValue": [39876, 40129, 39671, 41012, 40238, 42014, 41622, 40273, 41303, 40866, 39817, 40426, 39708, 39271, 39532, 39021, 38160, 38907, 39298, 38619, 38063, 38659, 38609, 39802, 38928, 39929, 40250, 40318, 40737, 39791, 40022, 39693, 40460, 39872, 40678, 40184, 39476, 40436, 39665, 37959, 39049, 40105, 39320, 36220, 37943, 38212, 37988, 38069, 38566, 37839, 37979, 38625, 37852, 37984, 38725, 38756, 38670, 38790, 39605, 38556, 38398, 39642, 38629, 38072, 39138, 38531, 37849, 36742, 38571, 38209, 37989, 37262, 36829, 36734, 37949, 37574, 37164, 37891, 37535, 36940, 38282, 39841, 37553, 37602, 37342, 36885, 37207, 37556, 38003, 37101, 35966, 37464, 39651, 38576, 37714, 37845, 37520, 37332, 37908, 38030, 37427, 36656, 37804, 38240, 39733, 39751, 40754, 40406, 38674, 39989, 38865, 38848, 38794, 38452, 38142, 36906, 36954, 36942, 37500, 37301, 37772, 37126, 38015, 37799, 37417, 38464, 37996, 38983, 38860, 38312, 36754, 36822, 40345, 40018, 40019, 38972, 38802, 39069, 39597, 39124, 40487, 40592, 40643, 40443, 39697, 39733, 38872, 40149, 40987, 39747, 41047, 41741, 41158, 39778, 39336, 39646, 38771, 38824, 39329, 38917, 39160, 39337, 38462, 37296, 37497, 38072, 39620, 40731, 40824, 39651, 39580, 39569, 40885, 40295, 38915, 38578, 38489, 38448, 38002, 38867, 39864, 41524, 41639, 37720, 38015, 38325, 38894, 36590, 39275, 40980, 41945, 41631],
      "WindowCenter": [9240.0, 9225.0, 9216.0, 9226.0, 9224.0, 9248.0, 9240.0, 9232.0, 9235.0, 9228.0, 9208.0, 9213.0, 9203.0, 9199.0, 9214.0, 9209.0, 9206.0, 9222.0, 9219.0, 9205.0, 9199.0, 9204.0, 9190.0, 9225.0, 9230.0, 9216.0, 9202.0, 9203.0, 9202.0, 9195.0, 9194.0, 9202.0, 9217.0, 9204.0, 9202.0, 9201.0, 9188.0, 9203.0, 9204.0, 9196.0, 9221.0, 9248.0, 9245.0, 9227.0, 9235.0, 9216.0, 9201.0, 9195.0, 9192.0, 9178.0, 9183.0, 9198.0, 9194.0, 9194.0, 9201.0, 9209.0, 9212.0, 9211.0, 9218.0, 9205.0, 9202.0, 9222.0, 9203.0, 9198.0, 9219.0, 9214.0, 9211.0, 9207.0, 9215.0, 9198.0, 9186.0, 9172.0, 9165.0, 9164.0, 9185.0, 9189.0, 9184.0, 9199.0, 9200.0, 9203.0, 9208.0, 9226.0, 9195.0, 9199.0, 9194.0, 9188.0, 9194.0, 9202.0, 9217.0, 9204.0, 9199.0, 9213.0, 9237.0, 9218.0, 9230.0, 9210.0, 9185.0, 9174.0, 9172.0, 9176.0, 9170.0, 9173.0, 9188.0, 9195.0, 9210.0, 9219.0, 9233.0, 9234.0, 9224.0, 9245.0, 9243.0, 9247.0, 9262.0, 9249.0, 9239.0, 9224.0, 9215.0, 9213.0, 9211.0, 9202.0, 9200.0, 9193.0, 9195.0, 9188.0, 9182.0, 9192.0, 9194.0, 9203.0, 9186.0, 9221.0, 9201.0, 9244.0, 9259.0, 9239.0, 9238.0, 9225.0, 9215.0, 9221.0, 9228.0, 9210.0, 9213.0, 9205.0, 9203.0, 9205.0, 9208.0, 9217.0, 9221.0, 9242.0, 9242.0, 9230.0, 9230.0, 9228.0, 9231.0, 9220.0, 9218.0, 9219.0, 9216.0, 9213.0, 9213.0, 9215.0, 9214.0, 9220.0, 9209.0, 9202.0, 9201.0, 9200.0, 9217.0, 9212.0, 9209.0, 9198.0, 9189.0, 9188.0, 9207.0, 9202.0, 9200.0, 9202.0, 9210.0, 9214.0, 9209.0, 9224.0, 9245.0, 9267.0, 9267.0, 9233.0, 9243.0, 9257.0, 9225.0, 9210.0, 9242.0, 9233.0, 9235.0, 9222.0],
      "WindowWidth": [19621.0, 19575.0, 19556.0, 19569.0, 19569.0, 19610.0, 19592.0, 19584.0, 19590.0, 19573.0, 19537.0, 19543.0, 19524.0, 19521.0, 19552.0, 19545.0, 19542.0, 19573.0, 19568.0, 19536.0, 19524.0, 19530.0, 19494.0, 19568.0, 19584.0, 19547.0, 19516.0, 19520.0, 19514.0, 19504.0, 19502.0, 19519.0, 19548.0, 19522.0, 19517.0, 19516.0, 19494.0, 19522.0, 19528.0, 19525.0, 19571.0, 19623.0, 19619.0, 19596.0, 19602.0, 19559.0, 19532.0, 19513.0, 19502.0, 19476.0, 19484.0, 19513.0, 19510.0, 19511.0, 19523.0, 19538.0, 19547.0, 19546.0, 19559.0, 19536.0, 19526.0, 19565.0, 19534.0, 19529.0, 19569.0, 19563.0, 19558.0, 19555.0, 19559.0, 19523.0, 19495.0, 19467.0, 19455.0, 19453.0, 19492.0, 19505.0, 19499.0, 19526.0, 19528.0, 19538.0, 19546.0, 19575.0, 19525.0, 19534.0, 19524.0, 19519.0, 19528.0, 19545.0, 19566.0, 19544.0, 19540.0, 19562.0, 19597.0, 19566.0, 19592.0, 19545.0, 19493.0, 19466.0, 19463.0, 19468.0, 19460.0, 19469.0, 19497.0, 19510.0, 19539.0, 19564.0, 19590.0, 19591.0, 19579.0, 19618.0, 19620.0, 19636.0, 19665.0, 19640.0, 19617.0, 19588.0, 19567.0, 19558.0, 19553.0, 19533.0, 19526.0, 19510.0, 19507.0, 19496.0, 19485.0, 19501.0, 19506.0, 19524.0, 19492.0, 19567.0, 19535.0, 19626.0, 19647.0, 19603.0, 19600.0, 19579.0, 19559.0, 19565.0, 19578.0, 19539.0, 19538.0, 19521.0, 19517.0, 19523.0, 19532.0, 19556.0, 19569.0, 19610.0, 19606.0, 19584.0, 19579.0, 19570.0, 19577.0, 19565.0, 19563.0, 19564.0, 19564.0, 19559.0, 19563.0, 19566.0, 19560.0, 19569.0, 19549.0, 19537.0, 19533.0, 19525.0, 19548.0, 19536.0, 19525.0, 19508.0, 19489.0, 19487.0, 19522.0, 19513.0, 19516.0, 19527.0, 19541.0, 19555.0, 19550.0, 19578.0, 19616.0, 19662.0, 19661.0, 19610.0, 19633.0, 19662.0, 19583.0, 19557.0, 19612.0, 19582.0, 19584.0, 19562.0]
    },
    "slices": {}
  },
  "NumberOfVolumes": 192
}