{
  "AcquisitionMatrixPE": 104,
  "AcquisitionNumber": 1,
  "AcquisitionTime": "10:28:36.222500",
  "BandwidthPerPixelPhaseEncode": 16.297,
  "BaseResolution": 104,
  "BodyPartExamined": "BRAIN",
  "ConsistencyInfo": "N4_VE11C_LATEST_20160120",
  "ConversionSoftware": "dcm2niix",
  "ConversionSoftwareVersion": "v1.0.20210317",
  "DerivedVendorReportedEchoSpacing": 0.000590009,
  "DeviceSerialNumber": "166018",
  "DwellTime": 2.1e-06,
  "EchoTime": 0.0376,
  "EchoTrainLength": 104,
  "EffectiveEchoSpacing": 0.000590009,
  "FlipAngle": 68,
  "ImageComments": "Unaliased MB6/PE3/LB",
  "ImageOrientationPatientDICOM": [0.998907, -0.04673, -0.00140672, 0.046059, 0.98883, -0.141756],
  "ImageType": [
    "ORIGINAL",
    "PRIMARY",
    "M",
    "MB",
    "ND",
    "MOSAIC"
],
  "ImagingFrequency": 123.197,
  "InPlanePhaseEncodingDirectionDICOM": "COL",
  "InstitutionAddress": "Washington Place 6,NYC,NYC,US,10003",
  "InstitutionName": "NYU - CBI",
  "InstitutionalDepartmentName": "Department",
  "MRAcquisitionType": "2D",
  "MagneticFieldStrength": 3,
  "Manufacturer": "Siemens",
  "ManufacturersModelName": "Prisma",
  "Modality": "MR",
  "MultibandAccelerationFactor": 6,
  "PartialFourier": 1,
  "PatientPosition": "HFS",
  "PercentPhaseFOV": 100,
  "PercentSampling": 100,
  "PhaseEncodingDirection": "j",
  "PhaseEncodingSteps": 104,
  "PhaseResolution": 1,
  "PixelBandwidth": 2290,
  "ProcedureStepDescription": "Investigators^Winawer",
  "ProtocolName": "cmrr_mbepi_s6_2mm_66sl_PA_task-wedgering3",
  "PulseSequenceDetails": "%CustomerSeq%\\cmrr_mbep2d_bold",
  "ReceiveCoilActiveElements": "HC1-7",
  "ReceiveCoilName": "HeadNeck_64",
  "ReconMatrixPE": 104,
  "RepetitionTime": 1,
  "SAR": 0.0567997,
  "ScanOptions": "FS",
  "ScanningSequence": "EP",
  "SequenceName": "epfid2d1_104",
  "SequenceVariant": "SK\\SS",
  "SeriesDescription": "cmrr_mbepi_s6_2mm_66sl_PA_task-wedgering3",
  "SeriesNumber": 18,
  "ShimSetting": [277, -12665, -8418, 466, -55, -107, -58, 42],
  "SliceThickness": 2,
  "SliceTiming": [0, 0.535, 0.09, 0.625, 0.18, 0.7125, 0.2675, 0.8025, 0.3575, 0.8925, 0.445, 0, 0.535, 0.09, 0.625, 0.18, 0.7125, 0.2675, 0.8025, 0.3575, 0.8925, 0.445, 0, 0.535, 0.09, 0.625, 0.18, 0.7125, 0.2675, 0.8025, 0.3575, 0.8925, 0.445, 0, 0.535, 0.09, 0.625, 0.18, 0.7125, 0.2675, 0.8025, 0.3575, 0.8925, 0.445, 0, 0.535, 0.09, 0.625, 0.18, 0.7125, 0.2675, 0.8025, 0.3575, 0.8925, 0.445, 0, 0.535, 0.09, 0.625, 0.18, 0.7125, 0.2675, 0.8025, 0.3575, 0.8925, 0.445],
  "SoftwareVersions": "syngo MR E11",
  "SpacingBetweenSlices": 2,
  "StationName": "AWP166018",
  "TaskName": "wedgering3",
  "TotalReadoutTime": 0.060771,
  "TxRefAmp": 210.088,
  "VendorReportedEchoSpacing": 0.00059,
  "WipMemBlock": "c744cbf9-c41e-47f7-9c2e-3ec38f9098bf||Sequence: R016 ve11c/master r/8780670; Nov 27 2017 15:05:12 by eja",
  "dcmmeta_affine": [
    [-1.997813105583191, 0.09211792796850204, -0.016030531376600266, 104.15538024902344],
    [0.09346002340316772, 1.9776591062545776, -0.28307226300239563, -83.92436218261719],
    [-0.0028134468011558056, 0.28351184725761414, 1.9798012971878052, -53.327598571777344],
    [0.0, 0.0, 0.0, 1.0]
],
  "dcmmeta_reorient_transform": [
    [0.0, -1.0, 0.0, 103.0],
    [1.0, 0.0, 0.0, 0.0],
    [0.0, 0.0, 1.0, 0.0],
    [0.0, 0.0, 0.0, 1.0]
],
  "dcmmeta_shape": [104, 104, 66, 300],
  "dcmmeta_slice_dim": 2,
  "dcmmeta_version": 0.6,
  "global": {
    "const": {
      "AccessionNumber": "Litbtkmn",
      "AcquisitionMatrix": [104, 0, 0, 104],
      "AngioFlag": "N",
      "BitsAllocated": 16,
      "BitsStored": 16,
      "BodyPartExamined": "BRAIN",
      "Columns": 936,
      "EchoNumbers": 1,
      "EchoTime": 37.6,
      "EchoTrainLength": 104,
      "FlipAngle": 68.0,
      "HighBit": 15,
      "ImageOrientationPatient": [0.99890656581425, -0.0467300107248, -0.0014067234457, 0.04605896535889, 0.98882952475698, -0.1417559264333],
      "ImagePositionPatient": [-983.05484924242, -903.60131441513, 94.985446890746],
      "ImageType": [
        "ORIGINAL",
        "PRIMARY",
        "M",
        "MB",
        "ND",
        "MOSAIC"
],
      "ImagedNucleus": "1H",
      "ImagingFrequency": 123.196774,
      "InPlanePhaseEncodingDirection": "COL",
      "MRAcquisitionType": "2D",
      "MagneticFieldStrength": 3.0,
      "Manufacturer": "SIEMENS",
      "ManufacturerModelName": "Prisma",
      "Modality": "MR",
      "NumberOfAverages": 1.0,
      "NumberOfPhaseEncodingSteps": 104,
      "PercentPhaseFieldOfView": 100.0,
      "PercentSampling": 100.0,
      "PerformedProcedureStepStartTime": "094127.950000",
      "PhotometricInterpretation": "MONOCHROME2",
      "PixelBandwidth": 2290.0,
      "PixelRepresentation": 0,
      "PixelSpacing": [2.0, 2.0],
      "ProtocolName": "cmrr_mbepi_s6_2mm_66sl_PA_task-wedgering3",
      "RepetitionTime": 1000.0,
      "Rows": 936,
      "SAR": 0.05679969593602,
      "SamplesPerPixel": 1,
      "ScanOptions": "FS",
      "ScanningSequence": "EP",
      "SequenceName": "epfid2d1_104",
      "SequenceVariant": [
        "SK",
        "SS"
],
      "SeriesDescription": "cmrr_mbepi_s6_2mm_66sl_PA_task-wedgering3",
      "SeriesNumber": 18,
      "SeriesTime": "102945.921000",
      "SliceLocation": -41.745527225607,
      "SliceThickness": 2.0,
      "SmallestImagePixelValue": 0,
      "SoftwareVersions": "syngo MR E11",
      "SpacingBetweenSlices": 1.9999999576256,
      "SpecificCharacterSet": "ISO_IR 100",
      "StudyID": "1",
      "StudyTime": "094127.784000",
      "TransmitCoilName": "Body",
      "VariableFlipAngleFlag": "N",
      "WindowCenterWidthExplanation": "Algo1",
      "dBdt": 0.0},
    "slices": {}
  },
  "time": {
    "samples": {
      "AcquisitionNumber": [1, 2, 3, 4, 5, 6, 7, 8, 9, 10, 11, 12, 13, 14, 15, 16, 17, 18, 19, 20, 21, 22, 23, 24, 25, 26, 27, 28, 29, 30, 31, 32, 33, 34, 35, 36, 37, 38, 39, 40, 41, 42, 43, 44, 45, 46, 47, 48, 49, 50, 51, 52, 53, 54, 55, 56, 57, 58, 59, 60, 61, 62, 63, 64, 65, 66, 67, 68, 69, 70, 71, 72, 73, 74, 75, 76, 77, 78, 79, 80, 81, 82, 83, 84, 85, 86, 87, 88, 89, 90, 91, 92, 93, 94, 95, 96, 97, 98, 99, 100, 101, 102, 103, 104, 105, 106, 107, 108, 109, 110, 111, 112, 113, 114, 115, 116, 117, 118, 119, 120, 121, 122, 123, 124, 125, 126, 127, 128, 129, 130, 131, 132, 133, 134, 135, 136, 137, 138, 139, 140, 141, 142, 143, 144, 145, 146, 147, 148, 149, 150, 151, 152, 153, 154, 155, 156, 157, 158, 159, 160, 161, 162, 163, 164, 165, 166, 167, 168, 169, 170, 171, 172, 173, 174, 175, 176, 177, 178, 179, 180, 181, 182, 183, 184, 185, 186, 187, 188, 189, 190, 191, 192, 193, 194, 195, 196, 197, 198, 199, 200, 201, 202, 203, 204, 205, 206, 207, 208, 209, 210, 211, 212, 213, 214, 215, 216, 217, 218, 219, 220, 221, 222, 223, 224, 225, 226, 227, 228, 229, 230, 231, 232, 233, 234, 235, 236, 237, 238, 239, 240, 241, 242, 243, 244, 245, 246, 247, 248, 249, 250, 251, 252, 253, 254, 255, 256, 257, 258, 259, 260, 261, 262, 263, 264, 265, 266, 267, 268, 269, 270, 271, 272, 273, 274, 275, 276, 277, 278, 279, 280, 281, 282, 283, 284, 285, 286, 287, 288, 289, 290, 291, 292, 293, 294, 295, 296, 297, 298, 299, 300],
      "AcquisitionTime": ["102836.222500", "102837.222500", "102838.222500", "102839.222500", "102840.222500", "102841.222500", "102842.222500", "102843.222500", "102844.222500", "102845.222500", "102846.222500", "102847.222500", "102848.222500", "102849.222500", "102850.222500", "102851.222500", "102852.222500", "102853.222500", "102854.222500", "102855.222500", "102856.222500", "102857.222500", "102858.222500", "102859.222500", "102900.222500", "102901.222500", "102902.222500", "102903.222500", "102904.222500", "102905.222500", "102906.222500", "102907.222500", "102908.222500", "102909.222500", "102910.222500", "102911.222500", "102912.222500", "102913.222500", "102914.222500", "102915.222500", "102916.222500", "102917.222500", "102918.222500", "102919.222500", "102920.222500", "102921.222500", "102922.222500", "102923.222500", "102924.222500", "102925.222500", "102926.222500", "102927.222500", "102928.222500", "102929.222500", "102930.222500", "102931.222500", "102932.222500", "102933.222500", "102934.222500", "102935.222500", "102936.222500", "102937.222500", "102938.222500", "102939.222500", "102940.222500", "102941.222500", "102942.222500", "102943.222500", "102944.222500", "102945.222500", "102946.222500", "102947.222500", "102948.222500", "102949.222500", "102950.222500", "102951.222500", "102952.222500", "102953.222500", "102954.222500", "102955.222500", "102956.222500", "102957.222500", "102958.222500", "102959.222500", "103000.222500", "103001.222500", "103002.222500", "103003.222500", "103004.222500", "103005.222500", "103006.222500", "103007.222500", "103008.222500", "103009.222500", "103010.222500", "103011.222500", "103012.222500", "103013.222500", "103014.222500", "103015.222500", "103016.222500", "103017.222500", "103018.222500", "103019.222500", "103020.222500", "103021.222500", "103022.222500", "103023.222500", "103024.222500", "103025.222500", "103026.222500", "103027.222500", "103028.222500", "103029.222500", "103030.222500", "103031.222500", "103032.222500", "103033.222500", "103034.222500", "103035.222500", "103036.222500", "103037.222500", "103038.222500", "103039.222500", "103040.222500", "103041.222500", "103042.222500", "103043.222500", "103044.222500", "103045.222500", "103046.222500", "103047.222500", "103048.222500", "103049.222500", "103050.222500", "103051.222500", "103052.222500", "103053.222500", "103054.222500", "103055.222500", "103056.222500", "103057.222500", "103058.222500", "103059.222500", "103100.222500", "103101.222500", "103102.222500", "103103.222500", "103104.222500", "103105.222500", "103106.222500", "103107.222500", "103108.222500", "103109.222500", "103110.222500", "103111.222500", "103112.222500", "103113.222500", "103114.222500", "103115.222500", "103116.222500", "103117.222500", "103118.222500", "103119.222500", "103120.222500", "103121.222500", "103122.222500", "103123.222500", "103124.222500", "103125.222500", "103126.222500", "103127.222500", "103128.222500", "103129.222500", "103130.222500", "103131.222500", "103132.222500", "103133.222500", "103134.222500", "103135.222500", "103136.222500", "103137.222500", "103138.222500", "103139.222500", "103140.222500", "103141.222500", "103142.222500", "103143.222500", "103144.222500", "103145.222500", "103146.222500", "103147.222500", "103148.222500", "103149.222500", "103150.222500", "103151.222500", "103152.222500", "103153.222500", "103154.222500", "103155.222500", "103156.222500", "103157.222500", "103158.222500", "103159.222500", "103200.222500", "103201.222500", "103202.222500", "103203.222500", "103204.222500", "103205.222500", "103206.222500", "103207.222500", "103208.222500", "103209.222500", "103210.222500", "103211.222500", "103212.222500", "103213.222500", "103214.222500", "103215.222500", "103216.222500", "103217.222500", "103218.222500", "103219.222500", "103220.222500", "103221.222500", "103222.222500", "103223.222500", "103224.222500", "103225.222500", "103226.222500", "103227.222500", "103228.222500", "103229.222500", "103230.222500", "103231.222500", "103232.222500", "103233.222500", "103234.222500", "103235.222500", "103236.222500", "103237.222500", "103238.222500", "103239.222500", "103240.222500", "103241.222500", "103242.222500", "103243.222500", "103244.222500", "103245.222500", "103246.222500", "103247.222500", "103248.222500", "103249.222500", "103250.222500", "103251.222500", "103252.222500", "103253.222500", "103254.222500", "103255.222500", "103256.222500", "103257.222500", "103258.222500", "103259.222500", "103300.222500", "103301.222500", "103302.222500", "103303.222500", "103304.222500", "103305.222500", "103306.222500", "103307.222500", "103308.222500", "103309.222500", "103310.222500", "103311.222500", "103312.222500", "103313.222500", "103314.222500", "103315.222500", "103316.222500", "103317.222500", "103318.222500", "103319.222500", "103320.222500", "103321.222500", "103322.222500", "103323.222500", "103324.222500", "103325.222500", "103326.222500", "103327.222500", "103328.222500", "103329.222500", "103330.222500", "103331.222500", "103332.222500", "103333.222500", "103334.222500", "103335.222500"],
      "ContentTime": ["102945.924000", "102945.937000", "102945.940000", "102945.943000", "102945.947000", "102945.950000", "102945.962000", "102945.965000", "102945.968000", "102945.971000", "102945.974000", "102945.977000", "102945.980000", "102945.983000", "102945.986000", "102945.989000", "102945.992000", "102945.995000", "102945.998000", "102946.002000", "102946.005000", "102946.008000", "102946.012000", "102946.020000", "102946.023000", "102946.026000", "102946.029000", "102946.032000", "103005.888000", "103005.891000", "103005.894000", "103005.897000", "103005.900000", "103005.903000", "103005.906000", "103005.909000", "103005.912000", "103005.915000", "103005.928000", "103005.931000", "103005.934000", "103005.937000", "103005.940000", "103005.943000", "103005.946000", "103005.949000", "103005.952000", "103005.955000", "103005.965000", "103005.968000", "103005.971000", "103005.974000", "103005.977000", "103005.980000", "103005.983000", "103005.986000", "103005.989000", "103025.888000", "103025.891000", "103025.894000", "103025.897000", "103025.900000", "103025.903000", "103025.906000", "103025.909000", "103025.912000", "103025.915000", "103025.918000", "103025.921000", "103025.924000", "103025.927000", "103025.930000", "103025.933000", "103025.936000", "103025.939000", "103025.942000", "103025.945000", "103025.948000", "103025.951000", "103025.954000", "103025.957000", "103025.960000", "103025.963000", "103025.966000", "103025.969000", "103045.888000", "103045.891000", "103045.894000", "103045.897000", "103045.900000", "103045.903000", "103045.906000", "103045.909000", "103045.912000", "103045.921000", "103045.924000", "103045.927000", "103045.930000", "103045.933000", "103045.936000", "103045.939000", "103045.942000", "103045.945000", "103045.948000", "103045.951000", "103045.954000", "103045.956000", "103045.960000", "103045.963000", "103045.966000", "103045.969000", "103045.972000", "103045.975000", "103105.888000", "103105.891000", "103105.894000", "103105.897000", "103105.900000", "103105.903000", "103105.906000", "103105.909000", "103105.912000", "103105.915000", "103105.918000", "103105.921000", "103105.924000", "103105.927000", "103105.930000", "103105.933000", "103105.936000", "103105.939000", "103105.942000", "103105.958000", "103105.961000", "103105.964000", "103105.967000", "103105.970000", "103105.973000", "103105.976000", "103105.979000", "103105.982000", "103105.985000", "103125.888000", "103125.891000", "103125.894000", "103125.897000", "103125.900000", "103125.903000", "103125.906000", "103125.913000", "103125.916000", "103125.919000", "103125.922000", "103125.925000", "103125.928000", "103125.931000", "103125.934000", "103125.937000", "103125.940000", "103125.943000", "103125.946000", "103125.949000", "103125.952000", "103125.955000", "103125.958000", "103125.961000", "103125.964000", "103125.967000", "103145.888000", "103145.891000", "103145.894000", "103145.897000", "103145.900000", "103145.903000", "103145.906000", "103145.909000", "103145.912000", "103145.915000", "103145.918000", "103145.921000", "103145.924000", "103145.927000", "103145.930000", "103145.933000", "103145.936000", "103145.939000", "103145.942000", "103145.945000", "103205.888000", "103205.891000", "103205.894000", "103205.897000", "103205.900000", "103205.903000", "103205.906000", "103205.909000", "103205.912000", "103205.915000", "103205.918000", "103205.921000", "103205.924000", "103205.927000", "103205.930000", "103205.933000", "103205.936000", "103205.939000", "103205.942000", "103205.945000", "103225.888000", "103225.891000", "103225.894000", "103225.897000", "103225.900000", "103225.904000", "103225.907000", "103225.910000", "103225.913000", "103225.916000", "103225.919000", "103225.922000", "103225.925000", "103225.928000", "103225.931000", "103225.934000", "103225.938000", "103225.940000", "103225.944000", "103225.947000", "103245.888000", "103245.891000", "103245.894000", "103245.897000", "103245.900000", "103245.903000", "103245.906000", "103245.909000", "103245.912000", "103245.915000", "103245.918000", "103245.921000", "103245.924000", "103245.927000", "103245.930000", "103245.933000", "103245.936000", "103245.939000", "103245.942000", "103245.945000", "103305.888000", "103305.891000", "103305.894000", "103305.897000", "103305.900000", "103305.903000", "103305.907000", "103305.909000", "103305.912000", "103305.915000", "103305.919000", "103305.921000", "103305.924000", "103305.927000", "103305.930000", "103305.933000", "103305.937000", "103305.939000", "103305.943000", "103305.946000", "103325.888000", "103325.891000", "103325.894000", "103325.897000", "103325.900000", "103325.903000", "103325.906000", "103325.909000", "103325.912000", "103325.915000", "103325.918000", "103325.921000", "103325.924000", "103325.927000", "103325.930000", "103325.933000", "103325.936000", "103325.939000", "103325.942000", "103325.945000", "103337.210000", "103337.213000", "103337.216000", "103337.219000", "103337.222000", "103337.225000", "103337.228000", "103337.231000", "103337.234000", "103337.237000", "103337.240000", "103337.243000"],
      "InstanceCreationTime": ["102945.924000", "102945.937000", "102945.940000", "102945.943000", "102945.947000", "102945.950000", "102945.962000", "102945.965000", "102945.968000", "102945.971000", "102945.974000", "102945.977000", "102945.980000", "102945.983000", "102945.986000", "102945.989000", "102945.992000", "102945.995000", "102945.998000", "102946.002000", "102946.005000", "102946.008000", "102946.012000", "102946.020000", "102946.023000", "102946.026000", "102946.029000", "102946.032000", "103005.888000", "103005.891000", "103005.894000", "103005.897000", "103005.900000", "103005.903000", "103005.906000", "103005.909000", "103005.912000", "103005.915000", "103005.928000", "103005.931000", "103005.934000", "103005.937000", "103005.940000", "103005.943000", "103005.946000", "103005.949000", "103005.952000", "103005.955000", "103005.965000", "103005.968000", "103005.971000", "103005.974000", "103005.977000", "103005.980000", "103005.983000", "103005.986000", "103005.989000", "103025.888000", "103025.891000", "103025.894000", "103025.897000", "103025.900000", "103025.903000", "103025.906000", "103025.909000", "103025.912000", "103025.915000", "103025.918000", "103025.921000", "103025.924000", "103025.927000", "103025.930000", "103025.933000", "103025.936000", "103025.939000", "103025.942000", "103025.945000", "103025.948000", "103025.951000", "103025.954000", "103025.957000", "103025.960000", "103025.963000", "103025.966000", "103025.969000", "103045.888000", "103045.891000", "103045.894000", "103045.897000", "103045.900000", "103045.903000", "103045.906000", "103045.909000", "103045.912000", "103045.921000", "103045.924000", "103045.927000", "103045.930000", "103045.933000", "103045.936000", "103045.939000", "103045.942000", "103045.945000", "103045.948000", "103045.951000", "103045.954000", "103045.956000", "103045.960000", "103045.963000", "103045.966000", "103045.969000", "103045.972000", "103045.975000", "103105.888000", "103105.891000", "103105.894000", "103105.897000", "103105.900000", "103105.903000", "103105.906000", "103105.909000", "103105.912000", "103105.915000", "103105.918000", "103105.921000", "103105.924000", "103105.927000", "103105.930000", "103105.933000", "103105.936000", "103105.939000", "103105.942000", "103105.958000", "103105.961000", "103105.964000", "103105.967000", "103105.970000", "103105.973000", "103105.976000", "103105.979000", "103105.982000", "103105.985000", "103125.888000", "103125.891000", "103125.894000", "103125.897000", "103125.900000", "103125.903000", "103125.906000", "103125.913000", "103125.916000", "103125.919000", "103125.922000", "103125.925000", "103125.928000", "103125.931000", "103125.934000", "103125.937000", "103125.940000", "103125.943000", "103125.946000", "103125.949000", "103125.952000", "103125.955000", "103125.958000", "103125.961000", "103125.964000", "103125.967000", "103145.888000", "103145.891000", "103145.894000", "103145.897000", "103145.900000", "103145.903000", "103145.906000", "103145.909000", "103145.912000", "103145.915000", "103145.918000", "103145.921000", "103145.924000", "103145.927000", "103145.930000", "103145.933000", "103145.936000", "103145.939000", "103145.942000", "103145.945000", "103205.888000", "103205.891000", "103205.894000", "103205.897000", "103205.900000", "103205.903000", "103205.906000", "103205.909000", "103205.912000", "103205.915000", "103205.918000", "103205.921000", "103205.924000", "103205.927000", "103205.930000", "103205.933000", "103205.936000", "103205.939000", "103205.942000", "103205.945000", "103225.888000", "103225.891000", "103225.894000", "103225.897000", "103225.900000", "103225.904000", "103225.907000", "103225.910000", "103225.913000", "103225.916000", "103225.919000", "103225.922000", "103225.925000", "103225.928000", "103225.931000", "103225.934000", "103225.938000", "103225.940000", "103225.944000", "103225.947000", "103245.888000", "103245.891000", "103245.894000", "103245.897000", "103245.900000", "103245.903000", "103245.906000", "103245.909000", "103245.912000", "103245.915000", "103245.918000", "103245.921000", "103245.924000", "103245.927000", "103245.930000", "103245.933000", "103245.936000", "103245.939000", "103245.942000", "103245.945000", "103305.888000", "103305.891000", "103305.894000", "103305.897000", "103305.900000", "103305.903000", "103305.907000", "103305.909000", "103305.912000", "103305.915000", "103305.919000", "103305.921000", "103305.924000", "103305.927000", "103305.930000", "103305.933000", "103305.937000", "103305.939000", "103305.943000", "103305.946000", "103325.888000", "103325.891000", "103325.894000", "103325.897000", "103325.900000", "103325.903000", "103325.906000", "103325.909000", "103325.912000", "103325.915000", "103325.918000", "103325.921000", "103325.924000", "103325.927000", "103325.930000", "103325.933000", "103325.936000", "103325.939000", "103325.942000", "103325.945000", "103337.210000", "103337.213000", "103337.216000", "103337.219000", "103337.222000", "103337.225000", "103337.228000", "103337.231000", "103337.234000", "103337.237000", "103337.240000", "103337.243000"],
      "InstanceNumber": [1, 2, 3, 4, 5, 6, 7, 8, 9, 10, 11, 12, 13, 14, 15, 16, 17, 18, 19, 20, 21, 22, 23, 24, 25, 26, 27, 28, 29, 30, 31, 32, 33, 34, 35, 36, 37, 38, 39, 40, 41, 42, 43, 44, 45, 46, 47, 48, 49, 50, 51, 52, 53, 54, 55, 56, 57, 58, 59, 60, 61, 62, 63, 64, 65, 66, 67, 68, 69, 70, 71, 72, 73, 74, 75, 76, 77, 78, 79, 80, 81, 82, 83, 84, 85, 86, 87, 88, 89, 90, 91, 92, 93, 94, 95, 96, 97, 98, 99, 100, 101, 102, 103, 104, 105, 106, 107, 108, 109, 110, 111, 112, 113, 114, 115, 116, 117, 118, 119, 120, 121, 122, 123, 124, 125, 126, 127, 128, 129, 130, 131, 132, 133, 134, 135, 136, 137, 138, 139, 140, 141, 142, 143, 144, 145, 146, 147, 148, 149, 150, 151, 152, 153, 154, 155, 156, 157, 158, 159, 160, 161, 162, 163, 164, 165, 166, 167, 168, 169, 170, 171, 172, 173, 174, 175, 176, 177, 178, 179, 180, 181, 182, 183, 184, 185, 186, 187, 188, 189, 190, 191, 192, 193, 194, 195, 196, 197, 198, 199, 200, 201, 202, 203, 204, 205, 206, 207, 208, 209, 210, 211, 212, 213, 214, 215, 216, 217, 218, 219, 220, 221, 222, 223, 224, 225, 226, 227, 228, 229, 230, 231, 232, 233, 234, 235, 236, 237, 238, 239, 240, 241, 242, 243, 244, 245, 246, 247, 248, 249, 250, 251, 252, 253, 254, 255, 256, 257, 258, 259, 260, 261, 262, 263, 264, 265, 266, 267, 268, 269, 270, 271, 272, 273, 274, 275, 276, 277, 278, 279, 280, 281, 282, 283, 284, 285, 286, 287, 288, 289, 290, 291, 292, 293, 294, 295, 296, 297, 298, 299, 300],
      "LargestImagePixelValue": [35097, 34452, 34321, 33530, 33333, 33490, 33276, 33268, 33338, 33235, 33023, 33082, 33068, 32869, 32794, 33083, 33310, 33599, 33220, 33266, 32994, 33502, 33105, 32824, 33620, 33349, 33334, 33588, 33321, 33214, 33138, 33396, 33568, 32740, 32806, 32919, 32749, 32994, 33463, 33235, 33529, 32909, 32660, 33489, 33005, 32958, 33055, 32948, 33175, 33640, 32784, 33129, 32527, 32756, 32970, 32603, 32659, 32627, 32392, 32607, 32861, 32524, 32143, 32426, 32683, 32361, 32818, 32378, 32447, 32219, 32580, 32065, 32087, 32166, 32203, 32059, 31872, 31770, 32002, 31850, 32064, 32167, 32137, 32012, 31548, 32088, 32001, 31691, 32006, 32115, 33906, 32563, 32711, 33049, 33445, 33407, 33438, 33272, 33274, 32681, 32428, 32678, 32858, 33154, 32834, 32949, 33845, 33752, 33263, 33437, 33881, 33677, 33566, 33337, 33382, 33185, 33283, 32905, 33408, 33136, 33325, 32927, 33172, 32972, 33269, 32844, 32735, 33052, 32920, 32866, 32821, 32793, 31470, 32298, 31214, 31651, 32423, 31895, 32278, 32280, 32428, 33045, 32515, 32183, 31750, 31879, 32354, 31905, 31845, 32959, 32358, 32043, 31744, 32122, 32069, 32383, 31999, 31308, 31979, 31168, 31992, 32081, 31922, 32517, 32174, 31903, 31666, 32398, 32226, 31916, 32092, 32176, 31770, 32174, 32170, 32072, 32220, 31989, 31722, 32046, 32144, 31447, 31516, 31444, 31014, 32139, 31971, 31452, 32093, 31604, 31755, 32013, 32130, 31850, 32002, 31689, 31565, 31553, 31699, 31805, 32006, 32181, 31878, 31539, 31687, 31617, 31747, 31967, 31822, 31533, 32239, 32019, 31937, 31864, 31945, 31956, 32229, 32090, 32299, 32309, 32254, 32358, 32151, 32277, 32097, 32061, 31907, 32319, 32606, 32190, 32187, 31928, 32052, 32482, 31865, 31814, 33009, 32674, 32286, 31907, 31765, 31144, 31183, 31597, 30901, 31420, 31194, 31206, 31664, 31008, 30801, 31573, 31328, 31572, 31385, 31352, 31200, 31379, 31474, 31426, 31917, 31844, 31671, 31477, 31497, 31397, 31154, 31638, 31668, 31428, 32352, 32022, 31568, 32002, 31903, 31837, 31897, 31879, 31757, 31692, 31662, 31491, 31479, 31709, 31286, 31559, 31359, 31204, 31414, 31472, 30985, 31710, 31775, 31197, 31340, 31162, 31347, 31777, 31412, 31432],
      "WindowCenter": [9376.0, 9371.0, 9378.0, 9377.0, 9368.0, 9356.0, 9332.0, 9320.0, 9293.0, 9277.0, 9276.0, 9283.0, 9291.0, 9301.0, 9311.0, 9329.0, 9338.0, 9333.0, 9326.0, 9328.0, 9322.0, 9323.0, 9319.0, 9313.0, 9313.0, 9316.0, 9311.0, 9310.0, 9304.0, 9308.0, 9307.0, 9307.0, 9309.0, 9314.0, 9322.0, 9316.0, 9318.0, 9324.0, 9331.0, 9329.0, 9329.0, 9333.0, 9345.0, 9355.0, 9343.0, 9347.0, 9334.0, 9323.0, 9320.0, 9317.0, 9306.0, 9330.0, 9342.0, 9335.0, 9332.0, 9317.0, 9308.0, 9299.0, 9282.0, 9281.0, 9280.0, 9281.0, 9279.0, 9299.0, 9309.0, 9312.0, 9323.0, 9312.0, 9312.0, 9300.0, 9304.0, 9290.0, 9287.0, 9283.0, 9283.0, 9285.0, 9294.0, 9297.0, 9313.0, 9307.0, 9313.0, 9312.0, 9312.0, 9304.0, 9302.0, 9312.0, 9304.0, 9307.0, 9313.0, 9314.0, 9324.0, 9300.0, 9312.0, 9324.0, 9322.0, 9306.0, 9303.0, 9285.0, 9262.0, 9242.0, 9240.0, 9233.0, 9236.0, 9228.0, 9221.0, 9213.0, 9232.0, 9234.0, 9246.0, 9249.0, 9261.0, 9254.0, 9246.0, 9246.0, 9250.0, 9251.0, 9259.0, 9251.0, 9264.0, 9275.0, 9284.0, 9290.0, 9296.0, 9288.0, 9315.0, 9319.0, 9306.0, 9306.0, 9312.0, 9312.0, 9304.0, 9290.0, 9270.0, 9279.0, 9282.0, 9301.0, 9304.0, 9315.0, 9327.0, 9330.0, 9321.0, 9324.0, 9308.0, 9300.0, 9288.0, 9294.0, 9293.0, 9307.0, 9319.0, 9338.0, 9335.0, 9324.0, 9315.0, 9314.0, 9307.0, 9302.0, 9278.0, 9279.0, 9304.0, 9296.0, 9309.0, 9318.0, 9310.0, 9313.0, 9305.0, 9293.0, 9311.0, 9316.0, 9318.0, 9309.0, 9299.0, 9297.0, 9283.0, 9288.0, 9281.0, 9283.0, 9290.0, 9284.0, 9292.0, 9300.0, 9292.0, 9279.0, 9270.0, 9274.0, 9269.0, 9290.0, 9291.0, 9289.0, 9309.0, 9312.0, 9314.0, 9318.0, 9303.0, 9294.0, 9284.0, 9277.0, 9284.0, 9300.0, 9311.0, 9313.0, 9319.0, 9317.0, 9302.0, 9295.0, 9300.0, 9301.0, 9296.0, 9310.0, 9311.0, 9319.0, 9333.0, 9318.0, 9309.0, 9301.0, 9293.0, 9294.0, 9298.0, 9293.0, 9306.0, 9316.0, 9317.0, 9308.0, 9302.0, 9301.0, 9300.0, 9300.0, 9301.0, 9301.0, 9305.0, 9301.0, 9299.0, 9292.0, 9291.0, 9298.0, 9308.0, 9311.0, 9324.0, 9324.0, 9318.0, 9305.0, 9286.0, 9259.0, 9269.0, 9291.0, 9296.0, 9286.0, 9267.0, 9250.0, 9256.0, 9251.0, 9246.0, 9268.0, 9251.0, 9264.0, 9267.0, 9284.0, 9285.0, 9277.0, 9278.0, 9279.0, 9290.0, 9291.0, 9302.0, 9313.0, 9314.0, 9322.0, 9318.0, 9330.0, 9331.0, 9332.0, 9343.0, 9337.0, 9323.0, 9329.0, 9335.0, 9328.0, 9334.0, 9327.0, 9314.0, 9312.0, 9309.0, 9313.0, 9321.0, 9326.0, 9313.0, 9309.0, 9295.0, 9285.0, 9276.0, 9274.0, 9271.0, 9284.0, 9295.0, 9284.0, 9285.0, 9286.0, 9286.0, 9289.0, 9277.0, 9285.0],
