{
  "AcquisitionMatrixPE": 104,
  "AcquisitionNumber": 1,
  "AcquisitionTime": "10:10:7.832500",
  "BandwidthPerPixelPhaseEncode": 16.297,
  "BaseResolution": 104,
  "BodyPartExamined": "BRAIN",
  "ConsistencyInfo": "N4_VE11C_LATEST_20160120",
  "ConversionSoftware": "dcm2niix",
  "ConversionSoftwareVersion": "v1.0.20210317",
  "DerivedVendorReportedEchoSpacing": 0.000590009,
  "DeviceSerialNumber": "166018",
  "DwellTime": 2.1e-06,
  "EchoTime": 0.0376,
  "EchoTrainLength": 104,
  "EffectiveEchoSpacing": 0.000590009,
  "FlipAngle": 68,
  "ImageComments": "Unaliased MB6/PE3/LB",
  "ImageOrientationPatientDICOM": [0.998907, -0.04673, -0.00140672, 0.046059, 0.98883, -0.141756],
  "ImageType": [
    "ORIGINAL",
    "PRIMARY",
    "M",
    "MB",
    "ND",
    "MOSAIC"
],
  "ImagingFrequency": 123.197,
  "InPlanePhaseEncodingDirectionDICOM": "COL",
  "InstitutionAddress": "Washington Place 6,NYC,NYC,US,10003",
  "InstitutionName": "NYU - CBI",
  "InstitutionalDepartmentName": "Department",
  "MRAcquisitionType": "2D",
  "MagneticFieldStrength": 3,
  "Manufacturer": "Siemens",
  "ManufacturersModelName": "Prisma",
  "Modality": "MR",
  "MultibandAccelerationFactor": 6,
  "PartialFourier": 1,
  "PatientPosition": "HFS",
  "PercentPhaseFOV": 100,
  "PercentSampling": 100,
  "PhaseEncodingDirection": "j",
  "PhaseEncodingSteps": 104,
  "PhaseResolution": 1,
  "PixelBandwidth": 2290,
  "ProcedureStepDescription": "Investigators^Winawer",
  "ProtocolName": "cmrr_mbepi_s6_2mm_66sl_PA_task-bar2",
  "PulseSequenceDetails": "%CustomerSeq%\\cmrr_mbep2d_bold",
  "ReceiveCoilActiveElements": "HC1-7",
  "ReceiveCoilName": "HeadNeck_64",
  "ReconMatrixPE": 104,
  "RepetitionTime": 1,
  "SAR": 0.0567997,
  "ScanOptions": "FS",
  "ScanningSequence": "EP",
  "SequenceName": "epfid2d1_104",
  "SequenceVariant": "SK\\SS",
  "SeriesDescription": "cmrr_mbepi_s6_2mm_66sl_PA_task-bar2",
  "SeriesNumber": 12,
  "ShimSetting": [277, -12665, -8418, 466, -55, -107, -58, 42],
  "SliceThickness": 2,
  "SliceTiming": [0, 0.535, 0.09, 0.6225, 0.1775, 0.7125, 0.2675, 0.8025, 0.3575, 0.89, 0.445, 0, 0.535, 0.09, 0.6225, 0.1775, 0.7125, 0.2675, 0.8025, 0.3575, 0.89, 0.445, 0, 0.535, 0.09, 0.6225, 0.1775, 0.7125, 0.2675, 0.8025, 0.3575, 0.89, 0.445, 0, 0.535, 0.09, 0.6225, 0.1775, 0.7125, 0.2675, 0.8025, 0.3575, 0.89, 0.445, 0, 0.535, 0.09, 0.6225, 0.1775, 0.7125, 0.2675, 0.8025, 0.3575, 0.89, 0.445, 0, 0.535, 0.09, 0.6225, 0.1775, 0.7125, 0.2675, 0.8025, 0.3575, 0.89, 0.445],
  "SoftwareVersions": "syngo MR E11",
  "SpacingBetweenSlices": 2,
  "StationName": "AWP166018",
  "TaskName": "bar2",
  "TotalReadoutTime": 0.060771,
  "TxRefAmp": 210.088,
  "VendorReportedEchoSpacing": 0.00059,
  "WipMemBlock": "664226cb-579a-494d-ae1c-bda045ce750f||Sequence: R016 ve11c/master r/8780670; Nov 27 2017 15:05:12 by eja",
  "dcmmeta_affine": [
    [-1.997813105583191, 0.09211792796850204, -0.016030531376600266, 104.15538024902344],
    [0.09346002340316772, 1.9776591062545776, -0.28307226300239563, -83.92436218261719],
    [-0.0028134468011558056, 0.28351184725761414, 1.9798012971878052, -53.327598571777344],
    [0.0, 0.0, 0.0, 1.0]
],
  "dcmmeta_reorient_transform": [
    [0.0, -1.0, 0.0, 103.0],
    [1.0, 0.0, 0.0, 0.0],
    [0.0, 0.0, 1.0, 0.0],
    [0.0, 0.0, 0.0, 1.0]
],
  "dcmmeta_shape": [104, 104, 66, 300],
  "dcmmeta_slice_dim": 2,
  "dcmmeta_version": 0.6,
  "global": {
    "const": {
      "AccessionNumber": "Litbtkmn",
      "AcquisitionMatrix": [104, 0, 0, 104],
      "AngioFlag": "N",
      "BitsAllocated": 16,
      "BitsStored": 16,
      "BodyPartExamined": "BRAIN",
      "Columns": 936,
      "EchoNumbers": 1,
      "EchoTime": 37.6,
      "EchoTrainLength": 104,
      "FlipAngle": 68.0,
      "HighBit": 15,
      "ImageOrientationPatient": [0.99890656581425, -0.0467300107248, -0.0014067234457, 0.04605896535889, 0.98882952475698, -0.1417559264333],
      "ImagePositionPatient": [-983.05484924242, -903.60131441513, 94.985446890746],
      "ImageType": [
        "ORIGINAL",
        "PRIMARY",
        "M",
        "MB",
        "ND",
        "MOSAIC"
],
      "ImagedNucleus": "1H",
      "ImagingFrequency": 123.196774,
      "InPlanePhaseEncodingDirection": "COL",
      "MRAcquisitionType": "2D",
      "MagneticFieldStrength": 3.0,
      "Manufacturer": "SIEMENS",
      "ManufacturerModelName": "Prisma",
      "Modality": "MR",
      "NumberOfAverages": 1.0,
      "NumberOfPhaseEncodingSteps": 104,
      "PercentPhaseFieldOfView": 100.0,
      "PercentSampling": 100.0,
      "PerformedProcedureStepStartTime": "094127.950000",
      "PhotometricInterpretation": "MONOCHROME2",
      "PixelBandwidth": 2290.0,
      "PixelRepresentation": 0,
      "PixelSpacing": [2.0, 2.0],
      "ProtocolName": "cmrr_mbepi_s6_2mm_66sl_PA_task-bar2",
      "RepetitionTime": 1000.0,
      "Rows": 936,
      "SAR": 0.05679969593602,
      "SamplesPerPixel": 1,
      "ScanOptions": "FS",
      "ScanningSequence": "EP",
      "SequenceName": "epfid2d1_104",
      "SequenceVariant": [
        "SK",
        "SS"
],
      "SeriesDescription": "cmrr_mbepi_s6_2mm_66sl_PA_task-bar2",
      "SeriesNumber": 12,
      "SeriesTime": "101125.940000",
      "SliceLocation": -41.745527225607,
      "SliceThickness": 2.0,
      "SmallestImagePixelValue": 0,
      "SoftwareVersions": "syngo MR E11",
      "SpacingBetweenSlices": 1.9999999576256,
      "SpecificCharacterSet": "ISO_IR 100",
      "StudyID": "1",
      "StudyTime": "094127.784000",
      "TransmitCoilName": "Body",
      "VariableFlipAngleFlag": "N",
      "WindowCenterWidthExplanation": "Algo1",
      "dBdt": 0.0},
    "slices": {}
  },
  "time": {
    "samples": {
      "AcquisitionNumber": [1, 2, 3, 4, 5, 6, 7, 8, 9, 10, 11, 12, 13, 14, 15, 16, 17, 18, 19, 20, 21, 22, 23, 24, 25, 26, 27, 28, 29, 30, 31, 32, 33, 34, 35, 36, 37, 38, 39, 40, 41, 42, 43, 44, 45, 46, 47, 48, 49, 50, 51, 52, 53, 54, 55, 56, 57, 58, 59, 60, 61, 62, 63, 64, 65, 66, 67, 68, 69, 70, 71, 72, 73, 74, 75, 76, 77, 78, 79, 80, 81, 82, 83, 84, 85, 86, 87, 88, 89, 90, 91, 92, 93, 94, 95, 96, 97, 98, 99, 100, 101, 102, 103, 104, 105, 106, 107, 108, 109, 110, 111, 112, 113, 114, 115, 116, 117, 118, 119, 120, 121, 122, 123, 124, 125, 126, 127, 128, 129, 130, 131, 132, 133, 134, 135, 136, 137, 138, 139, 140, 141, 142, 143, 144, 145, 146, 147, 148, 149, 150, 151, 152, 153, 154, 155, 156, 157, 158, 159, 160, 161, 162, 163, 164, 165, 166, 167, 168, 169, 170, 171, 172, 173, 174, 175, 176, 177, 178, 179, 180, 181, 182, 183, 184, 185, 186, 187, 188, 189, 190, 191, 192, 193, 194, 195, 196, 197, 198, 199, 200, 201, 202, 203, 204, 205, 206, 207, 208, 209, 210, 211, 212, 213, 214, 215, 216, 217, 218, 219, 220, 221, 222, 223, 224, 225, 226, 227, 228, 229, 230, 231, 232, 233, 234, 235, 236, 237, 238, 239, 240, 241, 242, 243, 244, 245, 246, 247, 248, 249, 250, 251, 252, 253, 254, 255, 256, 257, 258, 259, 260, 261, 262, 263, 264, 265, 266, 267, 268, 269, 270, 271, 272, 273, 274, 275, 276, 277, 278, 279, 280, 281, 282, 283, 284, 285, 286, 287, 288, 289, 290, 291, 292, 293, 294, 295, 296, 297, 298, 299, 300],
      "AcquisitionTime": ["101007.832500", "101008.832500", "101009.832500", "101010.832500", "101011.832500", "101012.832500", "101013.832500", "101014.832500", "101015.832500", "101016.832500", "101017.832500", "101018.832500", "101019.832500", "101020.832500", "101021.832500", "101022.832500", "101023.832500", "101024.832500", "101025.832500", "101026.832500", "101027.832500", "101028.832500", "101029.832500", "101030.832500", "101031.832500", "101032.832500", "101033.832500", "101034.832500", "101035.832500", "101036.832500", "101037.832500", "101038.832500", "101039.832500", "101040.832500", "101041.832500", "101042.832500", "101043.832500", "101044.832500", "101045.832500", "101046.832500", "101047.832500", "101048.832500", "101049.832500", "101050.832500", "101051.832500", "101052.832500", "101053.832500", "101054.832500", "101055.832500", "101056.832500", "101057.832500", "101058.832500", "101059.832500", "101100.832500", "101101.832500", "101102.832500", "101103.832500", "101104.832500", "101105.832500", "101106.832500", "101107.832500", "101108.832500", "101109.832500", "101110.832500", "101111.832500", "101112.832500", "101113.832500", "101114.832500", "101115.832500", "101116.832500", "101117.832500", "101118.832500", "101119.832500", "101120.832500", "101121.832500", "101122.832500", "101123.832500", "101124.832500", "101125.832500", "101126.832500", "101127.832500", "101128.832500", "101129.832500", "101130.832500", "101131.832500", "101132.832500", "101133.832500", "101134.832500", "101135.832500", "101136.832500", "101137.832500", "101138.832500", "101139.832500", "101140.832500", "101141.832500", "101142.832500", "101143.832500", "101144.832500", "101145.832500", "101146.832500", "101147.832500", "101148.832500", "101149.832500", "101150.832500", "101151.832500", "101152.832500", "101153.832500", "101154.832500", "101155.832500", "101156.832500", "101157.832500", "101158.832500", "101159.832500", "101200.832500", "101201.832500", "101202.832500", "101203.832500", "101204.832500", "101205.832500", "101206.832500", "101207.832500", "101208.832500", "101209.832500", "101210.832500", "101211.832500", "101212.832500", "101213.832500", "101214.832500", "101215.832500", "101216.832500", "101217.832500", "101218.832500", "101219.832500", "101220.832500", "101221.832500", "101222.832500", "101223.832500", "101224.832500", "101225.832500", "101226.832500", "101227.832500", "101228.832500", "101229.832500", "101230.832500", "101231.832500", "101232.832500", "101233.832500", "101234.832500", "101235.832500", "101236.832500", "101237.832500", "101238.832500", "101239.832500", "101240.832500", "101241.832500", "101242.832500", "101243.832500", "101244.832500", "101245.832500", "101246.832500", "101247.832500", "101248.832500", "101249.832500", "101250.832500", "101251.832500", "101252.832500", "101253.832500", "101254.832500", "101255.832500", "101256.832500", "101257.832500", "101258.832500", "101259.832500", "101300.832500", "101301.832500", "101302.832500", "101303.832500", "101304.832500", "101305.832500", "101306.832500", "101307.832500", "101308.832500", "101309.832500", "101310.832500", "101311.832500", "101312.832500", "101313.832500", "101314.832500", "101315.832500", "101316.832500", "101317.832500", "101318.832500", "101319.832500", "101320.832500", "101321.832500", "101322.832500", "101323.832500", "101324.832500", "101325.832500", "101326.832500", "101327.832500", "101328.832500", "101329.832500", "101330.832500", "101331.832500", "101332.832500", "101333.832500", "101334.832500", "101335.832500", "101336.832500", "101337.832500", "101338.832500", "101339.832500", "101340.832500", "101341.832500", "101342.832500", "101343.832500", "101344.832500", "101345.832500", "101346.832500", "101347.832500", "101348.832500", "101349.832500", "101350.832500", "101351.832500", "101352.832500", "101353.832500", "101354.832500", "101355.832500", "101356.832500", "101357.832500", "101358.832500", "101359.832500", "101400.832500", "101401.832500", "101402.832500", "101403.832500", "101404.832500", "101405.832500", "101406.832500", "101407.832500", "101408.832500", "101409.832500", "101410.832500", "101411.832500", "101412.832500", "101413.832500", "101414.832500", "101415.832500", "101416.832500", "101417.832500", "101418.832500", "101419.832500", "101420.832500", "101421.832500", "101422.832500", "101423.832500", "101424.832500", "101425.832500", "101426.832500", "101427.832500", "101428.832500", "101429.832500", "101430.832500", "101431.832500", "101432.832500", "101433.832500", "101434.832500", "101435.832500", "101436.832500", "101437.832500", "101438.832500", "101439.832500", "101440.832500", "101441.832500", "101442.832500", "101443.832500", "101444.832500", "101445.832500", "101446.832500", "101447.832500", "101448.832500", "101449.832500", "101450.832500", "101451.832500", "101452.832500", "101453.832500", "101454.832500", "101455.832500", "101456.832500", "101457.832500", "101458.832500", "101459.832500", "101500.832500", "101501.832500", "101502.832500", "101503.832500", "101504.832500", "101505.832500", "101506.832500"],
      "ContentTime": ["101125.943000", "101125.953000", "101125.956000", "101125.959000", "101125.962000", "101125.965000", "101125.968000", "101125.971000", "101125.974000", "101125.977000", "101125.980000", "101125.983000", "101125.986000", "101125.989000", "101125.992000", "101125.995000", "101125.998000", "101126.002000", "101126.005000", "101126.008000", "101126.018000", "101126.021000", "101126.024000", "101126.027000", "101126.030000", "101126.033000", "101126.036000", "101126.039000", "101126.042000", "101126.045000", "101126.048000", "101126.051000", "101126.054000", "101126.057000", "101126.060000", "101126.063000", "101126.066000", "101126.069000", "101126.072000", "101145.888000", "101145.891000", "101145.894000", "101145.897000", "101145.900000", "101145.903000", "101145.906000", "101145.909000", "101145.912000", "101145.916000", "101145.919000", "101145.921000", "101145.924000", "101145.928000", "101145.931000", "101145.935000", "101145.938000", "101145.973000", "101145.976000", "101145.979000", "101145.982000", "101145.985000", "101145.988000", "101145.991000", "101145.994000", "101145.997000", "101146.001000", "101146.004000", "101205.888000", "101205.891000", "101205.894000", "101205.897000", "101205.900000", "101205.903000", "101205.906000", "101205.909000", "101205.912000", "101205.915000", "101205.918000", "101205.921000", "101205.924000", "101205.927000", "101205.930000", "101205.933000", "101205.936000", "101205.939000", "101205.942000", "101205.945000", "101205.948000", "101205.951000", "101205.954000", "101205.957000", "101205.960000", "101205.963000", "101205.966000", "101205.969000", "101205.972000", "101225.888000", "101225.891000", "101225.895000", "101225.898000", "101225.901000", "101225.904000", "101225.907000", "101225.910000", "101225.913000", "101225.916000", "101225.919000", "101225.922000", "101225.925000", "101225.928000", "101225.932000", "101225.935000", "101225.938000", "101225.941000", "101225.944000", "101225.947000", "101225.950000", "101225.953000", "101225.957000", "101225.960000", "101225.963000", "101225.966000", "101225.969000", "101225.972000", "101245.888000", "101245.891000", "101245.894000", "101245.897000", "101245.900000", "101245.903000", "101245.906000", "101245.909000", "101245.912000", "101245.915000", "101245.918000", "101245.921000", "101245.924000", "101245.927000", "101245.930000", "101245.933000", "101245.937000", "101245.940000", "101245.944000", "101245.946000", "101245.950000", "101245.953000", "101245.956000", "101245.959000", "101245.962000", "101245.965000", "101245.968000", "101245.971000", "101305.888000", "101305.891000", "101305.894000", "101305.897000", "101305.900000", "101305.903000", "101305.906000", "101305.909000", "101305.912000", "101305.915000", "101305.918000", "101305.921000", "101305.924000", "101305.927000", "101305.939000", "101305.942000", "101305.946000", "101305.949000", "101305.951000", "101305.954000", "101305.958000", "101305.961000", "101305.963000", "101305.966000", "101305.970000", "101325.888000", "101325.891000", "101325.894000", "101325.897000", "101325.900000", "101325.903000", "101325.906000", "101325.909000", "101325.912000", "101325.915000", "101325.918000", "101325.921000", "101325.924000", "101325.927000", "101325.930000", "101325.933000", "101325.947000", "101325.949000", "101325.952000", "101325.955000", "101345.888000", "101345.891000", "101345.894000", "101345.897000", "101345.900000", "101345.903000", "101345.906000", "101345.918000", "101345.921000", "101345.924000", "101345.927000", "101345.930000", "101345.933000", "101345.936000", "101345.939000", "101345.942000", "101345.945000", "101345.948000", "101345.951000", "101345.954000", "101405.888000", "101405.891000", "101405.894000", "101405.897000", "101405.900000", "101405.903000", "101405.906000", "101405.909000", "101405.912000", "101405.915000", "101405.918000", "101405.921000", "101405.924000", "101405.927000", "101405.930000", "101405.933000", "101405.936000", "101405.939000", "101405.942000", "101405.945000", "101425.888000", "101425.891000", "101425.894000", "101425.897000", "101425.900000", "101425.903000", "101425.906000", "101425.909000", "101425.912000", "101425.915000", "101425.918000", "101425.922000", "101425.924000", "101425.927000", "101425.930000", "101425.933000", "101425.936000", "101425.939000", "101425.948000", "101425.951000", "101445.888000", "101445.891000", "101445.894000", "101445.897000", "101445.900000", "101445.903000", "101445.906000", "101445.909000", "101445.912000", "101445.915000", "101445.918000", "101445.922000", "101445.925000", "101445.927000", "101445.930000", "101445.934000", "101445.937000", "101445.941000", "101445.943000", "101445.947000", "101505.888000", "101505.891000", "101505.894000", "101505.897000", "101505.900000", "101505.903000", "101505.906000", "101505.909000", "101505.912000", "101505.915000", "101505.918000", "101505.921000", "101505.924000", "101505.927000", "101505.930000", "101505.933000", "101505.936000", "101505.939000", "101505.942000", "101505.945000", "101508.214000", "101508.217000", "101508.220000"],
      "InstanceCreationTime": ["101125.943000", "101125.953000", "101125.956000", "101125.959000", "101125.962000", "101125.965000", "101125.968000", "101125.971000", "101125.974000", "101125.977000", "101125.980000", "101125.983000", "101125.986000", "101125.989000", "101125.992000", "101125.995000", "101125.998000", "101126.002000", "101126.005000", "101126.008000", "101126.018000", "101126.021000", "101126.024000", "101126.027000", "101126.030000", "101126.033000", "101126.036000", "101126.039000", "101126.042000", "101126.045000", "101126.048000", "101126.051000", "101126.054000", "101126.057000", "101126.060000", "101126.063000", "101126.066000", "101126.069000", "101126.072000", "101145.888000", "101145.891000", "101145.894000", "101145.897000", "101145.900000", "101145.903000", "101145.906000", "101145.909000", "101145.912000", "101145.916000", "101145.919000", "101145.921000", "101145.924000", "101145.928000", "101145.931000", "101145.935000", "101145.938000", "101145.973000", "101145.976000", "101145.979000", "101145.982000", "101145.985000", "101145.988000", "101145.991000", "101145.994000", "101145.997000", "101146.001000", "101146.004000", "101205.888000", "101205.891000", "101205.894000", "101205.897000", "101205.900000", "101205.903000", "101205.906000", "101205.909000", "101205.912000", "101205.915000", "101205.918000", "101205.921000", "101205.924000", "101205.927000", "101205.930000", "101205.933000", "101205.936000", "101205.939000", "101205.942000", "101205.945000", "101205.948000", "101205.951000", "101205.954000", "101205.957000", "101205.960000", "101205.963000", "101205.966000", "101205.969000", "101205.972000", "101225.888000", "101225.891000", "101225.895000", "101225.898000", "101225.901000", "101225.904000", "101225.907000", "101225.910000", "101225.913000", "101225.916000", "101225.919000", "101225.922000", "101225.925000", "101225.928000", "101225.932000", "101225.935000", "101225.938000", "101225.941000", "101225.944000", "101225.947000", "101225.950000", "101225.953000", "101225.957000", "101225.960000", "101225.963000", "101225.966000", "101225.969000", "101225.972000", "101245.888000", "101245.891000", "101245.894000", "101245.897000", "101245.900000", "101245.903000", "101245.906000", "101245.909000", "101245.912000", "101245.915000", "101245.918000", "101245.921000", "101245.924000", "101245.927000", "101245.930000", "101245.933000", "101245.937000", "101245.940000", "101245.944000", "101245.946000", "101245.950000", "101245.953000", "101245.956000", "101245.959000", "101245.962000", "101245.965000", "101245.968000", "101245.971000", "101305.888000", "101305.891000", "101305.894000", "101305.897000", "101305.900000", "101305.903000", "101305.906000", "101305.909000", "101305.912000", "101305.915000", "101305.918000", "101305.921000", "101305.924000", "101305.927000", "101305.939000", "101305.942000", "101305.946000", "101305.949000", "101305.951000", "101305.954000", "101305.958000", "101305.961000", "101305.963000", "101305.966000", "101305.970000", "101325.888000", "101325.891000", "101325.894000", "101325.897000", "101325.900000", "101325.903000", "101325.906000", "101325.909000", "101325.912000", "101325.915000", "101325.918000", "101325.921000", "101325.924000", "101325.927000", "101325.930000", "101325.933000", "101325.947000", "101325.949000", "101325.952000", "101325.955000", "101345.888000", "101345.891000", "101345.894000", "101345.897000", "101345.900000", "101345.903000", "101345.906000", "101345.918000", "101345.921000", "101345.924000", "101345.927000", "101345.930000", "101345.933000", "101345.936000", "101345.939000", "101345.942000", "101345.945000", "101345.948000", "101345.951000", "101345.954000", "101405.888000", "101405.891000", "101405.894000", "101405.897000", "101405.900000", "101405.903000", "101405.906000", "101405.909000", "101405.912000", "101405.915000", "101405.918000", "101405.921000", "101405.924000", "101405.927000", "101405.930000", "101405.933000", "101405.936000", "101405.939000", "101405.942000", "101405.945000", "101425.888000", "101425.891000", "101425.894000", "101425.897000", "101425.900000", "101425.903000", "101425.906000", "101425.909000", "101425.912000", "101425.915000", "101425.918000", "101425.922000", "101425.924000", "101425.927000", "101425.930000", "101425.933000", "101425.936000", "101425.939000", "101425.948000", "101425.951000", "101445.888000", "101445.891000", "101445.894000", "101445.897000", "101445.900000", "101445.903000", "101445.906000", "101445.909000", "101445.912000", "101445.915000", "101445.918000", "101445.922000", "101445.925000", "101445.927000", "101445.930000", "101445.934000", "101445.937000", "101445.941000", "101445.943000", "101445.947000", "101505.888000", "101505.891000", "101505.894000", "101505.897000", "101505.900000", "101505.903000", "101505.906000", "101505.909000", "101505.912000", "101505.915000", "101505.918000", "101505.921000", "101505.924000", "101505.927000", "101505.930000", "101505.933000", "101505.936000", "101505.939000", "101505.942000", "101505.945000", "101508.214000", "101508.217000", "101508.220000"],
      "InstanceNumber": [1, 2, 3, 4, 5, 6, 7, 8, 9, 10, 11, 12, 13, 14, 15, 16, 17, 18, 19, 20, 21, 22, 23, 24, 25, 26, 27, 28, 29, 30, 31, 32, 33, 34, 35, 36, 37, 38, 39, 40, 41, 42, 43, 44, 45, 46, 47, 48, 49, 50, 51, 52, 53, 54, 55, 56, 57, 58, 59, 60, 61, 62, 63, 64, 65, 66, 67, 68, 69, 70, 71, 72, 73, 74, 75, 76, 77, 78, 79, 80, 81, 82, 83, 84, 85, 86, 87, 88, 89, 90, 91, 92, 93, 94, 95, 96, 97, 98, 99, 100, 101, 102, 103, 104, 105, 106, 107, 108, 109, 110, 111, 112, 113, 114, 115, 116, 117, 118, 119, 120, 121, 122, 123, 124, 125, 126, 127, 128, 129, 130, 131, 132, 133, 134, 135, 136, 137, 138, 139, 140, 141, 142, 143, 144, 145, 146, 147, 148, 149, 150, 151, 152, 153, 154, 155, 156, 157, 158, 159, 160, 161, 162, 163, 164, 165, 166, 167, 168, 169, 170, 171, 172, 173, 174, 175, 176, 177, 178, 179, 180, 181, 182, 183, 184, 185, 186, 187, 188, 189, 190, 191, 192, 193, 194, 195, 196, 197, 198, 199, 200, 201, 202, 203, 204, 205, 206, 207, 208, 209, 210, 211, 212, 213, 214, 215, 216, 217, 218, 219, 220, 221, 222, 223, 224, 225, 226, 227, 228, 229, 230, 231, 232, 233, 234, 235, 236, 237, 238, 239, 240, 241, 242, 243, 244, 245, 246, 247, 248, 249, 250, 251, 252, 253, 254, 255, 256, 257, 258, 259, 260, 261, 262, 263, 264, 265, 266, 267, 268, 269, 270, 271, 272, 273, 274, 275, 276, 277, 278, 279, 280, 281, 282, 283, 284, 285, 286, 287, 288, 289, 290, 291, 292, 293, 294, 295, 296, 297, 298, 299, 300],
      "LargestImagePixelValue": [32680, 31921, 31532, 30886, 30836, 31378, 30368, 30853, 30705, 30770, 30719, 30797, 30608, 30705, 30909, 30744, 30423, 30702, 30857, 30950, 30781, 30435, 30209, 30837, 30729, 30664, 30673, 30510, 30694, 30684, 30807, 30713, 31016, 31345, 30979, 30649, 30789, 30537, 30930, 30468, 31195, 30535, 30483, 30631, 30801, 31195, 30667, 30359, 31150, 30473, 30757, 30798, 31306, 30463, 30611, 30986, 30980, 30673, 30589, 30912, 30961, 30713, 31038, 31429, 30978, 31216, 30875, 30749, 30730, 30503, 30239, 30783, 31197, 30876, 30381, 30750, 31297, 30798, 30514, 30654, 30659, 30514, 30469, 30500, 30486, 31563, 30440, 30452, 30481, 30368, 30313, 30610, 30770, 30915, 31007, 30588, 30601, 30572, 30500, 30581, 30838, 30437, 30800, 30282, 30479, 30980, 30916, 30780, 30636, 30546, 30758, 30649, 30851, 30715, 30999, 31132, 30480, 30914, 30782, 31010, 30729, 30667, 31063, 30882, 30754, 30640, 31096, 31227, 30820, 30580, 30728, 31004, 31088, 31191, 30868, 30682, 30894, 30775, 30813, 30504, 30647, 30824, 30966, 30896, 30765, 30679, 30907, 30800, 30759, 30656, 30969, 30435, 31080, 30825, 30910, 30916, 30894, 30940, 31001, 31166, 30713, 30760, 30550, 30968, 30500, 30458, 30378, 30651, 31107, 30980, 30883, 30502, 30832, 30387, 30647, 30456, 30697, 30811, 30649, 30871, 30771, 30745, 30745, 30416, 30425, 30456, 30668, 30743, 30673, 30457, 30794, 30787, 30833, 31129, 30930, 31356, 30581, 30733, 30559, 30787, 30621, 30768, 30664, 30657, 30756, 30848, 30800, 31112, 31160, 30965, 30929, 30740, 30705, 30518, 30939, 30771, 30649, 30855, 30776, 30967, 30862, 30830, 30855, 30815, 30998, 30994, 30675, 30909, 31041, 30856, 31486, 30699, 30892, 30738, 31267, 31195, 30745, 30625, 30951, 30743, 30752, 30913, 30627, 30569, 30792, 30674, 30864, 30574, 30647, 31005, 31147, 30488, 30401, 30593, 30600, 31012, 31250, 30686, 30672, 30669, 30672, 30890, 30670, 30756, 30624, 31291, 30536, 30804, 30391, 30751, 30854, 30655, 30645, 30488, 30684, 30617, 30882, 30826, 31000, 31013, 30828, 31363, 30890, 30816, 30782, 31112, 30783, 30472, 31022, 30774, 31097, 31177, 31041, 30978, 31024, 31018, 30666, 30876, 30907, 30633],
      "WindowCenter": [9315.0, 9284.0, 9273.0, 9266.0, 9274.0, 9280.0, 9268.0, 9290.0, 9293.0, 9294.0, 9298.0, 9298.0, 9291.0, 9284.0, 9294.0, 9293.0, 9291.0, 9291.0, 9302.0, 9308.0, 9301.0, 9294.0, 9287.0, 9301.0, 9302.0, 9304.0, 9301.0, 9286.0, 9283.0, 9283.0, 9297.0, 9300.0, 9307.0, 9315.0, 9317.0, 9310.0, 9304.0, 9304.0, 9306.0, 9295.0, 9315.0, 9306.0, 9312.0, 9308.0, 9313.0, 9319.0, 9310.0, 9302.0, 9307.0, 9286.0, 9276.0, 9267.0, 9277.0, 9268.0, 9283.0, 9298.0, 9300.0, 9295.0, 9304.0, 9310.0, 9303.0, 9304.0, 9308.0, 9319.0, 9319.0, 9324.0, 9321.0, 9314.0, 9305.0, 9290.0, 9281.0, 9282.0, 9294.0, 9300.0, 9299.0, 9304.0, 9303.0, 9261.0, 9262.0, 9270.0, 9277.0, 9268.0, 9281.0, 9281.0, 9275.0, 9276.0, 9245.0, 9246.0, 9252.0, 9269.0, 9279.0, 9288.0, 9286.0, 9286.0, 9285.0, 9277.0, 9270.0, 9268.0, 9260.0, 9265.0, 9274.0, 9286.0, 9296.0, 9296.0, 9303.0, 9308.0, 9309.0, 9292.0, 9293.0, 9294.0, 9296.0, 9293.0, 9306.0, 9304.0, 9302.0, 9302.0, 9295.0, 9300.0, 9287.0, 9285.0, 9282.0, 9293.0, 9294.0, 9293.0, 9295.0, 9286.0, 9284.0, 9281.0, 9267.0, 9269.0, 9268.0, 9276.0, 9284.0, 9286.0, 9294.0, 9295.0, 9293.0, 9277.0, 9276.0, 9270.0, 9266.0, 9267.0, 9274.0, 9288.0, 9286.0, 9295.0, 9309.0, 9321.0, 9332.0, 9316.0, 9293.0, 9281.0, 9290.0, 9290.0, 9308.0, 9311.0, 9303.0, 9293.0, 9278.0, 9292.0, 9307.0, 9251.0, 9245.0, 9270.0, 9279.0, 9296.0, 9287.0, 9289.0, 9293.0, 9274.0, 9256.0, 9269.0, 9292.0, 9277.0, 9285.0, 9288.0, 9302.0, 9286.0, 9275.0, 9257.0, 9262.0, 9253.0, 9245.0, 9242.0, 9252.0, 9249.0, 9273.0, 9278.0, 9278.0, 9277.0, 9294.0, 9314.0, 9315.0, 9317.0, 9310.0, 9314.0, 9294.0, 9287.0, 9282.0, 9284.0, 9277.0, 9285.0, 9287.0, 9292.0, 9287.0, 9295.0, 9296.0, 9302.0, 9295.0, 9301.0, 9294.0, 9286.0, 9278.0, 9269.0, 9265.0, 9264.0, 9267.0, 9273.0, 9293.0, 9301.0, 9307.0, 9313.0, 9308.0, 9298.0, 9300.0, 9291.0, 9293.0, 9307.0, 9315.0, 9310.0, 9309.0, 9296.0, 9294.0, 9293.0, 9298.0, 9300.0, 9301.0, 9296.0, 9294.0, 9286.0, 9279.0, 9283.0, 9270.0, 9266.0, 9262.0, 9257.0, 9267.0, 9277.0, 9279.0, 9284.0, 9284.0, 9272.0, 9265.0, 9270.0, 9268.0, 9267.0, 9274.0, 9270.0, 9279.0, 9285.0, 9278.0, 9285.0, 9295.0, 9295.0, 9287.0, 9291.0, 9278.0, 9278.0, 9273.0, 9285.0, 9301.0, 9298.0, 9304.0, 9299.0, 9297.0, 9295.0, 9294.0, 9289.0, 9295.0, 9293.0, 9288.0, 9291.0, 9284.0, 9268.0, 9267.0, 9256.0, 9264.0, 9284.0, 9299.0, 9287.0, 9282.0, 9273.0, 9256.0, 9245.0, 9240.0, 9236.0, 9222.0, 9212.0, 9210.0, 9210.0],
