{
  "AcquisitionMatrixPE": 104,
  "AcquisitionNumber": 1,
  "AcquisitionTime": "09:19:45.767500",
  "BandwidthPerPixelPhaseEncode": 16.297,
  "BaseResolution": 104,
  "BodyPartExamined": "BRAIN",
  "ConsistencyInfo": "N4_VE11C_LATEST_20160120",
  "ConversionSoftware": "dcm2niix",
  "ConversionSoftwareVersion": "v1.0.20210317",
  "DerivedVendorReportedEchoSpacing": 0.000590009,
  "DeviceSerialNumber": "166018",
  "DwellTime": 2.1e-06,
  "EchoTime": 0.0376,
  "EchoTrainLength": 104,
  "EffectiveEchoSpacing": 0.000590009,
  "FlipAngle": 68,
  "ImageComments": "Unaliased MB6/PE3/LB",
  "ImageOrientationPatientDICOM": [0.999422, -0.0214468, -0.0263772, 0.0160491, 0.981642, -0.190058],
  "ImageType": [
    "ORIGINAL",
    "PRIMARY",
    "M",
    "MB",
    "ND",
    "MOSAIC"
],
  "ImagingFrequency": 123.197,
  "InPlanePhaseEncodingDirectionDICOM": "COL",
  "InstitutionAddress": "Washington Place 6,NYC,NYC,US,10003",
  "InstitutionName": "NYU - CBI",
  "InstitutionalDepartmentName": "Department",
  "MRAcquisitionType": "2D",
  "MagneticFieldStrength": 3,
  "Manufacturer": "Siemens",
  "ManufacturersModelName": "Prisma",
  "Modality": "MR",
  "MultibandAccelerationFactor": 6,
  "PartialFourier": 1,
  "PatientPosition": "HFS",
  "PercentPhaseFOV": 100,
  "PercentSampling": 100,
  "PhaseEncodingDirection": "j",
  "PhaseEncodingSteps": 104,
  "PhaseResolution": 1,
  "PixelBandwidth": 2290,
  "ProcedureStepDescription": "Investigators^Winawer",
  "ProtocolName": "cmrr_mbepi_s6_2mm_66sl_PA_task-wedgering1",
  "PulseSequenceDetails": "%CustomerSeq%\\cmrr_mbep2d_bold",
  "ReceiveCoilActiveElements": "HC1-7",
  "ReceiveCoilName": "HeadNeck_64",
  "ReconMatrixPE": 104,
  "RepetitionTime": 1,
  "SAR": 0.0751782,
  "ScanOptions": "FS",
  "ScanningSequence": "EP",
  "SequenceName": "epfid2d1_104",
  "SequenceVariant": "SK\\SS",
  "SeriesDescription": "cmrr_mbepi_s6_2mm_66sl_PA_task-wedgering1",
  "SeriesNumber": 10,
  "ShimSetting": [294, -12656, -8497, 199, 16, -115, -64, 8],
  "SliceThickness": 2,
  "SliceTiming": [0, 0.535, 0.0875, 0.6225, 0.1775, 0.7125, 0.2675, 0.8, 0.355, 0.89, 0.445, 0, 0.535, 0.0875, 0.6225, 0.1775, 0.7125, 0.2675, 0.8, 0.355, 0.89, 0.445, 0, 0.535, 0.0875, 0.6225, 0.1775, 0.7125, 0.2675, 0.8, 0.355, 0.89, 0.445, 0, 0.535, 0.0875, 0.6225, 0.1775, 0.7125, 0.2675, 0.8, 0.355, 0.89, 0.445, 0, 0.535, 0.0875, 0.6225, 0.1775, 0.7125, 0.2675, 0.8, 0.355, 0.89, 0.445, 0, 0.535, 0.0875, 0.6225, 0.1775, 0.7125, 0.2675, 0.8, 0.355, 0.89, 0.445],
  "SoftwareVersions": "syngo MR E11",
  "SpacingBetweenSlices": 2,
  "StationName": "AWP166018",
  "TaskName": "wedgering1",
  "TotalReadoutTime": 0.060771,
  "TxRefAmp": 242.968,
  "VendorReportedEchoSpacing": 0.00059,
  "WipMemBlock": "5bba1bf0-5d0d-4430-b163-0d70227ac52f||Sequence: R016 ve11c/master r/8780670; Nov 27 2017 15:05:12 by eja",
  "dcmmeta_affine": [
    [-1.9988439083099365, 0.03209828585386276, -0.059938233345746994, 105.57099914550781],
    [0.04289361461997032, 1.9632831811904907, -0.3790505528450012, -72.3161392211914],
    [-0.05275442823767662, 0.38011693954467773, 1.962836742401123, -54.328765869140625],
    [0.0, 0.0, 0.0, 1.0]
],
  "dcmmeta_reorient_transform": [
    [0.0, -1.0, 0.0, 103.0],
    [1.0, 0.0, 0.0, 0.0],
    [0.0, 0.0, 1.0, 0.0],
    [0.0, 0.0, 0.0, 1.0]
],
  "dcmmeta_shape": [104, 104, 66, 300],
  "dcmmeta_slice_dim": 2,
  "dcmmeta_version": 0.6,
  "global": {
    "const": {
      "AccessionNumber": "Lerfni0t",
      "AcquisitionMatrix": [104, 0, 0, 104],
      "AngioFlag": "N",
      "BitsAllocated": 16,
      "BitsStored": 16,
      "BodyPartExamined": "BRAIN",
      "Columns": 936,
      "EchoNumbers": 1,
      "EchoTime": 37.6,
      "EchoTrainLength": 104,
      "FlipAngle": 68.0,
      "HighBit": 15,
      "ImageOrientationPatient": [0.99942197143835, -0.02144680783, -0.0263772144129, 0.01604914228256, 0.9816415857263, -0.1900584704893],
      "ImagePositionPatient": [-953.74908821525, -928.78408113863, 164.89776972697],
      "ImageType": [
        "ORIGINAL",
        "PRIMARY",
        "M",
        "MB",
        "ND",
        "MOSAIC"
],
      "ImagedNucleus": "1H",
      "ImagingFrequency": 123.196812,
      "InPlanePhaseEncodingDirection": "COL",
      "MRAcquisitionType": "2D",
      "MagneticFieldStrength": 3.0,
      "Manufacturer": "SIEMENS",
      "ManufacturerModelName": "Prisma",
      "Modality": "MR",
      "NumberOfAverages": 1.0,
      "NumberOfPhaseEncodingSteps": 104,
      "PercentPhaseFieldOfView": 100.0,
      "PercentSampling": 100.0,
      "PerformedProcedureStepStartTime": "085354.283000",
      "PhotometricInterpretation": "MONOCHROME2",
      "PixelBandwidth": 2290.0,
      "PixelRepresentation": 0,
      "PixelSpacing": [2.0, 2.0],
      "ProtocolName": "cmrr_mbepi_s6_2mm_66sl_PA_task-wedgering1",
      "RepetitionTime": 1000.0,
      "Rows": 936,
      "SAR": 0.07517815611415,
      "SamplesPerPixel": 1,
      "ScanOptions": "FS",
      "ScanningSequence": "EP",
      "SequenceName": "epfid2d1_104",
      "SequenceVariant": [
        "SK",
        "SS"
],
      "SeriesDescription": "cmrr_mbepi_s6_2mm_66sl_PA_task-wedgering1",
      "SeriesNumber": 10,
      "SeriesTime": "092058.497000",
      "SliceLocation": -42.777381037677,
      "SliceThickness": 2.0,
      "SmallestImagePixelValue": 0,
      "SoftwareVersions": "syngo MR E11",
      "SpacingBetweenSlices": 1.9999999490726,
      "SpecificCharacterSet": "ISO_IR 100",
      "StudyID": "1",
      "StudyTime": "085354.170000",
      "TransmitCoilName": "Body",
      "VariableFlipAngleFlag": "N",
      "WindowCenterWidthExplanation": "Algo1",
      "dBdt": 0.0},
    "slices": {}
  },
  "time": {
    "samples": {
      "AcquisitionNumber": [1, 2, 3, 4, 5, 6, 7, 8, 9, 10, 11, 12, 13, 14, 15, 16, 17, 18, 19, 20, 21, 22, 23, 24, 25, 26, 27, 28, 29, 30, 31, 32, 33, 34, 35, 36, 37, 38, 39, 40, 41, 42, 43, 44, 45, 46, 47, 48, 49, 50, 51, 52, 53, 54, 55, 56, 57, 58, 59, 60, 61, 62, 63, 64, 65, 66, 67, 68, 69, 70, 71, 72, 73, 74, 75, 76, 77, 78, 79, 80, 81, 82, 83, 84, 85, 86, 87, 88, 89, 90, 91, 92, 93, 94, 95, 96, 97, 98, 99, 100, 101, 102, 103, 104, 105, 106, 107, 108, 109, 110, 111, 112, 113, 114, 115, 116, 117, 118, 119, 120, 121, 122, 123, 124, 125, 126, 127, 128, 129, 130, 131, 132, 133, 134, 135, 136, 137, 138, 139, 140, 141, 142, 143, 144, 145, 146, 147, 148, 149, 150, 151, 152, 153, 154, 155, 156, 157, 158, 159, 160, 161, 162, 163, 164, 165, 166, 167, 168, 169, 170, 171, 172, 173, 174, 175, 176, 177, 178, 179, 180, 181, 182, 183, 184, 185, 186, 187, 188, 189, 190, 191, 192, 193, 194, 195, 196, 197, 198, 199, 200, 201, 202, 203, 204, 205, 206, 207, 208, 209, 210, 211, 212, 213, 214, 215, 216, 217, 218, 219, 220, 221, 222, 223, 224, 225, 226, 227, 228, 229, 230, 231, 232, 233, 234, 235, 236, 237, 238, 239, 240, 241, 242, 243, 244, 245, 246, 247, 248, 249, 250, 251, 252, 253, 254, 255, 256, 257, 258, 259, 260, 261, 262, 263, 264, 265, 266, 267, 268, 269, 270, 271, 272, 273, 274, 275, 276, 277, 278, 279, 280, 281, 282, 283, 284, 285, 286, 287, 288, 289, 290, 291, 292, 293, 294, 295, 296, 297, 298, 299, 300],
      "AcquisitionTime": ["091945.767500", "091946.767500", "091947.767500", "091948.767500", "091949.767500", "091950.767500", "091951.767500", "091952.767500", "091953.767500", "091954.767500", "091955.767500", "091956.767500", "091957.767500", "091958.767500", "091959.767500", "092000.767500", "092001.767500", "092002.767500", "092003.767500", "092004.767500", "092005.767500", "092006.767500", "092007.767500", "092008.767500", "092009.767500", "092010.767500", "092011.767500", "092012.767500", "092013.767500", "092014.767500", "092015.767500", "092016.767500", "092017.767500", "092018.767500", "092019.767500", "092020.767500", "092021.767500", "092022.767500", "092023.767500", "092024.767500", "092025.767500", "092026.767500", "092027.767500", "092028.767500", "092029.767500", "092030.767500", "092031.767500", "092032.767500", "092033.767500", "092034.767500", "092035.767500", "092036.767500", "092037.767500", "092038.767500", "092039.767500", "092040.767500", "092041.767500", "092042.767500", "092043.767500", "092044.767500", "092045.767500", "092046.767500", "092047.767500", "092048.767500", "092049.767500", "092050.767500", "092051.767500", "092052.767500", "092053.767500", "092054.767500", "092055.767500", "092056.767500", "092057.767500", "092058.767500", "092059.767500", "092100.767500", "092101.767500", "092102.767500", "092103.767500", "092104.767500", "092105.767500", "092106.767500", "092107.767500", "092108.767500", "092109.767500", "092110.767500", "092111.767500", "092112.767500", "092113.767500", "092114.767500", "092115.767500", "092116.767500", "092117.767500", "092118.767500", "092119.767500", "092120.767500", "092121.767500", "092122.767500", "092123.767500", "092124.767500", "092125.767500", "092126.767500", "092127.767500", "092128.767500", "092129.767500", "092130.767500", "092131.767500", "092132.767500", "092133.767500", "092134.767500", "092135.767500", "092136.767500", "092137.767500", "092138.767500", "092139.767500", "092140.767500", "092141.767500", "092142.767500", "092143.767500", "092144.767500", "092145.767500", "092146.767500", "092147.767500", "092148.767500", "092149.767500", "092150.767500", "092151.767500", "092152.767500", "092153.767500", "092154.767500", "092155.767500", "092156.767500", "092157.767500", "092158.767500", "092159.767500", "092200.767500", "092201.767500", "092202.767500", "092203.767500", "092204.767500", "092205.767500", "092206.767500", "092207.767500", "092208.767500", "092209.767500", "092210.767500", "092211.767500", "092212.767500", "092213.767500", "092214.767500", "092215.767500", "092216.767500", "092217.767500", "092218.767500", "092219.767500", "092220.767500", "092221.767500", "092222.767500", "092223.767500", "092224.767500", "092225.767500", "092226.767500", "092227.767500", "092228.767500", "092229.767500", "092230.767500", "092231.767500", "092232.767500", "092233.767500", "092234.767500", "092235.767500", "092236.767500", "092237.767500", "092238.767500", "092239.767500", "092240.767500", "092241.767500", "092242.767500", "092243.767500", "092244.767500", "092245.767500", "092246.767500", "092247.767500", "092248.767500", "092249.767500", "092250.767500", "092251.767500", "092252.767500", "092253.767500", "092254.767500", "092255.767500", "092256.767500", "092257.767500", "092258.767500", "092259.767500", "092300.767500", "092301.767500", "092302.767500", "092303.767500", "092304.767500", "092305.767500", "092306.767500", "092307.767500", "092308.767500", "092309.767500", "092310.767500", "092311.767500", "092312.767500", "092313.767500", "092314.767500", "092315.767500", "092316.767500", "092317.767500", "092318.767500", "092319.767500", "092320.767500", "092321.767500", "092322.767500", "092323.767500", "092324.767500", "092325.767500", "092326.767500", "092327.767500", "092328.767500", "092329.767500", "092330.767500", "092331.767500", "092332.767500", "092333.767500", "092334.767500", "092335.767500", "092336.767500", "092337.767500", "092338.767500", "092339.767500", "092340.767500", "092341.767500", "092342.767500", "092343.767500", "092344.767500", "092345.767500", "092346.767500", "092347.767500", "092348.767500", "092349.767500", "092350.767500", "092351.767500", "092352.767500", "092353.767500", "092354.767500", "092355.767500", "092356.767500", "092357.767500", "092358.767500", "092359.767500", "092400.767500", "092401.767500", "092402.767500", "092403.767500", "092404.767500", "092405.767500", "092406.767500", "092407.767500", "092408.767500", "092409.767500", "092410.767500", "092411.767500", "092412.767500", "092413.767500", "092414.767500", "092415.767500", "092416.767500", "092417.767500", "092418.767500", "092419.767500", "092420.767500", "092421.767500", "092422.767500", "092423.767500", "092424.767500", "092425.767500", "092426.767500", "092427.767500", "092428.767500", "092429.767500", "092430.767500", "092431.767500", "092432.767500", "092433.767500", "092434.767500", "092435.767500", "092436.767500", "092437.767500", "092438.767500", "092439.767500", "092440.767500", "092441.767500", "092442.767500", "092443.767500", "092444.767500"],
      "ContentTime": ["092058.500000", "092058.503000", "092058.506000", "092058.509000", "092058.512000", "092058.515000", "092058.518000", "092058.521000", "092058.524000", "092058.527000", "092058.530000", "092058.545000", "092058.548000", "092058.551000", "092058.554000", "092058.557000", "092058.560000", "092058.567000", "092058.570000", "092058.573000", "092058.576000", "092058.579000", "092058.582000", "092058.585000", "092058.588000", "092058.591000", "092058.594000", "092058.597000", "092058.600000", "092058.603000", "092058.606000", "092058.609000", "092058.612000", "092058.615000", "092118.464000", "092118.467000", "092118.470000", "092118.473000", "092118.476000", "092118.479000", "092118.482000", "092118.485000", "092118.488000", "092118.491000", "092118.494000", "092118.497000", "092118.500000", "092118.503000", "092118.506000", "092118.509000", "092118.521000", "092118.524000", "092118.527000", "092118.530000", "092118.533000", "092118.537000", "092118.540000", "092118.543000", "092118.548000", "092118.552000", "092118.555000", "092118.558000", "092138.464000", "092138.467000", "092138.470000", "092138.473000", "092138.476000", "092138.479000", "092138.482000", "092138.485000", "092138.488000", "092138.491000", "092138.494000", "092138.497000", "092138.500000", "092138.503000", "092138.506000", "092138.509000", "092138.512000", "092138.516000", "092138.519000", "092138.522000", "092138.525000", "092138.528000", "092138.531000", "092138.534000", "092138.537000", "092138.540000", "092138.543000", "092138.546000", "092138.549000", "092158.464000", "092158.467000", "092158.470000", "092158.473000", "092158.476000", "092158.479000", "092158.482000", "092158.485000", "092158.488000", "092158.492000", "092158.494000", "092158.497000", "092158.500000", "092158.503000", "092158.506000", "092158.509000", "092158.512000", "092158.515000", "092158.518000", "092158.521000", "092158.524000", "092158.527000", "092158.530000", "092158.533000", "092158.536000", "092158.539000", "092158.542000", "092158.545000", "092218.464000", "092218.467000", "092218.470000", "092218.473000", "092218.476000", "092218.479000", "092218.482000", "092218.485000", "092218.488000", "092218.491000", "092218.494000", "092218.497000", "092218.500000", "092218.517000", "092218.520000", "092218.523000", "092218.526000", "092218.529000", "092218.532000", "092218.535000", "092218.538000", "092218.541000", "092218.544000", "092218.547000", "092218.550000", "092218.553000", "092218.556000", "092218.559000", "092218.562000", "092238.465000", "092238.468000", "092238.471000", "092238.474000", "092238.477000", "092238.489000", "092238.495000", "092238.497000", "092238.501000", "092238.504000", "092238.507000", "092238.510000", "092238.513000", "092238.516000", "092238.519000", "092238.522000", "092238.525000", "092238.528000", "092238.531000", "092238.534000", "092238.537000", "092238.540000", "092238.543000", "092258.465000", "092258.468000", "092258.471000", "092258.474000", "092258.477000", "092258.480000", "092258.483000", "092258.486000", "092258.489000", "092258.492000", "092258.495000", "092258.498000", "092258.501000", "092258.504000", "092258.507000", "092258.510000", "092258.513000", "092258.516000", "092258.519000", "092258.522000", "092318.465000", "092318.468000", "092318.471000", "092318.474000", "092318.477000", "092318.480000", "092318.483000", "092318.486000", "092318.489000", "092318.492000", "092318.495000", "092318.498000", "092318.501000", "092318.504000", "092318.507000", "092318.510000", "092318.513000", "092318.516000", "092318.519000", "092318.529000", "092338.464000", "092338.467000", "092338.470000", "092338.473000", "092338.476000", "092338.479000", "092338.482000", "092338.485000", "092338.488000", "092338.491000", "092338.494000", "092338.497000", "092338.500000", "092338.503000", "092338.506000", "092338.509000", "092338.512000", "092338.515000", "092338.518000", "092338.521000", "092358.464000", "092358.467000", "092358.470000", "092358.473000", "092358.476000", "092358.479000", "092358.482000", "092358.485000", "092358.488000", "092358.499000", "092358.502000", "092358.505000", "092358.508000", "092358.512000", "092358.514000", "092358.517000", "092358.520000", "092358.524000", "092358.526000", "092358.529000", "092418.464000", "092418.467000", "092418.470000", "092418.473000", "092418.476000", "092418.479000", "092418.482000", "092418.485000", "092418.488000", "092418.492000", "092418.494000", "092418.498000", "092418.500000", "092418.504000", "092418.507000", "092418.510000", "092418.513000", "092418.516000", "092418.519000", "092418.522000", "092438.464000", "092438.467000", "092438.470000", "092438.473000", "092438.476000", "092438.479000", "092438.482000", "092438.485000", "092438.488000", "092438.491000", "092438.494000", "092438.498000", "092438.501000", "092438.504000", "092438.507000", "092438.510000", "092438.513000", "092438.516000", "092438.519000", "092438.522000", "092446.859000", "092446.862000", "092446.865000", "092446.868000", "092446.871000", "092446.874000", "092446.877000", "092446.880000", "092446.883000"],
      "InstanceCreationTime": ["092058.500000", "092058.503000", "092058.506000", "092058.509000", "092058.512000", "092058.515000", "092058.518000", "092058.521000", "092058.524000", "092058.527000", "092058.530000", "092058.545000", "092058.548000", "092058.551000", "092058.554000", "092058.557000", "092058.560000", "092058.567000", "092058.570000", "092058.573000", "092058.576000", "092058.579000", "092058.582000", "092058.585000", "092058.588000", "092058.591000", "092058.594000", "092058.597000", "092058.600000", "092058.603000", "092058.606000", "092058.609000", "092058.612000", "092058.615000", "092118.464000", "092118.467000", "092118.470000", "092118.473000", "092118.476000", "092118.479000", "092118.482000", "092118.485000", "092118.488000", "092118.491000", "092118.494000", "092118.497000", "092118.500000", "092118.503000", "092118.506000", "092118.509000", "092118.521000", "092118.524000", "092118.527000", "092118.530000", "092118.533000", "092118.537000", "092118.540000", "092118.543000", "092118.548000", "092118.552000", "092118.555000", "092118.558000", "092138.464000", "092138.467000", "092138.470000", "092138.473000", "092138.476000", "092138.479000", "092138.482000", "092138.485000", "092138.488000", "092138.491000", "092138.494000", "092138.497000", "092138.500000", "092138.503000", "092138.506000", "092138.509000", "092138.512000", "092138.516000", "092138.519000", "092138.522000", "092138.525000", "092138.528000", "092138.531000", "092138.534000", "092138.537000", "092138.540000", "092138.543000", "092138.546000", "092138.549000", "092158.464000", "092158.467000", "092158.470000", "092158.473000", "092158.476000", "092158.479000", "092158.482000", "092158.485000", "092158.488000", "092158.492000", "092158.494000", "092158.497000", "092158.500000", "092158.503000", "092158.506000", "092158.509000", "092158.512000", "092158.515000", "092158.518000", "092158.521000", "092158.524000", "092158.527000", "092158.530000", "092158.533000", "092158.536000", "092158.539000", "092158.542000", "092158.545000", "092218.464000", "092218.467000", "092218.470000", "092218.473000", "092218.476000", "092218.479000", "092218.482000", "092218.485000", "092218.488000", "092218.491000", "092218.494000", "092218.497000", "092218.500000", "092218.517000", "092218.520000", "092218.523000", "092218.526000", "092218.529000", "092218.532000", "092218.535000", "092218.538000", "092218.541000", "092218.544000", "092218.547000", "092218.550000", "092218.553000", "092218.556000", "092218.559000", "092218.562000", "092238.465000", "092238.468000", "092238.471000", "092238.474000", "092238.477000", "092238.489000", "092238.495000", "092238.497000", "092238.501000", "092238.504000", "092238.507000", "092238.510000", "092238.513000", "092238.516000", "092238.519000", "092238.522000", "092238.525000", "092238.528000", "092238.531000", "092238.534000", "092238.537000", "092238.540000", "092238.543000", "092258.465000", "092258.468000", "092258.471000", "092258.474000", "092258.477000", "092258.480000", "092258.483000", "092258.486000", "092258.489000", "092258.492000", "092258.495000", "092258.498000", "092258.501000", "092258.504000", "092258.507000", "092258.510000", "092258.513000", "092258.516000", "092258.519000", "092258.522000", "092318.465000", "092318.468000", "092318.471000", "092318.474000", "092318.477000", "092318.480000", "092318.483000", "092318.486000", "092318.489000", "092318.492000", "092318.495000", "092318.498000", "092318.501000", "092318.504000", "092318.507000", "092318.510000", "092318.513000", "092318.516000", "092318.519000", "092318.529000", "092338.464000", "092338.467000", "092338.470000", "092338.473000", "092338.476000", "092338.479000", "092338.482000", "092338.485000", "092338.488000", "092338.491000", "092338.494000", "092338.497000", "092338.500000", "092338.503000", "092338.506000", "092338.509000", "092338.512000", "092338.515000", "092338.518000", "092338.521000", "092358.464000", "092358.467000", "092358.470000", "092358.473000", "092358.476000", "092358.479000", "092358.482000", "092358.485000", "092358.488000", "092358.499000", "092358.502000", "092358.505000", "092358.508000", "092358.512000", "092358.514000", "092358.517000", "092358.520000", "092358.524000", "092358.526000", "092358.529000", "092418.464000", "092418.467000", "092418.470000", "092418.473000", "092418.476000", "092418.479000", "092418.482000", "092418.485000", "092418.488000", "092418.492000", "092418.494000", "092418.498000", "092418.500000", "092418.504000", "092418.507000", "092418.510000", "092418.513000", "092418.516000", "092418.519000", "092418.522000", "092438.464000", "092438.467000", "092438.470000", "092438.473000", "092438.476000", "092438.479000", "092438.482000", "092438.485000", "092438.488000", "092438.491000", "092438.494000", "092438.498000", "092438.501000", "092438.504000", "092438.507000", "092438.510000", "092438.513000", "092438.516000", "092438.519000", "092438.522000", "092446.859000", "092446.862000", "092446.865000", "092446.868000", "092446.871000", "092446.874000", "092446.877000", "092446.880000", "092446.883000"],
      "InstanceNumber": [1, 2, 3, 4, 5, 6, 7, 8, 9, 10, 11, 12, 13, 14, 15, 16, 17, 18, 19, 20, 21, 22, 23, 24, 25, 26, 27, 28, 29, 30, 31, 32, 33, 34, 35, 36, 37, 38, 39, 40, 41, 42, 43, 44, 45, 46, 47, 48, 49, 50, 51, 52, 53, 54, 55, 56, 57, 58, 59, 60, 61, 62, 63, 64, 65, 66, 67, 68, 69, 70, 71, 72, 73, 74, 75, 76, 77, 78, 79, 80, 81, 82, 83, 84, 85, 86, 87, 88, 89, 90, 91, 92, 93, 94, 95, 96, 97, 98, 99, 100, 101, 102, 103, 104, 105, 106, 107, 108, 109, 110, 111, 112, 113, 114, 115, 116, 117, 118, 119, 120, 121, 122, 123, 124, 125, 126, 127, 128, 129, 130, 131, 132, 133, 134, 135, 136, 137, 138, 139, 140, 141, 142, 143, 144, 145, 146, 147, 148, 149, 150, 151, 152, 153, 154, 155, 156, 157, 158, 159, 160, 161, 162, 163, 164, 165, 166, 167, 168, 169, 170, 171, 172, 173, 174, 175, 176, 177, 178, 179, 180, 181, 182, 183, 184, 185, 186, 187, 188, 189, 190, 191, 192, 193, 194, 195, 196, 197, 198, 199, 200, 201, 202, 203, 204, 205, 206, 207, 208, 209, 210, 211, 212, 213, 214, 215, 216, 217, 218, 219, 220, 221, 222, 223, 224, 225, 226, 227, 228, 229, 230, 231, 232, 233, 234, 235, 236, 237, 238, 239, 240, 241, 242, 243, 244, 245, 246, 247, 248, 249, 250, 251, 252, 253, 254, 255, 256, 257, 258, 259, 260, 261, 262, 263, 264, 265, 266, 267, 268, 269, 270, 271, 272, 273, 274, 275, 276, 277, 278, 279, 280, 281, 282, 283, 284, 285, 286, 287, 288, 289, 290, 291, 292, 293, 294, 295, 296, 297, 298, 299, 300],
      "LargestImagePixelValue": [33432, 32885, 32524, 32886, 33184, 31358, 32268, 31736, 30507, 30250, 31442, 31060, 30145, 32319, 31522, 30179, 31419, 30975, 30238, 30599, 30445, 29428, 31048, 30499, 29540, 29458, 30105, 29520, 28853, 30088, 29115, 28720, 29017, 30090, 29390, 29835, 29124, 29718, 29377, 29260, 29946, 29184, 28792, 29357, 29063, 28679, 28759, 28753, 29254, 29943, 29597, 29365, 29202, 29172, 28905, 28799, 28878, 30401, 28557, 28480, 28565, 29159, 28390, 29088, 28897, 28462, 28781, 29039, 28956, 28828, 29398, 29221, 28824, 28855, 28712, 29444, 29682, 29088, 29046, 28883, 28630, 28372, 28799, 28753, 28484, 28779, 28878, 28514, 28539, 28899, 29108, 28088, 28555, 28670, 28295, 28157, 28103, 30305, 28406, 29054, 29271, 28431, 28449, 28920, 28376, 28528, 28389, 28027, 28899, 28493, 28207, 28738, 28821, 28923, 28552, 28755, 29693, 31423, 28588, 29209, 28754, 29117, 28524, 28398, 29250, 28489, 29348, 28837, 28580, 30207, 28867, 28872, 28537, 28917, 28761, 29606, 29132, 29463, 29505, 28411, 29224, 29523, 29467, 29502, 29906, 30415, 29047, 30700, 29541, 29158, 30214, 29168, 29272, 30187, 29345, 29948, 30864, 29850, 29520, 29842, 29541, 28764, 29928, 29961, 29545, 30219, 30159, 29617, 30014, 29483, 29160, 30369, 30125, 30274, 30006, 30624, 29720, 29871, 30394, 29636, 29115, 29682, 29466, 29968, 30520, 30629, 29981, 30551, 30315, 30230, 31127, 30567, 30419, 30659, 30591, 30072, 30635, 30680, 30757, 30676, 30698, 30056, 30814, 31291, 30753, 30333, 30948, 30195, 30756, 31002, 30648, 30664, 31242, 30706, 30605, 31197, 31344, 30863, 31547, 31784, 30886, 31000, 30222, 30609, 30245, 29726, 30207, 30924, 31354, 30744, 30567, 30743, 30475, 30130, 30175, 30153, 30313, 30725, 31600, 30503, 31071, 31488, 31347, 31144, 31112, 31000, 30852, 30632, 30820, 30997, 30013, 31181, 30530, 30652, 31227, 31435, 30055, 30696, 31056, 30314, 30236, 30703, 30686, 30467, 31006, 30655, 30658, 30689, 31176, 31153, 30919, 30612, 30877, 31825, 30820, 30740, 31093, 30720, 30653, 31628, 30876, 30824, 31240, 30874, 30578, 30967, 31406, 31392, 31690, 31694, 31354, 31053, 30857, 31088, 30776, 31127, 31841, 31171, 30756, 31046],
      "WindowCenter": [9104.0, 9075.0, 9064.0, 9061.0, 9067.0, 9045.0, 9064.0, 9051.0, 9024.0, 9033.0, 9051.0, 9048.0, 9047.0, 9091.0, 9072.0, 9052.0, 9055.0, 9045.0, 9033.0, 9048.0, 9042.0, 9039.0, 9075.0, 9070.0, 9042.0, 9039.0, 9036.0, 9030.0, 9018.0, 9045.0, 9033.0, 9027.0, 9027.0, 9053.0, 9052.0, 9069.0, 9063.0, 9074.0, 9051.0, 9034.0, 9034.0, 8997.0, 8988.0, 9007.0, 8994.0, 9006.0, 9015.0, 9016.0, 9022.0, 9041.0, 9019.0, 9000.0, 8985.0, 8974.0, 8974.0, 8983.0, 8986.0, 9027.0, 9007.0, 9016.0, 9011.0, 9023.0, 9008.0, 9005.0, 8995.0, 8981.0, 8978.0, 8967.0, 8960.0, 8958.0, 8970.0, 8974.0, 8988.0, 8998.0, 9010.0, 9024.0, 9021.0, 8997.0, 8988.0, 8978.0, 8964.0, 8973.0, 8995.0, 8989.0, 8990.0, 8988.0, 8985.0, 8966.0, 8947.0, 8946.0, 8950.0, 8938.0, 8954.0, 8973.0, 8979.0, 8981.0, 8984.0, 9022.0, 8988.0, 8994.0, 8984.0, 8969.0, 8966.0, 8963.0, 8957.0, 8967.0, 8969.0, 8973.0, 8985.0, 8961.0, 8942.0, 8937.0, 8934.0, 8935.0, 8947.0, 8967.0, 9006.0, 9041.0, 8992.0, 8996.0, 8981.0, 8976.0, 8950.0, 8940.0, 8944.0, 8929.0, 8947.0, 8934.0, 8928.0, 8962.0, 8947.0, 8958.0, 8970.0, 8985.0, 8979.0, 8998.0, 8982.0, 8965.0, 8962.0, 8944.0, 8966.0, 8984.0, 9002.0, 9004.0, 9010.0, 9015.0, 8986.0, 9002.0, 8971.0, 8954.0, 8965.0, 8945.0, 8945.0, 8968.0, 8973.0, 8989.0, 9012.0, 8998.0, 8982.0, 8970.0, 8952.0, 8938.0, 8949.0, 8957.0, 8961.0, 8985.0, 9002.0, 8999.0, 8998.0, 8979.0, 8954.0, 8962.0, 8953.0, 8952.0, 8955.0, 8969.0, 8965.0, 8968.0, 8981.0, 8967.0, 8954.0, 8951.0, 8950.0, 8954.0, 8961.0, 8976.0, 8975.0, 8992.0, 9001.0, 9005.0, 9017.0, 9000.0, 8984.0, 8988.0, 8972.0, 8965.0, 8986.0, 8990.0, 8995.0, 8989.0, 8991.0, 8979.0, 8993.0, 9014.0, 9001.0, 8996.0, 9008.0, 8988.0, 9000.0, 9008.0, 9009.0, 9009.0, 9023.0, 9002.0, 8992.0, 8981.0, 8970.0, 8954.0, 8965.0, 8982.0, 8981.0, 8991.0, 8980.0, 8992.0, 8983.0, 8970.0, 8974.0, 8995.0, 9002.0, 8997.0, 8998.0, 8999.0, 8994.0, 8979.0, 8970.0, 8960.0, 8963.0, 8963.0, 8993.0, 8982.0, 9005.0, 9014.0, 9004.0, 8996.0, 8987.0, 8987.0, 8981.0, 8997.0, 8999.0, 9007.0, 9003.0, 9015.0, 9011.0, 9000.0, 9000.0, 8992.0, 8972.0, 8975.0, 8967.0, 8959.0, 8944.0, 8949.0, 8958.0, 8959.0, 8968.0, 8976.0, 8977.0, 8985.0, 8991.0, 9001.0, 9003.0, 9002.0, 8997.0, 9006.0, 8965.0, 8965.0, 8972.0, 8966.0, 8957.0, 8976.0, 8962.0, 8972.0, 8979.0, 8965.0, 8956.0, 8953.0, 8949.0, 8942.0, 8957.0, 8966.0, 8970.0, 8976.0, 8968.0, 8966.0, 8949.0, 8955.0, 8968.0, 8954.0, 8958.0, 8964.0],
