{
  "AcquisitionMatrixPE": 104,
  "AcquisitionNumber": 1,
  "AcquisitionTime": "09:38:34.795000",
  "BandwidthPerPixelPhaseEncode": 16.297,
  "BaseResolution": 104,
  "BodyPartExamined": "BRAIN",
  "ConsistencyInfo": "N4_VE11C_LATEST_20160120",
  "ConversionSoftware": "dcm2niix",
  "ConversionSoftwareVersion": "v1.0.20210317",
  "DerivedVendorReportedEchoSpacing": 0.000590009,
  "DeviceSerialNumber": "166018",
  "DwellTime": 2.1e-06,
  "EchoTime": 0.0376,
  "EchoTrainLength": 104,
  "EffectiveEchoSpacing": 0.000590009,
  "FlipAngle": 68,
  "ImageComments": "Unaliased MB6/PE3/LB",
  "ImageOrientationPatientDICOM": [0.999422, -0.0214468, -0.0263772, 0.0160491, 0.981642, -0.190058],
  "ImageType": [
    "ORIGINAL",
    "PRIMARY",
    "M",
    "MB",
    "ND",
    "MOSAIC"
],
  "ImagingFrequency": 123.197,
  "InPlanePhaseEncodingDirectionDICOM": "COL",
  "InstitutionAddress": "Washington Place 6,NYC,NYC,US,10003",
  "InstitutionName": "NYU - CBI",
  "InstitutionalDepartmentName": "Department",
  "MRAcquisitionType": "2D",
  "MagneticFieldStrength": 3,
  "Manufacturer": "Siemens",
  "ManufacturersModelName": "Prisma",
  "Modality": "MR",
  "MultibandAccelerationFactor": 6,
  "PartialFourier": 1,
  "PatientPosition": "HFS",
  "PercentPhaseFOV": 100,
  "PercentSampling": 100,
  "PhaseEncodingDirection": "j",
  "PhaseEncodingSteps": 104,
  "PhaseResolution": 1,
  "PixelBandwidth": 2290,
  "ProcedureStepDescription": "Investigators^Winawer",
  "ProtocolName": "cmrr_mbepi_s6_2mm_66sl_PA_task-bar3",
  "PulseSequenceDetails": "%CustomerSeq%\\cmrr_mbep2d_bold",
  "ReceiveCoilActiveElements": "HC1-7",
  "ReceiveCoilName": "HeadNeck_64",
  "ReconMatrixPE": 104,
  "RepetitionTime": 1,
  "SAR": 0.0751782,
  "ScanOptions": "FS",
  "ScanningSequence": "EP",
  "SequenceName": "epfid2d1_104",
  "SequenceVariant": "SK\\SS",
  "SeriesDescription": "cmrr_mbepi_s6_2mm_66sl_PA_task-bar3",
  "SeriesNumber": 16,
  "ShimSetting": [294, -12656, -8497, 199, 16, -115, -64, 8],
  "SliceThickness": 2,
  "SliceTiming": [0, 0.535, 0.0875, 0.6225, 0.1775, 0.7125, 0.2675, 0.8, 0.355, 0.89, 0.445, 0, 0.535, 0.0875, 0.6225, 0.1775, 0.7125, 0.2675, 0.8, 0.355, 0.89, 0.445, 0, 0.535, 0.0875, 0.6225, 0.1775, 0.7125, 0.2675, 0.8, 0.355, 0.89, 0.445, 0, 0.535, 0.0875, 0.6225, 0.1775, 0.7125, 0.2675, 0.8, 0.355, 0.89, 0.445, 0, 0.535, 0.0875, 0.6225, 0.1775, 0.7125, 0.2675, 0.8, 0.355, 0.89, 0.445, 0, 0.535, 0.0875, 0.6225, 0.1775, 0.7125, 0.2675, 0.8, 0.355, 0.89, 0.445],
  "SoftwareVersions": "syngo MR E11",
  "SpacingBetweenSlices": 2,
  "StationName": "AWP166018",
  "TaskName": "bar3",
  "TotalReadoutTime": 0.060771,
  "TxRefAmp": 242.968,
  "VendorReportedEchoSpacing": 0.00059,
  "WipMemBlock": "adbc30ae-1cfd-4ec3-aeec-cd91c7d7ebae||Sequence: R016 ve11c/master r/8780670; Nov 27 2017 15:05:12 by eja",
  "dcmmeta_affine": [
    [-1.9988439083099365, 0.03209828585386276, -0.059938233345746994, 105.57099914550781],
    [0.04289361461997032, 1.9632831811904907, -0.3790505528450012, -72.3161392211914],
    [-0.05275442823767662, 0.38011693954467773, 1.962836742401123, -54.328765869140625],
    [0.0, 0.0, 0.0, 1.0]
],
  "dcmmeta_reorient_transform": [
    [0.0, -1.0, 0.0, 103.0],
    [1.0, 0.0, 0.0, 0.0],
    [0.0, 0.0, 1.0, 0.0],
    [0.0, 0.0, 0.0, 1.0]
],
  "dcmmeta_shape": [104, 104, 66, 300],
  "dcmmeta_slice_dim": 2,
  "dcmmeta_version": 0.6,
  "global": {
    "const": {
      "AccessionNumber": "Lerfni0t",
      "AcquisitionMatrix": [104, 0, 0, 104],
      "AngioFlag": "N",
      "BitsAllocated": 16,
      "BitsStored": 16,
      "BodyPartExamined": "BRAIN",
      "Columns": 936,
      "EchoNumbers": 1,
      "EchoTime": 37.6,
      "EchoTrainLength": 104,
      "FlipAngle": 68.0,
      "HighBit": 15,
      "ImageOrientationPatient": [0.99942197143835, -0.02144680783, -0.0263772144129, 0.01604914228256, 0.9816415857263, -0.1900584704893],
      "ImagePositionPatient": [-953.74908821525, -928.78408113863, 164.89776972697],
      "ImageType": [
        "ORIGINAL",
        "PRIMARY",
        "M",
        "MB",
        "ND",
        "MOSAIC"
],
      "ImagedNucleus": "1H",
      "ImagingFrequency": 123.196817,
      "InPlanePhaseEncodingDirection": "COL",
      "MRAcquisitionType": "2D",
      "MagneticFieldStrength": 3.0,
      "Manufacturer": "SIEMENS",
      "ManufacturerModelName": "Prisma",
      "Modality": "MR",
      "NumberOfAverages": 1.0,
      "NumberOfPhaseEncodingSteps": 104,
      "PercentPhaseFieldOfView": 100.0,
      "PercentSampling": 100.0,
      "PerformedProcedureStepStartTime": "085354.283000",
      "PhotometricInterpretation": "MONOCHROME2",
      "PixelBandwidth": 2290.0,
      "PixelRepresentation": 0,
      "PixelSpacing": [2.0, 2.0],
      "ProtocolName": "cmrr_mbepi_s6_2mm_66sl_PA_task-bar3",
      "RepetitionTime": 1000.0,
      "Rows": 936,
      "SAR": 0.07517815611415,
      "SamplesPerPixel": 1,
      "ScanOptions": "FS",
      "ScanningSequence": "EP",
      "SequenceName": "epfid2d1_104",
      "SequenceVariant": [
        "SK",
        "SS"
],
      "SeriesDescription": "cmrr_mbepi_s6_2mm_66sl_PA_task-bar3",
      "SeriesNumber": 16,
      "SeriesTime": "093958.498000",
      "SliceLocation": -42.777381037677,
      "SliceThickness": 2.0,
      "SmallestImagePixelValue": 0,
      "SoftwareVersions": "syngo MR E11",
      "SpacingBetweenSlices": 1.9999999490726,
      "SpecificCharacterSet": "ISO_IR 100",
      "StudyID": "1",
      "StudyTime": "085354.170000",
      "TransmitCoilName": "Body",
      "VariableFlipAngleFlag": "N",
      "WindowCenterWidthExplanation": "Algo1",
      "dBdt": 0.0},
    "slices": {}
  },
  "time": {
    "samples": {
      "AcquisitionNumber": [1, 2, 3, 4, 5, 6, 7, 8, 9, 10, 11, 12, 13, 14, 15, 16, 17, 18, 19, 20, 21, 22, 23, 24, 25, 26, 27, 28, 29, 30, 31, 32, 33, 34, 35, 36, 37, 38, 39, 40, 41, 42, 43, 44, 45, 46, 47, 48, 49, 50, 51, 52, 53, 54, 55, 56, 57, 58, 59, 60, 61, 62, 63, 64, 65, 66, 67, 68, 69, 70, 71, 72, 73, 74, 75, 76, 77, 78, 79, 80, 81, 82, 83, 84, 85, 86, 87, 88, 89, 90, 91, 92, 93, 94, 95, 96, 97, 98, 99, 100, 101, 102, 103, 104, 105, 106, 107, 108, 109, 110, 111, 112, 113, 114, 115, 116, 117, 118, 119, 120, 121, 122, 123, 124, 125, 126, 127, 128, 129, 130, 131, 132, 133, 134, 135, 136, 137, 138, 139, 140, 141, 142, 143, 144, 145, 146, 147, 148, 149, 150, 151, 152, 153, 154, 155, 156, 157, 158, 159, 160, 161, 162, 163, 164, 165, 166, 167, 168, 169, 170, 171, 172, 173, 174, 175, 176, 177, 178, 179, 180, 181, 182, 183, 184, 185, 186, 187, 188, 189, 190, 191, 192, 193, 194, 195, 196, 197, 198, 199, 200, 201, 202, 203, 204, 205, 206, 207, 208, 209, 210, 211, 212, 213, 214, 215, 216, 217, 218, 219, 220, 221, 222, 223, 224, 225, 226, 227, 228, 229, 230, 231, 232, 233, 234, 235, 236, 237, 238, 239, 240, 241, 242, 243, 244, 245, 246, 247, 248, 249, 250, 251, 252, 253, 254, 255, 256, 257, 258, 259, 260, 261, 262, 263, 264, 265, 266, 267, 268, 269, 270, 271, 272, 273, 274, 275, 276, 277, 278, 279, 280, 281, 282, 283, 284, 285, 286, 287, 288, 289, 290, 291, 292, 293, 294, 295, 296, 297, 298, 299, 300],
      "AcquisitionTime": ["093834.795000", "093835.795000", "093836.795000", "093837.795000", "093838.795000", "093839.795000", "093840.795000", "093841.795000", "093842.795000", "093843.795000", "093844.795000", "093845.795000", "093846.795000", "093847.795000", "093848.795000", "093849.795000", "093850.795000", "093851.795000", "093852.795000", "093853.795000", "093854.795000", "093855.795000", "093856.795000", "093857.795000", "093858.795000", "093859.795000", "093900.795000", "093901.795000", "093902.795000", "093903.795000", "093904.795000", "093905.795000", "093906.795000", "093907.795000", "093908.795000", "093909.795000", "093910.795000", "093911.795000", "093912.795000", "093913.795000", "093914.795000", "093915.795000", "093916.795000", "093917.795000", "093918.795000", "093919.795000", "093920.795000", "093921.795000", "093922.795000", "093923.795000", "093924.795000", "093925.795000", "093926.795000", "093927.795000", "093928.795000", "093929.795000", "093930.795000", "093931.795000", "093932.795000", "093933.795000", "093934.795000", "093935.795000", "093936.795000", "093937.795000", "093938.795000", "093939.795000", "093940.795000", "093941.795000", "093942.795000", "093943.795000", "093944.795000", "093945.795000", "093946.795000", "093947.795000", "093948.795000", "093949.795000", "093950.795000", "093951.795000", "093952.795000", "093953.795000", "093954.795000", "093955.795000", "093956.795000", "093957.795000", "093958.795000", "093959.795000", "094000.795000", "094001.795000", "094002.795000", "094003.795000", "094004.795000", "094005.795000", "094006.795000", "094007.795000", "094008.795000", "094009.795000", "094010.795000", "094011.795000", "094012.795000", "094013.795000", "094014.795000", "094015.795000", "094016.795000", "094017.795000", "094018.795000", "094019.795000", "094020.795000", "094021.795000", "094022.795000", "094023.795000", "094024.795000", "094025.795000", "094026.795000", "094027.795000", "094028.795000", "094029.795000", "094030.795000", "094031.795000", "094032.795000", "094033.795000", "094034.795000", "094035.795000", "094036.795000", "094037.795000", "094038.795000", "094039.795000", "094040.795000", "094041.795000", "094042.795000", "094043.795000", "094044.795000", "094045.795000", "094046.795000", "094047.795000", "094048.795000", "094049.795000", "094050.795000", "094051.795000", "094052.795000", "094053.795000", "094054.795000", "094055.795000", "094056.795000", "094057.795000", "094058.795000", "094059.795000", "094100.795000", "094101.795000", "094102.795000", "094103.795000", "094104.795000", "094105.795000", "094106.795000", "094107.795000", "094108.795000", "094109.795000", "094110.795000", "094111.795000", "094112.795000", "094113.795000", "094114.795000", "094115.795000", "094116.795000", "094117.795000", "094118.795000", "094119.795000", "094120.795000", "094121.795000", "094122.795000", "094123.795000", "094124.795000", "094125.795000", "094126.795000", "094127.795000", "094128.795000", "094129.795000", "094130.795000", "094131.795000", "094132.795000", "094133.795000", "094134.795000", "094135.795000", "094136.795000", "094137.795000", "094138.795000", "094139.795000", "094140.795000", "094141.795000", "094142.795000", "094143.795000", "094144.795000", "094145.795000", "094146.795000", "094147.795000", "094148.795000", "094149.795000", "094150.795000", "094151.795000", "094152.795000", "094153.795000", "094154.795000", "094155.795000", "094156.795000", "094157.795000", "094158.795000", "094159.795000", "094200.795000", "094201.795000", "094202.795000", "094203.795000", "094204.795000", "094205.795000", "094206.795000", "094207.795000", "094208.795000", "094209.795000", "094210.795000", "094211.795000", "094212.795000", "094213.795000", "094214.795000", "094215.795000", "094216.795000", "094217.795000", "094218.795000", "094219.795000", "094220.795000", "094221.795000", "094222.795000", "094223.795000", "094224.795000", "094225.795000", "094226.795000", "094227.795000", "094228.795000", "094229.795000", "094230.795000", "094231.795000", "094232.795000", "094233.795000", "094234.795000", "094235.795000", "094236.795000", "094237.795000", "094238.795000", "094239.795000", "094240.795000", "094241.795000", "094242.795000", "094243.795000", "094244.795000", "094245.795000", "094246.795000", "094247.795000", "094248.795000", "094249.795000", "094250.795000", "094251.795000", "094252.795000", "094253.795000", "094254.795000", "094255.795000", "094256.795000", "094257.795000", "094258.795000", "094259.795000", "094300.795000", "094301.795000", "094302.795000", "094303.795000", "094304.795000", "094305.795000", "094306.795000", "094307.795000", "094308.795000", "094309.795000", "094310.795000", "094311.795000", "094312.795000", "094313.795000", "094314.795000", "094315.795000", "094316.795000", "094317.795000", "094318.795000", "094319.795000", "094320.795000", "094321.795000", "094322.795000", "094323.795000", "094324.795000", "094325.795000", "094326.795000", "094327.795000", "094328.795000", "094329.795000", "094330.795000", "094331.795000", "094332.795000", "094333.795000"],
      "ContentTime": ["093958.501000", "093958.504000", "093958.507000", "093958.510000", "093958.513000", "093958.516000", "093958.519000", "093958.522000", "093958.525000", "093958.528000", "093958.531000", "093958.534000", "093958.537000", "093958.540000", "093958.543000", "093958.546000", "093958.549000", "093958.552000", "093958.555000", "093958.558000", "093958.561000", "093958.564000", "093958.567000", "093958.570000", "093958.573000", "093958.576000", "093958.579000", "093958.582000", "093958.585000", "093958.588000", "093958.591000", "093958.594000", "093958.597000", "093958.600000", "093958.603000", "093958.607000", "093958.610000", "093958.613000", "093958.616000", "093958.619000", "093958.622000", "093958.625000", "093958.628000", "093958.631000", "093958.634000", "093958.637000", "093958.640000", "093958.643000", "094018.464000", "094018.467000", "094018.470000", "094018.473000", "094018.484000", "094018.487000", "094018.490000", "094018.493000", "094018.496000", "094018.499000", "094018.502000", "094018.505000", "094018.508000", "094018.511000", "094018.514000", "094018.517000", "094018.520000", "094018.523000", "094018.526000", "094018.529000", "094018.532000", "094018.535000", "094018.538000", "094018.557000", "094018.561000", "094018.563000", "094018.566000", "094018.569000", "094018.573000", "094038.464000", "094038.467000", "094038.470000", "094038.473000", "094038.476000", "094038.479000", "094038.482000", "094038.485000", "094038.488000", "094038.491000", "094038.494000", "094038.497000", "094038.500000", "094038.503000", "094038.506000", "094038.509000", "094038.512000", "094038.515000", "094038.518000", "094038.521000", "094038.524000", "094038.527000", "094038.530000", "094038.533000", "094038.536000", "094038.539000", "094038.542000", "094038.545000", "094058.465000", "094058.468000", "094058.471000", "094058.474000", "094058.477000", "094058.480000", "094058.483000", "094058.486000", "094058.489000", "094058.493000", "094058.496000", "094058.499000", "094058.502000", "094058.505000", "094058.508000", "094058.511000", "094058.514000", "094058.517000", "094058.520000", "094058.523000", "094058.526000", "094058.529000", "094058.532000", "094058.535000", "094058.538000", "094058.541000", "094058.544000", "094058.547000", "094058.550000", "094118.465000", "094118.468000", "094118.471000", "094118.474000", "094118.477000", "094118.480000", "094118.483000", "094118.486000", "094118.489000", "094118.492000", "094118.495000", "094118.498000", "094118.501000", "094118.504000", "094118.507000", "094118.510000", "094118.514000", "094118.516000", "094118.519000", "094118.522000", "094118.525000", "094118.528000", "094118.531000", "094118.534000", "094118.538000", "094118.541000", "094118.543000", "094118.546000", "094138.465000", "094138.468000", "094138.471000", "094138.474000", "094138.477000", "094138.480000", "094138.483000", "094138.486000", "094138.489000", "094138.492000", "094138.496000", "094138.498000", "094138.501000", "094138.504000", "094138.508000", "094138.511000", "094138.514000", "094138.517000", "094138.520000", "094138.523000", "094138.526000", "094158.464000", "094158.467000", "094158.470000", "094158.473000", "094158.476000", "094158.479000", "094158.482000", "094158.485000", "094158.488000", "094158.491000", "094158.494000", "094158.497000", "094158.500000", "094158.504000", "094158.507000", "094158.510000", "094158.516000", "094158.519000", "094158.522000", "094158.525000", "094218.464000", "094218.467000", "094218.470000", "094218.473000", "094218.476000", "094218.479000", "094218.482000", "094218.485000", "094218.488000", "094218.491000", "094218.494000", "094218.497000", "094218.500000", "094218.503000", "094218.506000", "094218.510000", "094218.513000", "094218.516000", "094218.519000", "094218.522000", "094238.464000", "094238.467000", "094238.470000", "094238.473000", "094238.476000", "094238.479000", "094238.482000", "094238.485000", "094238.488000", "094238.492000", "094238.494000", "094238.497000", "094238.500000", "094238.504000", "094238.507000", "094238.510000", "094238.513000", "094238.516000", "094238.519000", "094238.522000", "094258.464000", "094258.467000", "094258.470000", "094258.473000", "094258.476000", "094258.479000", "094258.482000", "094258.485000", "094258.488000", "094258.491000", "094258.494000", "094258.510000", "094258.513000", "094258.516000", "094258.519000", "094258.522000", "094258.525000", "094258.528000", "094258.531000", "094258.534000", "094318.465000", "094318.468000", "094318.471000", "094318.474000", "094318.477000", "094318.480000", "094318.483000", "094318.486000", "094318.489000", "094318.492000", "094318.495000", "094318.498000", "094318.501000", "094318.505000", "094318.508000", "094318.511000", "094318.514000", "094318.523000", "094318.526000", "094318.528000", "094335.105000", "094335.108000", "094335.111000", "094335.121000", "094335.124000", "094335.127000", "094335.130000", "094335.134000", "094335.136000", "094335.139000", "094335.142000", "094335.146000", "094335.149000", "094335.152000", "094335.154000", "094335.158000", "094335.161000"],
      "InstanceCreationTime": ["093958.501000", "093958.504000", "093958.507000", "093958.510000", "093958.513000", "093958.516000", "093958.519000", "093958.522000", "093958.525000", "093958.528000", "093958.531000", "093958.534000", "093958.537000", "093958.540000", "093958.543000", "093958.546000", "093958.549000", "093958.552000", "093958.555000", "093958.558000", "093958.561000", "093958.564000", "093958.567000", "093958.570000", "093958.573000", "093958.576000", "093958.579000", "093958.582000", "093958.585000", "093958.588000", "093958.591000", "093958.594000", "093958.597000", "093958.600000", "093958.603000", "093958.607000", "093958.610000", "093958.613000", "093958.616000", "093958.619000", "093958.622000", "093958.625000", "093958.628000", "093958.631000", "093958.634000", "093958.637000", "093958.640000", "093958.643000", "094018.464000", "094018.467000", "094018.470000", "094018.473000", "094018.484000", "094018.487000", "094018.490000", "094018.493000", "094018.496000", "094018.499000", "094018.502000", "094018.505000", "094018.508000", "094018.511000", "094018.514000", "094018.517000", "094018.520000", "094018.523000", "094018.526000", "094018.529000", "094018.532000", "094018.535000", "094018.538000", "094018.557000", "094018.561000", "094018.563000", "094018.566000", "094018.569000", "094018.573000", "094038.464000", "094038.467000", "094038.470000", "094038.473000", "094038.476000", "094038.479000", "094038.482000", "094038.485000", "094038.488000", "094038.491000", "094038.494000", "094038.497000", "094038.500000", "094038.503000", "094038.506000", "094038.509000", "094038.512000", "094038.515000", "094038.518000", "094038.521000", "094038.524000", "094038.527000", "094038.530000", "094038.533000", "094038.536000", "094038.539000", "094038.542000", "094038.545000", "094058.465000", "094058.468000", "094058.471000", "094058.474000", "094058.477000", "094058.480000", "094058.483000", "094058.486000", "094058.489000", "094058.493000", "094058.496000", "094058.499000", "094058.502000", "094058.505000", "094058.508000", "094058.511000", "094058.514000", "094058.517000", "094058.520000", "094058.523000", "094058.526000", "094058.529000", "094058.532000", "094058.535000", "094058.538000", "094058.541000", "094058.544000", "094058.547000", "094058.550000", "094118.465000", "094118.468000", "094118.471000", "094118.474000", "094118.477000", "094118.480000", "094118.483000", "094118.486000", "094118.489000", "094118.492000", "094118.495000", "094118.498000", "094118.501000", "094118.504000", "094118.507000", "094118.510000", "094118.514000", "094118.516000", "094118.519000", "094118.522000", "094118.525000", "094118.528000", "094118.531000", "094118.534000", "094118.538000", "094118.541000", "094118.543000", "094118.546000", "094138.465000", "094138.468000", "094138.471000", "094138.474000", "094138.477000", "094138.480000", "094138.483000", "094138.486000", "094138.489000", "094138.492000", "094138.496000", "094138.498000", "094138.501000", "094138.504000", "094138.508000", "094138.511000", "094138.514000", "094138.517000", "094138.520000", "094138.523000", "094138.526000", "094158.464000", "094158.467000", "094158.470000", "094158.473000", "094158.476000", "094158.479000", "094158.482000", "094158.485000", "094158.488000", "094158.491000", "094158.494000", "094158.497000", "094158.500000", "094158.504000", "094158.507000", "094158.510000", "094158.516000", "094158.519000", "094158.522000", "094158.525000", "094218.464000", "094218.467000", "094218.470000", "094218.473000", "094218.476000", "094218.479000", "094218.482000", "094218.485000", "094218.488000", "094218.491000", "094218.494000", "094218.497000", "094218.500000", "094218.503000", "094218.506000", "094218.510000", "094218.513000", "094218.516000", "094218.519000", "094218.522000", "094238.464000", "094238.467000", "094238.470000", "094238.473000", "094238.476000", "094238.479000", "094238.482000", "094238.485000", "094238.488000", "094238.492000", "094238.494000", "094238.497000", "094238.500000", "094238.504000", "094238.507000", "094238.510000", "094238.513000", "094238.516000", "094238.519000", "094238.522000", "094258.464000", "094258.467000", "094258.470000", "094258.473000", "094258.476000", "094258.479000", "094258.482000", "094258.485000", "094258.488000", "094258.491000", "094258.494000", "094258.510000", "094258.513000", "094258.516000", "094258.519000", "094258.522000", "094258.525000", "094258.528000", "094258.531000", "094258.534000", "094318.465000", "094318.468000", "094318.471000", "094318.474000", "094318.477000", "094318.480000", "094318.483000", "094318.486000", "094318.489000", "094318.492000", "094318.495000", "094318.498000", "094318.501000", "094318.505000", "094318.508000", "094318.511000", "094318.514000", "094318.523000", "094318.526000", "094318.528000", "094335.105000", "094335.108000", "094335.111000", "094335.121000", "094335.124000", "094335.127000", "094335.130000", "094335.134000", "094335.136000", "094335.139000", "094335.142000", "094335.146000", "094335.149000", "094335.152000", "094335.154000", "094335.158000", "094335.161000"],
      "InstanceNumber": [1, 2, 3, 4, 5, 6, 7, 8, 9, 10, 11, 12, 13, 14, 15, 16, 17, 18, 19, 20, 21, 22, 23, 24, 25, 26, 27, 28, 29, 30, 31, 32, 33, 34, 35, 36, 37, 38, 39, 40, 41, 42, 43, 44, 45, 46, 47, 48, 49, 50, 51, 52, 53, 54, 55, 56, 57, 58, 59, 60, 61, 62, 63, 64, 65, 66, 67, 68, 69, 70, 71, 72, 73, 74, 75, 76, 77, 78, 79, 80, 81, 82, 83, 84, 85, 86, 87, 88, 89, 90, 91, 92, 93, 94, 95, 96, 97, 98, 99, 100, 101, 102, 103, 104, 105, 106, 107, 108, 109, 110, 111, 112, 113, 114, 115, 116, 117, 118, 119, 120, 121, 122, 123, 124, 125, 126, 127, 128, 129, 130, 131, 132, 133, 134, 135, 136, 137, 138, 139, 140, 141, 142, 143, 144, 145, 146, 147, 148, 149, 150, 151, 152, 153, 154, 155, 156, 157, 158, 159, 160, 161, 162, 163, 164, 165, 166, 167, 168, 169, 170, 171, 172, 173, 174, 175, 176, 177, 178, 179, 180, 181, 182, 183, 184, 185, 186, 187, 188, 189, 190, 191, 192, 193, 194, 195, 196, 197, 198, 199, 200, 201, 202, 203, 204, 205, 206, 207, 208, 209, 210, 211, 212, 213, 214, 215, 216, 217, 218, 219, 220, 221, 222, 223, 224, 225, 226, 227, 228, 229, 230, 231, 232, 233, 234, 235, 236, 237, 238, 239, 240, 241, 242, 243, 244, 245, 246, 247, 248, 249, 250, 251, 252, 253, 254, 255, 256, 257, 258, 259, 260, 261, 262, 263, 264, 265, 266, 267, 268, 269, 270, 271, 272, 273, 274, 275, 276, 277, 278, 279, 280, 281, 282, 283, 284, 285, 286, 287, 288, 289, 290, 291, 292, 293, 294, 295, 296, 297, 298, 299, 300],
      "LargestImagePixelValue": [34040, 32721, 32097, 31705, 31275, 31966, 31099, 31683, 31304, 31175, 30862, 31402, 31028, 31338, 31302, 31354, 30981, 31185, 31785, 31595, 30886, 30336, 31286, 31546, 31174, 30805, 31665, 30778, 31017, 31041, 30894, 31262, 31755, 31065, 31119, 31235, 31313, 31264, 31215, 31097, 31254, 31158, 31084, 30920, 30806, 30635, 30505, 30644, 30857, 30403, 31105, 31211, 30932, 30724, 31293, 31208, 30680, 30960, 31027, 31107, 30784, 31158, 31106, 31048, 30766, 30746, 30760, 30885, 30866, 31007, 31181, 30739, 30844, 30825, 30828, 30695, 30376, 30921, 30875, 30573, 30833, 30938, 30707, 31110, 30714, 30464, 30333, 30527, 30393, 30536, 30262, 30721, 34465, 30987, 30911, 30746, 30573, 30578, 30635, 30706, 31028, 30525, 31106, 30931, 30975, 30931, 30766, 30669, 30062, 30850, 30658, 30481, 30727, 30850, 30895, 30945, 31018, 31080, 30847, 30878, 30596, 31031, 31204, 30561, 30908, 30501, 30320, 29851, 30641, 30803, 30878, 31183, 30810, 30699, 30633, 31322, 30576, 30403, 30514, 30471, 30654, 30759, 30631, 30684, 30927, 30836, 30984, 30170, 29862, 30280, 29891, 30519, 31064, 30667, 30788, 30505, 30776, 31434, 31131, 30915, 30528, 30397, 30509, 30575, 30536, 31153, 30897, 30698, 30555, 30218, 30564, 30686, 30820, 30485, 30938, 31182, 30981, 31349, 30487, 29936, 29585, 29117, 30130, 30151, 30325, 30253, 30359, 30301, 30010, 29679, 29693, 29832, 29663, 30108, 30233, 30203, 30027, 30112, 29719, 29937, 29441, 29739, 29154, 29853, 29882, 30203, 29837, 29671, 29964, 29966, 30172, 30369, 30404, 29582, 30005, 29702, 29860, 29898, 30121, 30489, 30140, 30536, 30130, 29834, 30045, 29954, 29593, 29645, 30447, 30047, 29704, 29046, 29235, 28441, 28500, 28088, 28244, 31430, 28439, 28195, 29091, 28183, 30069, 27993, 28063, 28405, 28775, 28209, 28554, 28899, 29778, 28441, 29059, 28257, 29528, 28665, 28403, 28827, 28399, 28787, 28566, 28227, 28109, 28281, 28231, 28695, 28341, 28208, 33281, 28394, 28305, 28396, 28373, 28430, 28701, 28295, 28645, 28228, 28422, 28732, 28168, 28218, 28265, 28956, 28284, 28360, 28461, 28279, 28160, 28468, 31357, 28148, 28377, 28577, 28451, 28439, 28815, 29288, 28787, 28986],
      "WindowCenter": [9111.0, 9078.0, 9061.0, 9053.0, 9036.0, 9047.0, 9036.0, 9040.0, 9027.0, 9023.0, 9008.0, 9004.0, 8987.0, 8985.0, 8982.0, 8982.0, 8977.0, 8986.0, 9000.0, 9000.0, 8994.0, 8973.0, 9000.0, 9028.0, 9027.0, 9039.0, 9060.0, 9031.0, 9027.0, 9017.0, 8997.0, 8993.0, 9001.0, 8996.0, 9006.0, 9031.0, 9048.0, 9040.0, 9032.0, 9025.0, 9015.0, 8999.0, 8987.0, 8978.0, 8976.0, 8978.0, 8982.0, 8996.0, 8999.0, 9002.0, 9016.0, 9014.0, 9009.0, 9010.0, 9016.0, 9024.0, 9010.0, 9019.0, 9019.0, 9024.0, 9011.0, 9008.0, 9007.0, 9007.0, 9008.0, 9010.0, 9020.0, 9026.0, 9013.0, 9017.0, 9007.0, 8991.0, 8989.0, 8982.0, 8990.0, 8992.0, 8993.0, 9009.0, 9003.0, 9002.0, 8993.0, 8996.0, 8980.0, 8979.0, 8971.0, 8974.0, 8974.0, 8976.0, 8984.0, 8977.0, 8986.0, 8992.0, 9040.0, 8990.0, 8989.0, 8983.0, 8983.0, 8985.0, 9001.0, 9013.0, 9021.0, 9017.0, 9020.0, 9011.0, 9002.0, 8992.0, 8984.0, 8980.0, 8971.0, 8985.0, 8992.0, 9004.0, 9014.0, 9014.0, 9020.0, 9013.0, 9011.0, 9011.0, 9004.0, 8995.0, 8983.0, 8988.0, 8985.0, 8969.0, 8966.0, 8956.0, 8965.0, 8970.0, 8998.0, 9004.0, 9015.0, 9027.0, 9020.0, 9005.0, 9002.0, 9006.0, 8993.0, 8986.0, 8994.0, 8988.0, 8987.0, 8994.0, 8995.0, 8986.0, 8990.0, 8974.0, 8962.0, 8940.0, 8922.0, 8936.0, 8941.0, 8975.0, 9008.0, 9021.0, 9024.0, 9017.0, 9022.0, 9018.0, 9002.0, 8991.0, 8986.0, 8984.0, 8973.0, 8983.0, 8995.0, 9001.0, 8999.0, 8984.0, 8976.0, 8970.0, 8985.0, 8996.0, 9006.0, 9008.0, 9012.0, 9005.0, 9004.0, 9001.0, 8971.0, 8970.0, 8966.0, 8961.0, 8982.0, 8991.0, 8997.0, 8989.0, 8989.0, 8988.0, 8979.0, 8982.0, 8983.0, 8991.0, 8989.0, 8979.0, 8969.0, 8967.0, 8975.0, 8979.0, 8980.0, 8987.0, 8975.0, 8972.0, 8957.0, 8961.0, 8960.0, 8972.0, 8980.0, 8992.0, 8999.0, 8991.0, 8982.0, 8978.0, 8968.0, 8948.0, 8961.0, 8965.0, 8974.0, 8983.0, 8985.0, 8992.0, 8984.0, 8982.0, 8973.0, 8964.0, 8969.0, 8967.0, 8956.0, 8963.0, 8975.0, 8967.0, 8942.0, 8937.0, 8924.0, 8904.0, 8910.0, 8906.0, 8905.0, 8965.0, 8931.0, 8928.0, 8940.0, 8928.0, 8960.0, 8922.0, 8937.0, 8951.0, 8950.0, 8937.0, 8951.0, 8942.0, 8954.0, 8935.0, 8947.0, 8925.0, 8951.0, 8948.0, 8950.0, 8950.0, 8943.0, 8947.0, 8931.0, 8922.0, 8922.0, 8913.0, 8920.0, 8937.0, 8939.0, 8935.0, 9017.0, 8943.0, 8942.0, 8940.0, 8932.0, 8930.0, 8938.0, 8923.0, 8938.0, 8932.0, 8941.0, 8947.0, 8924.0, 8924.0, 8924.0, 8929.0, 8923.0, 8931.0, 8930.0, 8915.0, 8913.0, 8910.0, 8962.0, 8912.0, 8927.0, 8932.0, 8939.0, 8933.0, 8930.0, 8943.0, 8921.0, 8926.0],
