{
  "AcquisitionMatrixPE": 104,
  "AcquisitionNumber": 1,
  "AcquisitionTime": "12:39:2.502500",
  "BandwidthPerPixelPhaseEncode": 16.297,
  "BaseResolution": 104,
  "BodyPartExamined": "BRAIN",
  "ConsistencyInfo": "N4_VE11C_LATEST_20160120",
  "ConversionSoftware": "dcm2niix",
  "ConversionSoftwareVersion": "v1.0.20190902",
  "DerivedVendorReportedEchoSpacing": 0.000590009,
  "DeviceSerialNumber": "166018",
  "DwellTime": 2.1e-06,
  "EchoTime": 0.0376,
  "EchoTrainLength": 104,
  "EffectiveEchoSpacing": 0.000590009,
  "FlipAngle": 68,
  "ImageComments": "Unaliased_MB6_PE3_LB",
  "ImageOrientationPatientDICOM": [0.997485, 0.0708704, 0.000940899, -0.069576, 0.981626, -0.177681],
  "ImageType": [
    "ORIGINAL",
    "PRIMARY",
    "M",
    "MB",
    "ND",
    "MOSAIC"
],
  "ImagingFrequency": 123.191,
  "InPlanePhaseEncodingDirectionDICOM": "COL",
  "InstitutionAddress": "Washington_Place_6_NYC_NYC_US_10003",
  "InstitutionName": "NYU_-_CBI",
  "InstitutionalDepartmentName": "Department",
  "MRAcquisitionType": "2D",
  "MagneticFieldStrength": 3,
  "Manufacturer": "Siemens",
  "ManufacturersModelName": "Prisma",
  "Modality": "MR",
  "MultibandAccelerationFactor": 6,
  "PartialFourier": 1,
  "PatientPosition": "HFS",
  "PercentPhaseFOV": 100,
  "PhaseEncodingDirection": "j",
  "PhaseEncodingSteps": 104,
  "PhaseResolution": 1,
  "PixelBandwidth": 2290,
  "ProcedureStepDescription": "Investigators_Blessing",
  "ProtocolName": "cmrr_mbepi_s6_2mm_66sl_PA_task-prf",
  "PulseSequenceDetails": "%CustomerSeq%_cmrr_mbep2d_bold",
  "ReceiveCoilActiveElements": "HC1-7",
  "ReceiveCoilName": "HeadNeck_64",
  "ReconMatrixPE": 104,
  "RepetitionTime": 1,
  "SAR": 0.068826,
  "ScanOptions": "FS",
  "ScanningSequence": "EP",
  "SequenceName": "epfid2d1_104",
  "SequenceVariant": "SK_SS",
  "SeriesDescription": "cmrr_mbepi_s6_2mm_66sl_PA_task-prf",
  "SeriesNumber": 18,
  "ShimSetting": [230, -12530, -8417, 659, -123, 53, -236, 65],
  "SliceThickness": 2,
  "SliceTiming": [0, 0.5325, 0.0875, 0.6225, 0.1775, 0.7125, 0.265, 0.8, 0.355, 0.89, 0.445, 0, 0.5325, 0.0875, 0.6225, 0.1775, 0.7125, 0.265, 0.8, 0.355, 0.89, 0.445, 0, 0.5325, 0.0875, 0.6225, 0.1775, 0.7125, 0.265, 0.8, 0.355, 0.89, 0.445, 0, 0.5325, 0.0875, 0.6225, 0.1775, 0.7125, 0.265, 0.8, 0.355, 0.89, 0.445, 0, 0.5325, 0.0875, 0.6225, 0.1775, 0.7125, 0.265, 0.8, 0.355, 0.89, 0.445, 0, 0.5325, 0.0875, 0.6225, 0.1775, 0.7125, 0.265, 0.8, 0.355, 0.89, 0.445],
  "SoftwareVersions": "syngo_MR_E11",
  "SpacingBetweenSlices": 2,
  "StationName": "AWP166018",
  "TaskName": "prf",
  "TotalReadoutTime": 0.060771,
  "TxRefAmp": 230.194,
  "VendorReportedEchoSpacing": 0.00059,
  "WipMemBlock": "91898721-a113-4cf2-8671-a18f4da0d760||Sequence: R016 ve11c/master r/8780670; Nov 27 2017 15:05:12 by eja",
  "dcmmeta_affine": [
    [-1.9949702024459839, -0.13915205001831055, 0.02703181467950344, 113.21038055419922],
    [-0.1417408585548401, 1.9632512331008911, -0.3543364703655243, -62.96363830566406],
    [0.0018817979143932462, 0.35536107420921326, 1.9681755304336548, -66.46185302734375],
    [0.0, 0.0, 0.0, 1.0]
],
  "dcmmeta_reorient_transform": [
    [0.0, -1.0, 0.0, 103.0],
    [1.0, 0.0, 0.0, 0.0],
    [0.0, 0.0, 1.0, 0.0],
    [0.0, 0.0, 0.0, 1.0]
],
  "dcmmeta_shape": [104, 104, 66, 192],
  "dcmmeta_slice_dim": 2,
  "dcmmeta_version": 0.6,
  "global": {
    "const": {
      "AccessionNumber": "kqL6z354",
      "AcquisitionMatrix": [104, 0, 0, 104],
      "AngioFlag": "N",
      "BitsAllocated": 16,
      "BitsStored": 16,
      "BodyPartExamined": "BRAIN",
      "Columns": 936,
      "EchoNumbers": 1,
      "EchoTime": 37.6,
      "EchoTrainLength": 104,
      "FlipAngle": 68.0,
      "HighBit": 15,
      "ImageOrientationPatient": [0.99748508601541, 0.07087043026506, 0.00094089897092, -0.0695760262753, 0.9816255910177, -0.1776805437489],
      "ImagePositionPatient": [-870.89805348545, -1014.9279228781, 117.18772218501],
      "ImageType": [
        "ORIGINAL",
        "PRIMARY",
        "M",
        "MB",
        "ND",
        "MOSAIC"
],
      "ImagedNucleus": "1H",
      "ImagingFrequency": 123.190654,
      "InPlanePhaseEncodingDirection": "COL",
      "MRAcquisitionType": "2D",
      "MagneticFieldStrength": 3.0,
      "Manufacturer": "SIEMENS",
      "ManufacturerModelName": "Prisma",
      "Modality": "MR",
      "NumberOfAverages": 1.0,
      "NumberOfPhaseEncodingSteps": 104,
      "PercentPhaseFieldOfView": 100.0,
      "PercentSampling": 100.0,
      "PerformedProcedureStepStartTime": "120139.460000",
      "PhotometricInterpretation": "MONOCHROME2",
      "PixelBandwidth": 2290.0,
      "PixelRepresentation": 0,
      "PixelSpacing": [2.0, 2.0],
      "ProtocolName": "cmrr_mbepi_s6_2mm_66sl_PA_task-prf",
      "RepetitionTime": 1000.0,
      "Rows": 936,
      "SAR": 0.06882603948902,
      "SamplesPerPixel": 1,
      "ScanOptions": "FS",
      "ScanningSequence": "EP",
      "SequenceName": "epfid2d1_104",
      "SequenceVariant": [
        "SK",
        "SS"
],
      "SeriesDescription": "cmrr_mbepi_s6_2mm_66sl_PA_task-prf",
      "SeriesNumber": 18,
      "SeriesTime": "124022.152000",
      "SliceLocation": -52.719000727401,
      "SliceThickness": 2.0,
      "SmallestImagePixelValue": 0,
      "SoftwareVersions": "syngo MR E11",
      "SpacingBetweenSlices": 2.0000000280231,
      "SpecificCharacterSet": "ISO_IR 100",
      "StudyID": "1",
      "StudyTime": "120139.397000",
      "TransmitCoilName": "Body",
      "VariableFlipAngleFlag": "N",
      "WindowCenterWidthExplanation": "Algo1",
      "dBdt": 0.0},
    "slices": {}
  },
  "time": {
    "samples": {
      "AcquisitionNumber": [1, 2, 3, 4, 5, 6, 7, 8, 9, 10, 11, 12, 13, 14, 15, 16, 17, 18, 19, 20, 21, 22, 23, 24, 25, 26, 27, 28, 29, 30, 31, 32, 33, 34, 35, 36, 37, 38, 39, 40, 41, 42, 43, 44, 45, 46, 47, 48, 49, 50, 51, 52, 53, 54, 55, 56, 57, 58, 59, 60, 61, 62, 63, 64, 65, 66, 67, 68, 69, 70, 71, 72, 73, 74, 75, 76, 77, 78, 79, 80, 81, 82, 83, 84, 85, 86, 87, 88, 89, 90, 91, 92, 93, 94, 95, 96, 97, 98, 99, 100, 101, 102, 103, 104, 105, 106, 107, 108, 109, 110, 111, 112, 113, 114, 115, 116, 117, 118, 119, 120, 121, 122, 123, 124, 125, 126, 127, 128, 129, 130, 131, 132, 133, 134, 135, 136, 137, 138, 139, 140, 141, 142, 143, 144, 145, 146, 147, 148, 149, 150, 151, 152, 153, 154, 155, 156, 157, 158, 159, 160, 161, 162, 163, 164, 165, 166, 167, 168, 169, 170, 171, 172, 173, 174, 175, 176, 177, 178, 179, 180, 181, 182, 183, 184, 185, 186, 187, 188, 189, 190, 191, 192],
      "AcquisitionTime": ["123902.502500", "123903.502500", "123904.502500", "123905.502500", "123906.502500", "123907.502500", "123908.502500", "123909.502500", "123910.502500", "123911.502500", "123912.502500", "123913.502500", "123914.502500", "123915.502500", "123916.502500", "123917.502500", "123918.502500", "123919.502500", "123920.502500", "123921.502500", "123922.502500", "123923.502500", "123924.502500", "123925.502500", "123926.502500", "123927.502500", "123928.502500", "123929.502500", "123930.502500", "123931.502500", "123932.502500", "123933.502500", "123934.502500", "123935.502500", "123936.502500", "123937.502500", "123938.502500", "123939.502500", "123940.502500", "123941.502500", "123942.502500", "123943.502500", "123944.502500", "123945.502500", "123946.502500", "123947.502500", "123948.502500", "123949.502500", "123950.502500", "123951.502500", "123952.502500", "123953.502500", "123954.502500", "123955.502500", "123956.502500", "123957.502500", "123958.502500", "123959.502500", "124000.502500", "124001.502500", "124002.502500", "124003.502500", "124004.502500", "124005.502500", "124006.502500", "124007.502500", "124008.502500", "124009.502500", "124010.502500", "124011.502500", "124012.502500", "124013.502500", "124014.502500", "124015.502500", "124016.502500", "124017.502500", "124018.502500", "124019.502500", "124020.502500", "124021.502500", "124022.502500", "124023.502500", "124024.502500", "124025.502500", "124026.502500", "124027.502500", "124028.502500", "124029.502500", "124030.502500", "124031.502500", "124032.502500", "124033.502500", "124034.502500", "124035.502500", "124036.502500", "124037.502500", "124038.502500", "124039.502500", "124040.502500", "124041.502500", "124042.502500", "124043.502500", "124044.502500", "124045.502500", "124046.502500", "124047.502500", "124048.502500", "124049.502500", "124050.502500", "124051.502500", "124052.502500", "124053.502500", "124054.502500", "124055.502500", "124056.502500", "124057.502500", "124058.502500", "124059.502500", "124100.502500", "124101.502500", "124102.502500", "124103.502500", "124104.502500", "124105.502500", "124106.502500", "124107.502500", "124108.502500", "124109.502500", "124110.502500", "124111.502500", "124112.502500", "124113.502500", "124114.502500", "124115.502500", "124116.502500", "124117.502500", "124118.502500", "124119.502500", "124120.502500", "124121.502500", "124122.502500", "124123.502500", "124124.502500", "124125.502500", "124126.502500", "124127.502500", "124128.502500", "124129.502500", "124130.502500", "124131.502500", "124132.502500", "124133.502500", "124134.502500", "124135.502500", "124136.502500", "124137.502500", "124138.502500", "124139.502500", "124140.502500", "124141.502500", "124142.502500", "124143.502500", "124144.502500", "124145.502500", "124146.502500", "124147.502500", "124148.502500", "124149.502500", "124150.502500", "124151.502500", "124152.502500", "124153.502500", "124154.502500", "124155.502500", "124156.502500", "124157.502500", "124158.502500", "124159.502500", "124200.502500", "124201.502500", "124202.502500", "124203.502500", "124204.502500", "124205.502500", "124206.502500", "124207.502500", "124208.502500", "124209.502500", "124210.502500", "124211.502500", "124212.502500", "124213.502500"],
      "ContentTime": ["124022.154000", "124022.158000", "124022.161000", "124022.164000", "124022.167000", "124022.170000", "124022.173000", "124022.176000", "124022.183000", "124022.186000", "124022.189000", "124022.192000", "124022.195000", "124022.198000", "124022.202000", "124022.205000", "124022.208000", "124022.211000", "124022.214000", "124022.217000", "124022.220000", "124022.222000", "124022.226000", "124022.229000", "124022.232000", "124022.234000", "124022.238000", "124022.241000", "124022.244000", "124022.247000", "124022.250000", "124022.253000", "124022.256000", "124022.259000", "124022.262000", "124022.265000", "124022.268000", "124022.271000", "124042.126000", "124042.129000", "124042.132000", "124042.135000", "124042.138000", "124042.141000", "124042.144000", "124042.147000", "124042.150000", "124042.153000", "124042.156000", "124042.159000", "124042.162000", "124042.165000", "124042.168000", "124042.171000", "124042.174000", "124042.182000", "124042.184000", "124042.188000", "124042.191000", "124042.194000", "124042.196000", "124042.200000", "124042.203000", "124042.206000", "124042.209000", "124042.212000", "124102.126000", "124102.129000", "124102.132000", "124102.135000", "124102.138000", "124102.142000", "124102.145000", "124102.148000", "124102.151000", "124102.154000", "124102.157000", "124102.165000", "124102.168000", "124102.171000", "124102.174000", "124102.177000", "124102.180000", "124102.183000", "124102.186000", "124102.189000", "124102.192000", "124102.195000", "124102.198000", "124102.201000", "124102.204000", "124102.207000", "124102.210000", "124102.213000", "124122.125000", "124122.128000", "124122.132000", "124122.135000", "124122.138000", "124122.141000", "124122.144000", "124122.148000", "124122.150000", "124122.153000", "124122.156000", "124122.160000", "124122.162000", "124122.165000", "124122.168000", "124122.171000", "124122.174000", "124122.177000", "124122.180000", "124122.183000", "124122.186000", "124122.189000", "124122.192000", "124122.195000", "124122.198000", "124122.201000", "124122.204000", "124122.207000", "124142.125000", "124142.142000", "124142.145000", "124142.148000", "124142.151000", "124142.154000", "124142.157000", "124142.160000", "124142.163000", "124142.167000", "124142.172000", "124142.175000", "124142.178000", "124142.181000", "124142.184000", "124142.187000", "124142.190000", "124142.194000", "124142.196000", "124142.199000", "124142.202000", "124142.205000", "124142.208000", "124142.211000", "124142.214000", "124142.217000", "124142.220000", "124142.223000", "124202.126000", "124202.129000", "124202.132000", "124202.135000", "124202.138000", "124202.141000", "124202.144000", "124202.147000", "124202.150000", "124202.153000", "124202.156000", "124202.159000", "124202.162000", "124202.165000", "124202.168000", "124202.171000", "124202.174000", "124202.177000", "124202.180000", "124202.183000", "124202.186000", "124202.189000", "124202.192000", "124202.195000", "124202.198000", "124202.201000", "124202.204000", "124202.207000", "124202.210000", "124214.947000", "124214.952000", "124214.957000", "124214.960000", "124214.963000", "124214.966000", "124214.970000", "124214.973000", "124214.978000", "124214.981000", "124214.985000", "124214.988000", "124214.991000"],
      "InstanceCreationTime": ["124022.154000", "124022.158000", "124022.161000", "124022.164000", "124022.167000", "124022.170000", "124022.173000", "124022.176000", "124022.183000", "124022.186000", "124022.189000", "124022.192000", "124022.195000", "124022.198000", "124022.202000", "124022.205000", "124022.208000", "124022.211000", "124022.214000", "124022.217000", "124022.220000", "124022.222000", "124022.226000", "124022.229000", "124022.232000", "124022.234000", "124022.238000", "124022.241000", "124022.244000", "124022.247000", "124022.250000", "124022.253000", "124022.256000", "124022.259000", "124022.262000", "124022.265000", "124022.268000", "124022.271000", "124042.126000", "124042.129000", "124042.132000", "124042.135000", "124042.138000", "124042.141000", "124042.144000", "124042.147000", "124042.150000", "124042.153000", "124042.156000", "124042.159000", "124042.162000", "124042.165000", "124042.168000", "124042.171000", "124042.174000", "124042.182000", "124042.184000", "124042.188000", "124042.191000", "124042.194000", "124042.196000", "124042.200000", "124042.203000", "124042.206000", "124042.209000", "124042.212000", "124102.126000", "124102.129000", "124102.132000", "124102.135000", "124102.138000", "124102.142000", "124102.145000", "124102.148000", "124102.151000", "124102.154000", "124102.157000", "124102.165000", "124102.168000", "124102.171000", "124102.174000", "124102.177000", "124102.180000", "124102.183000", "124102.186000", "124102.189000", "124102.192000", "124102.195000", "124102.198000", "124102.201000", "124102.204000", "124102.207000", "124102.210000", "124102.213000", "124122.125000", "124122.128000", "124122.132000", "124122.135000", "124122.138000", "124122.141000", "124122.144000", "124122.148000", "124122.150000", "124122.153000", "124122.156000", "124122.160000", "124122.162000", "124122.165000", "124122.168000", "124122.171000", "124122.174000", "124122.177000", "124122.180000", "124122.183000", "124122.186000", "124122.189000", "124122.192000", "124122.195000", "124122.198000", "124122.201000", "124122.204000", "124122.207000", "124142.125000", "124142.142000", "124142.145000", "124142.148000", "124142.151000", "124142.154000", "124142.157000", "124142.160000", "124142.163000", "124142.167000", "124142.172000", "124142.175000", "124142.178000", "124142.181000", "124142.184000", "124142.187000", "124142.190000", "124142.194000", "124142.196000", "124142.199000", "124142.202000", "124142.205000", "124142.208000", "124142.211000", "124142.214000", "124142.217000", "124142.220000", "124142.223000", "124202.126000", "124202.129000", "124202.132000", "124202.135000", "124202.138000", "124202.141000", "124202.144000", "124202.147000", "124202.150000", "124202.153000", "124202.156000", "124202.159000", "124202.162000", "124202.165000", "124202.168000", "124202.171000", "124202.174000", "124202.177000", "124202.180000", "124202.183000", "124202.186000", "124202.189000", "124202.192000", "124202.195000", "124202.198000", "124202.201000", "124202.204000", "124202.207000", "124202.210000", "124214.947000", "124214.952000", "124214.957000", "124214.960000", "124214.963000", "124214.966000", "124214.970000", "124214.973000", "124214.978000", "124214.981000", "124214.985000", "124214.988000", "124214.991000"],
      "InstanceNumber": [1, 2, 3, 4, 5, 6, 7, 8, 9, 10, 11, 12, 13, 14, 15, 16, 17, 18, 19, 20, 21, 22, 23, 24, 25, 26, 27, 28, 29, 30, 31, 32, 33, 34, 35, 36, 37, 38, 39, 40, 41, 42, 43, 44, 45, 46, 47, 48, 49, 50, 51, 52, 53, 54, 55, 56, 57, 58, 59, 60, 61, 62, 63, 64, 65, 66, 67, 68, 69, 70, 71, 72, 73, 74, 75, 76, 77, 78, 79, 80, 81, 82, 83, 84, 85, 86, 87, 88, 89, 90, 91, 92, 93, 94, 95, 96, 97, 98, 99, 100, 101, 102, 103, 104, 105, 106, 107, 108, 109, 110, 111, 112, 113, 114, 115, 116, 117, 118, 119, 120, 121, 122, 123, 124, 125, 126, 127, 128, 129, 130, 131, 132, 133, 134, 135, 136, 137, 138, 139, 140, 141, 142, 143, 144, 145, 146, 147, 148, 149, 150, 151, 152, 153, 154, 155, 156, 157, 158, 159, 160, 161, 162, 163, 164, 165, 166, 167, 168, 169, 170, 171, 172, 173, 174, 175, 176, 177, 178, 179, 180, 181, 182, 183, 184, 185, 186, 187, 188, 189, 190, 191, 192],
      "LargestImagePixelValue": [34271, 33135, 32510, 33204, 32094, 32965, 33080, 32569, 33193, 32738, 32659, 33199, 32612, 33108, 33590, 32887, 32976, 33478, 32891, 32873, 33609, 33015, 32815, 33289, 32405, 32347, 33300, 32387, 32223, 32993, 32620, 32460, 32987, 32434, 32339, 33117, 32362, 32617, 33548, 32386, 32655, 33281, 32144, 32793, 32158, 33350, 32806, 32271, 33548, 32643, 32465, 33792, 32331, 33017, 33755, 32566, 33001, 33215, 32604, 32835, 32797, 32768, 32296, 33401, 32849, 32848, 33643, 32222, 32787, 34190, 32250, 33150, 33061, 32301, 32960, 33110, 32253, 32913, 31949, 33124, 32342, 32070, 33635, 33185, 33324, 33637, 32067, 32982, 33622, 32585, 32742, 32663, 32400, 32972, 32603, 33162, 33118, 32606, 33063, 32614, 32671, 33069, 33194, 32200, 33413, 32932, 31967, 32632, 34051, 32500, 33316, 33097, 32398, 34301, 33304, 33198, 33217, 32485, 32669, 33087, 32750, 31893, 33113, 32824, 32339, 33091, 32455, 32400, 33743, 32597, 32277, 32649, 32600, 32795, 33319, 32452, 33068, 33194, 33010, 33257, 33148, 33625, 33194, 32454, 32859, 32740, 33160, 33821, 33322, 33765, 33182, 33268, 33032, 32606, 32911, 33461, 32502, 32798, 34317, 32684, 32755, 33153, 33211, 33030, 32897, 32432, 33408, 33709, 32784, 33159, 32908, 33160, 33419, 33147, 33509, 33252, 32754, 33545, 33001, 32709, 32833, 33274, 32484, 32419, 32372, 32075, 33046, 31945, 32176, 32947, 32700, 32068],
      "WindowCenter": [9883.0, 9836.0, 9807.0, 9811.0, 9810.0, 9828.0, 9838.0, 9847.0, 9858.0, 9856.0, 9857.0, 9867.0, 9857.0, 9857.0, 9874.0, 9864.0, 9858.0, 9871.0, 9856.0, 9849.0, 9867.0, 9856.0, 9855.0, 9854.0, 9838.0, 9845.0, 9854.0, 9844.0, 9844.0, 9854.0, 9851.0, 9850.0, 9856.0, 9847.0, 9834.0, 9829.0, 9820.0, 9820.0, 9825.0, 9826.0, 9821.0, 9825.0, 9808.0, 9805.0, 9792.0, 9808.0, 9808.0, 9797.0, 9824.0, 9816.0, 9826.0, 9832.0, 9810.0, 9826.0, 9823.0, 9830.0, 9828.0, 9837.0, 9833.0, 9831.0, 9826.0, 9826.0, 9825.0, 9838.0, 9831.0, 9837.0, 9835.0, 9820.0, 9817.0, 9838.0, 9824.0, 9835.0, 9836.0, 9826.0, 9820.0, 9811.0, 9798.0, 9801.0, 9790.0, 9806.0, 9797.0, 9799.0, 9823.0, 9835.0, 9827.0, 9833.0, 9821.0, 9841.0, 9848.0, 9840.0, 9842.0, 9832.0, 9816.0, 9820.0, 9816.0, 9824.0, 9821.0, 9817.0, 9829.0, 9818.0, 9812.0, 9818.0, 9825.0, 9814.0, 9820.0, 9824.0, 9817.0, 9815.0, 9839.0, 9824.0, 9829.0, 9841.0, 9828.0, 9858.0, 9846.0, 9847.0, 9844.0, 9825.0, 9818.0, 9811.0, 9806.0, 9803.0, 9819.0, 9830.0, 9817.0, 9828.0, 9836.0, 9833.0, 9843.0, 9827.0, 9816.0, 9814.0, 9821.0, 9820.0, 9829.0, 9825.0, 9837.0, 9847.0, 9838.0, 9852.0, 9862.0, 9870.0, 9866.0, 9862.0, 9878.0, 9843.0, 9849.0, 9862.0, 9860.0, 9881.0, 9889.0, 9896.0, 9902.0, 9893.0, 9885.0, 9879.0, 9870.0, 9869.0, 9894.0, 9882.0, 9877.0, 9882.0, 9881.0, 9870.0, 9865.0, 9862.0, 9864.0, 9872.0, 9852.0, 9867.0, 9860.0, 9863.0, 9861.0, 9858.0, 9839.0, 9838.0, 9832.0, 9843.0, 9847.0, 9842.0, 9841.0, 9847.0, 9832.0, 9825.0, 9831.0, 9820.0, 9839.0, 9828.0, 9827.0, 9829.0, 9827.0, 9802.0],
      "WindowWidth": [21014.0, 20899.0, 20828.0, 20833.0, 20835.0, 20871.0, 20896.0, 20916.0, 20939.0, 20937.0, 20940.0, 20957.0, 20938.0, 20941.0, 20974.0, 20956.0, 20944.0, 20969.0, 20939.0, 20924.0, 20958.0, 20934.0, 20930.0, 20929.0, 20898.0, 20911.0, 20927.0, 20910.0, 20912.0, 20928.0, 20922.0, 20922.0, 20934.0, 20917.0, 20883.0, 20868.0, 20854.0, 20848.0, 20859.0, 20867.0, 20853.0, 20861.0, 20828.0, 20818.0, 20792.0, 20818.0, 20818.0, 20797.0, 20852.0, 20843.0, 20863.0, 20868.0, 20832.0, 20859.0, 20852.0, 20874.0, 20866.0, 20891.0, 20885.0, 20878.0, 20871.0, 20870.0, 20868.0, 20894.0, 20880.0, 20894.0, 20887.0, 20862.0, 20849.0, 20890.0, 20865.0, 20883.0, 20889.0, 20868.0, 20849.0, 20829.0, 20800.0, 20804.0, 20784.0, 20816.0, 20800.0, 20809.0, 20857.0, 20886.0, 20867.0, 20881.0, 20865.0, 20903.0, 20914.0, 20902.0, 20904.0, 20879.0, 20845.0, 20847.0, 20840.0, 20855.0, 20853.0, 20844.0, 20874.0, 20846.0, 20832.0, 20843.0, 20859.0, 20839.0, 20850.0, 20860.0, 20851.0, 20845.0, 20894.0, 20864.0, 20872.0, 20903.0, 20879.0, 20937.0, 20917.0, 20919.0, 20907.0, 20867.0, 20851.0, 20829.0, 20819.0, 20815.0, 20845.0, 20871.0, 20846.0, 20870.0, 20892.0, 20883.0, 20902.0, 20869.0, 20844.0, 20837.0, 20855.0, 20857.0, 20870.0, 20865.0, 20891.0, 20911.0, 20894.0, 20924.0, 20946.0, 20967.0, 20959.0, 20953.0, 20991.0, 20906.0, 20916.0, 20942.0, 20940.0, 20986.0, 21007.0, 21027.0, 21042.0, 21026.0, 21007.0, 20990.0, 20974.0, 20972.0, 21023.0, 21004.0, 20990.0, 20997.0, 20995.0, 20967.0, 20958.0, 20954.0, 20952.0, 20969.0, 20926.0, 20954.0, 20945.0, 20946.0, 20943.0, 20936.0, 20894.0, 20891.0, 20880.0, 20902.0, 20914.0, 20903.0, 20903.0, 20909.0, 20877.0, 20867.0, 20878.0, 20855.0, 20896.0, 20875.0, 20871.0, 20872.0, 20871.0, 20812.0]
    },
    "slices": {}
  },
  "NumberOfVolumes": 192
}