{
  "AcquisitionMatrixPE": 104,
  "AcquisitionNumber": 1,
  "AcquisitionTime": "12:34:58.487500",
  "BandwidthPerPixelPhaseEncode": 16.297,
  "BaseResolution": 104,
  "BodyPartExamined": "BRAIN",
  "ConsistencyInfo": "N4_VE11C_LATEST_20160120",
  "ConversionSoftware": "dcm2niix",
  "ConversionSoftwareVersion": "v1.0.20190902",
  "DerivedVendorReportedEchoSpacing": 0.000590009,
  "DeviceSerialNumber": "166018",
  "DwellTime": 2.1e-06,
  "EchoTime": 0.0376,
  "EchoTrainLength": 104,
  "EffectiveEchoSpacing": 0.000590009,
  "FlipAngle": 68,
  "ImageComments": "Unaliased_MB6_PE3_LB",
  "ImageOrientationPatientDICOM": [0.997485, 0.0708704, 0.000940899, -0.069576, 0.981626, -0.177681],
  "ImageType": [
    "ORIGINAL",
    "PRIMARY",
    "M",
    "MB",
    "ND",
    "MOSAIC"
],
  "ImagingFrequency": 123.191,
  "InPlanePhaseEncodingDirectionDICOM": "COL",
  "InstitutionAddress": "Washington_Place_6_NYC_NYC_US_10003",
  "InstitutionName": "NYU_-_CBI",
  "InstitutionalDepartmentName": "Department",
  "MRAcquisitionType": "2D",
  "MagneticFieldStrength": 3,
  "Manufacturer": "Siemens",
  "ManufacturersModelName": "Prisma",
  "Modality": "MR",
  "MultibandAccelerationFactor": 6,
  "PartialFourier": 1,
  "PatientPosition": "HFS",
  "PercentPhaseFOV": 100,
  "PhaseEncodingDirection": "j",
  "PhaseEncodingSteps": 104,
  "PhaseResolution": 1,
  "PixelBandwidth": 2290,
  "ProcedureStepDescription": "Investigators_Blessing",
  "ProtocolName": "cmrr_mbepi_s6_2mm_66sl_PA_task-prf",
  "PulseSequenceDetails": "%CustomerSeq%_cmrr_mbep2d_bold",
  "ReceiveCoilActiveElements": "HC1-7",
  "ReceiveCoilName": "HeadNeck_64",
  "ReconMatrixPE": 104,
  "RepetitionTime": 1,
  "SAR": 0.068826,
  "ScanOptions": "FS",
  "ScanningSequence": "EP",
  "SequenceName": "epfid2d1_104",
  "SequenceVariant": "SK_SS",
  "SeriesDescription": "cmrr_mbepi_s6_2mm_66sl_PA_task-prf",
  "SeriesNumber": 16,
  "ShimSetting": [230, -12530, -8417, 659, -123, 53, -236, 65],
  "SliceThickness": 2,
  "SliceTiming": [0, 0.535, 0.09, 0.625, 0.1775, 0.7125, 0.2675, 0.8025, 0.3575, 0.8925, 0.445, 0, 0.535, 0.09, 0.625, 0.1775, 0.7125, 0.2675, 0.8025, 0.3575, 0.8925, 0.445, 0, 0.535, 0.09, 0.625, 0.1775, 0.7125, 0.2675, 0.8025, 0.3575, 0.8925, 0.445, 0, 0.535, 0.09, 0.625, 0.1775, 0.7125, 0.2675, 0.8025, 0.3575, 0.8925, 0.445, 0, 0.535, 0.09, 0.625, 0.1775, 0.7125, 0.2675, 0.8025, 0.3575, 0.8925, 0.445, 0, 0.535, 0.09, 0.625, 0.1775, 0.7125, 0.2675, 0.8025, 0.3575, 0.8925, 0.445],
  "SoftwareVersions": "syngo_MR_E11",
  "SpacingBetweenSlices": 2,
  "StationName": "AWP166018",
  "TaskName": "prf",
  "TotalReadoutTime": 0.060771,
  "TxRefAmp": 230.194,
  "VendorReportedEchoSpacing": 0.00059,
  "WipMemBlock": "91898721-a113-4cf2-8671-a18f4da0d760||Sequence: R016 ve11c/master r/8780670; Nov 27 2017 15:05:12 by eja",
  "dcmmeta_affine": [
    [-1.9949702024459839, -0.13915205001831055, 0.02703181467950344, 113.21038055419922],
    [-0.1417408585548401, 1.9632512331008911, -0.3543364703655243, -62.96363830566406],
    [0.0018817979143932462, 0.35536107420921326, 1.9681755304336548, -66.46185302734375],
    [0.0, 0.0, 0.0, 1.0]
],
  "dcmmeta_reorient_transform": [
    [0.0, -1.0, 0.0, 103.0],
    [1.0, 0.0, 0.0, 0.0],
    [0.0, 0.0, 1.0, 0.0],
    [0.0, 0.0, 0.0, 1.0]
],
  "dcmmeta_shape": [104, 104, 66, 192],
  "dcmmeta_slice_dim": 2,
  "dcmmeta_version": 0.6,
  "global": {
    "const": {
      "AccessionNumber": "kqL6z354",
      "AcquisitionMatrix": [104, 0, 0, 104],
      "AngioFlag": "N",
      "BitsAllocated": 16,
      "BitsStored": 16,
      "BodyPartExamined": "BRAIN",
      "Columns": 936,
      "EchoNumbers": 1,
      "EchoTime": 37.6,
      "EchoTrainLength": 104,
      "FlipAngle": 68.0,
      "HighBit": 15,
      "ImageOrientationPatient": [0.99748508601541, 0.07087043026506, 0.00094089897092, -0.0695760262753, 0.9816255910177, -0.1776805437489],
      "ImagePositionPatient": [-870.89805348545, -1014.9279228781, 117.18772218501],
      "ImageType": [
        "ORIGINAL",
        "PRIMARY",
        "M",
        "MB",
        "ND",
        "MOSAIC"
],
      "ImagedNucleus": "1H",
      "ImagingFrequency": 123.190654,
      "InPlanePhaseEncodingDirection": "COL",
      "MRAcquisitionType": "2D",
      "MagneticFieldStrength": 3.0,
      "Manufacturer": "SIEMENS",
      "ManufacturerModelName": "Prisma",
      "Modality": "MR",
      "NumberOfAverages": 1.0,
      "NumberOfPhaseEncodingSteps": 104,
      "PercentPhaseFieldOfView": 100.0,
      "PercentSampling": 100.0,
      "PerformedProcedureStepStartTime": "120139.460000",
      "PhotometricInterpretation": "MONOCHROME2",
      "PixelBandwidth": 2290.0,
      "PixelRepresentation": 0,
      "PixelSpacing": [2.0, 2.0],
      "ProtocolName": "cmrr_mbepi_s6_2mm_66sl_PA_task-prf",
      "RepetitionTime": 1000.0,
      "Rows": 936,
      "SAR": 0.06882603948902,
      "SamplesPerPixel": 1,
      "ScanOptions": "FS",
      "ScanningSequence": "EP",
      "SequenceName": "epfid2d1_104",
      "SequenceVariant": [
        "SK",
        "SS"
],
      "SeriesDescription": "cmrr_mbepi_s6_2mm_66sl_PA_task-prf",
      "SeriesNumber": 16,
      "SeriesTime": "123622.306000",
      "SliceLocation": -52.719000727401,
      "SliceThickness": 2.0,
      "SmallestImagePixelValue": 0,
      "SoftwareVersions": "syngo MR E11",
      "SpacingBetweenSlices": 2.0000000280231,
      "SpecificCharacterSet": "ISO_IR 100",
      "StudyID": "1",
      "StudyTime": "120139.397000",
      "TransmitCoilName": "Body",
      "VariableFlipAngleFlag": "N",
      "WindowCenterWidthExplanation": "Algo1",
      "dBdt": 0.0},
    "slices": {}
  },
  "time": {
    "samples": {
      "AcquisitionNumber": [1, 2, 3, 4, 5, 6, 7, 8, 9, 10, 11, 12, 13, 14, 15, 16, 17, 18, 19, 20, 21, 22, 23, 24, 25, 26, 27, 28, 29, 30, 31, 32, 33, 34, 35, 36, 37, 38, 39, 40, 41, 42, 43, 44, 45, 46, 47, 48, 49, 50, 51, 52, 53, 54, 55, 56, 57, 58, 59, 60, 61, 62, 63, 64, 65, 66, 67, 68, 69, 70, 71, 72, 73, 74, 75, 76, 77, 78, 79, 80, 81, 82, 83, 84, 85, 86, 87, 88, 89, 90, 91, 92, 93, 94, 95, 96, 97, 98, 99, 100, 101, 102, 103, 104, 105, 106, 107, 108, 109, 110, 111, 112, 113, 114, 115, 116, 117, 118, 119, 120, 121, 122, 123, 124, 125, 126, 127, 128, 129, 130, 131, 132, 133, 134, 135, 136, 137, 138, 139, 140, 141, 142, 143, 144, 145, 146, 147, 148, 149, 150, 151, 152, 153, 154, 155, 156, 157, 158, 159, 160, 161, 162, 163, 164, 165, 166, 167, 168, 169, 170, 171, 172, 173, 174, 175, 176, 177, 178, 179, 180, 181, 182, 183, 184, 185, 186, 187, 188, 189, 190, 191, 192],
      "AcquisitionTime": ["123458.487500", "123459.487500", "123500.487500", "123501.487500", "123502.487500", "123503.487500", "123504.487500", "123505.487500", "123506.487500", "123507.487500", "123508.487500", "123509.487500", "123510.487500", "123511.487500", "123512.487500", "123513.487500", "123514.487500", "123515.487500", "123516.487500", "123517.487500", "123518.487500", "123519.487500", "123520.487500", "123521.487500", "123522.487500", "123523.487500", "123524.487500", "123525.487500", "123526.487500", "123527.487500", "123528.487500", "123529.487500", "123530.487500", "123531.487500", "123532.487500", "123533.487500", "123534.487500", "123535.487500", "123536.487500", "123537.487500", "123538.487500", "123539.487500", "123540.487500", "123541.487500", "123542.487500", "123543.487500", "123544.487500", "123545.487500", "123546.487500", "123547.487500", "123548.487500", "123549.487500", "123550.487500", "123551.487500", "123552.487500", "123553.487500", "123554.487500", "123555.487500", "123556.487500", "123557.487500", "123558.487500", "123559.487500", "123600.487500", "123601.487500", "123602.487500", "123603.487500", "123604.487500", "123605.487500", "123606.487500", "123607.487500", "123608.487500", "123609.487500", "123610.487500", "123611.487500", "123612.487500", "123613.487500", "123614.487500", "123615.487500", "123616.487500", "123617.487500", "123618.487500", "123619.487500", "123620.487500", "123621.487500", "123622.487500", "123623.487500", "123624.487500", "123625.487500", "123626.487500", "123627.487500", "123628.487500", "123629.487500", "123630.487500", "123631.487500", "123632.487500", "123633.487500", "123634.487500", "123635.487500", "123636.487500", "123637.487500", "123638.487500", "123639.487500", "123640.487500", "123641.487500", "123642.487500", "123643.487500", "123644.487500", "123645.487500", "123646.487500", "123647.487500", "123648.487500", "123649.487500", "123650.487500", "123651.487500", "123652.487500", "123653.487500", "123654.487500", "123655.487500", "123656.487500", "123657.487500", "123658.487500", "123659.487500", "123700.487500", "123701.487500", "123702.487500", "123703.487500", "123704.487500", "123705.487500", "123706.487500", "123707.487500", "123708.487500", "123709.487500", "123710.487500", "123711.487500", "123712.487500", "123713.487500", "123714.487500", "123715.487500", "123716.487500", "123717.487500", "123718.487500", "123719.487500", "123720.487500", "123721.487500", "123722.487500", "123723.487500", "123724.487500", "123725.487500", "123726.487500", "123727.487500", "123728.487500", "123729.487500", "123730.487500", "123731.487500", "123732.487500", "123733.487500", "123734.487500", "123735.487500", "123736.487500", "123737.487500", "123738.487500", "123739.487500", "123740.487500", "123741.487500", "123742.487500", "123743.487500", "123744.487500", "123745.487500", "123746.487500", "123747.487500", "123748.487500", "123749.487500", "123750.487500", "123751.487500", "123752.487500", "123753.487500", "123754.487500", "123755.487500", "123756.487500", "123757.487500", "123758.487500", "123759.487500", "123800.487500", "123801.487500", "123802.487500", "123803.487500", "123804.487500", "123805.487500", "123806.487500", "123807.487500", "123808.487500", "123809.487500"],
      "ContentTime": ["123622.308000", "123622.312000", "123622.315000", "123622.318000", "123622.329000", "123622.332000", "123622.335000", "123622.338000", "123622.342000", "123622.344000", "123622.347000", "123622.358000", "123622.362000", "123622.365000", "123622.368000", "123622.371000", "123622.374000", "123622.377000", "123622.380000", "123622.383000", "123622.386000", "123622.389000", "123622.392000", "123622.395000", "123622.398000", "123622.401000", "123622.404000", "123622.407000", "123622.410000", "123622.413000", "123622.416000", "123622.419000", "123622.422000", "123622.425000", "123622.428000", "123622.430000", "123622.434000", "123622.437000", "123622.440000", "123622.443000", "123622.446000", "123622.449000", "123642.272000", "123642.276000", "123642.278000", "123642.281000", "123642.284000", "123642.287000", "123642.290000", "123642.293000", "123642.296000", "123642.300000", "123642.303000", "123642.306000", "123642.309000", "123642.312000", "123642.315000", "123642.320000", "123642.323000", "123642.326000", "123642.329000", "123642.332000", "123642.336000", "123642.339000", "123642.342000", "123642.345000", "123642.347000", "123642.351000", "123642.354000", "123642.356000", "123702.272000", "123702.277000", "123702.280000", "123702.283000", "123702.286000", "123702.290000", "123702.292000", "123702.295000", "123702.298000", "123702.301000", "123702.304000", "123702.307000", "123702.310000", "123702.313000", "123702.316000", "123702.319000", "123702.322000", "123702.325000", "123702.328000", "123702.331000", "123702.334000", "123702.337000", "123702.340000", "123702.343000", "123702.346000", "123702.349000", "123702.352000", "123702.355000", "123722.273000", "123722.276000", "123722.279000", "123722.282000", "123722.285000", "123722.289000", "123722.291000", "123722.294000", "123722.297000", "123722.301000", "123722.304000", "123722.306000", "123722.309000", "123722.313000", "123722.316000", "123722.319000", "123722.322000", "123722.325000", "123722.328000", "123722.331000", "123722.334000", "123722.337000", "123722.340000", "123722.343000", "123722.346000", "123722.349000", "123722.352000", "123722.355000", "123742.273000", "123742.276000", "123742.279000", "123742.282000", "123742.285000", "123742.289000", "123742.292000", "123742.294000", "123742.297000", "123742.301000", "123742.304000", "123742.307000", "123742.309000", "123742.313000", "123742.316000", "123742.319000", "123742.321000", "123742.325000", "123742.328000", "123742.331000", "123742.333000", "123742.337000", "123742.354000", "123742.357000", "123742.360000", "123742.363000", "123742.366000", "123742.369000", "123802.273000", "123802.283000", "123802.286000", "123802.289000", "123802.292000", "123802.295000", "123802.298000", "123802.301000", "123802.304000", "123802.307000", "123802.310000", "123802.313000", "123802.316000", "123802.319000", "123802.322000", "123802.325000", "123802.328000", "123802.331000", "123802.334000", "123802.338000", "123802.341000", "123802.344000", "123802.346000", "123802.350000", "123802.353000", "123802.356000", "123802.358000", "123802.362000", "123811.320000", "123811.323000", "123811.326000", "123811.329000", "123811.332000", "123811.336000", "123811.339000", "123811.342000", "123811.345000", "123811.348000"],
      "InstanceCreationTime": ["123622.308000", "123622.312000", "123622.315000", "123622.318000", "123622.329000", "123622.332000", "123622.335000", "123622.338000", "123622.342000", "123622.344000", "123622.347000", "123622.358000", "123622.362000", "123622.365000", "123622.368000", "123622.371000", "123622.374000", "123622.377000", "123622.380000", "123622.383000", "123622.386000", "123622.389000", "123622.392000", "123622.395000", "123622.398000", "123622.401000", "123622.404000", "123622.407000", "123622.410000", "123622.413000", "123622.416000", "123622.419000", "123622.422000", "123622.425000", "123622.428000", "123622.430000", "123622.434000", "123622.437000", "123622.440000", "123622.443000", "123622.446000", "123622.449000", "123642.272000", "123642.276000", "123642.278000", "123642.281000", "123642.284000", "123642.287000", "123642.290000", "123642.293000", "123642.296000", "123642.300000", "123642.303000", "123642.306000", "123642.309000", "123642.312000", "123642.315000", "123642.320000", "123642.323000", "123642.326000", "123642.329000", "123642.332000", "123642.336000", "123642.339000", "123642.342000", "123642.345000", "123642.347000", "123642.351000", "123642.354000", "123642.356000", "123702.272000", "123702.277000", "123702.280000", "123702.283000", "123702.286000", "123702.290000", "123702.292000", "123702.295000", "123702.298000", "123702.301000", "123702.304000", "123702.307000", "123702.310000", "123702.313000", "123702.316000", "123702.319000", "123702.322000", "123702.325000", "123702.328000", "123702.331000", "123702.334000", "123702.337000", "123702.340000", "123702.343000", "123702.346000", "123702.349000", "123702.352000", "123702.355000", "123722.273000", "123722.276000", "123722.279000", "123722.282000", "123722.285000", "123722.289000", "123722.291000", "123722.294000", "123722.297000", "123722.301000", "123722.304000", "123722.306000", "123722.309000", "123722.313000", "123722.316000", "123722.319000", "123722.322000", "123722.325000", "123722.328000", "123722.331000", "123722.334000", "123722.337000", "123722.340000", "123722.343000", "123722.346000", "123722.349000", "123722.352000", "123722.355000", "123742.273000", "123742.276000", "123742.279000", "123742.282000", "123742.285000", "123742.289000", "123742.292000", "123742.294000", "123742.297000", "123742.301000", "123742.304000", "123742.307000", "123742.309000", "123742.313000", "123742.316000", "123742.319000", "123742.321000", "123742.325000", "123742.328000", "123742.331000", "123742.333000", "123742.337000", "123742.354000", "123742.357000", "123742.360000", "123742.363000", "123742.366000", "123742.369000", "123802.273000", "123802.283000", "123802.286000", "123802.289000", "123802.292000", "123802.295000", "123802.298000", "123802.301000", "123802.304000", "123802.307000", "123802.310000", "123802.313000", "123802.316000", "123802.319000", "123802.322000", "123802.325000", "123802.328000", "123802.331000", "123802.334000", "123802.338000", "123802.341000", "123802.344000", "123802.346000", "123802.350000", "123802.353000", "123802.356000", "123802.358000", "123802.362000", "123811.320000", "123811.323000", "123811.326000", "123811.329000", "123811.332000", "123811.336000", "123811.339000", "123811.342000", "123811.345000", "123811.348000"],
      "InstanceNumber": [1, 2, 3, 4, 5, 6, 7, 8, 9, 10, 11, 12, 13, 14, 15, 16, 17, 18, 19, 20, 21, 22, 23, 24, 25, 26, 27, 28, 29, 30, 31, 32, 33, 34, 35, 36, 37, 38, 39, 40, 41, 42, 43, 44, 45, 46, 47, 48, 49, 50, 51, 52, 53, 54, 55, 56, 57, 58, 59, 60, 61, 62, 63, 64, 65, 66, 67, 68, 69, 70, 71, 72, 73, 74, 75, 76, 77, 78, 79, 80, 81, 82, 83, 84, 85, 86, 87, 88, 89, 90, 91, 92, 93, 94, 95, 96, 97, 98, 99, 100, 101, 102, 103, 104, 105, 106, 107, 108, 109, 110, 111, 112, 113, 114, 115, 116, 117, 118, 119, 120, 121, 122, 123, 124, 125, 126, 127, 128, 129, 130, 131, 132, 133, 134, 135, 136, 137, 138, 139, 140, 141, 142, 143, 144, 145, 146, 147, 148, 149, 150, 151, 152, 153, 154, 155, 156, 157, 158, 159, 160, 161, 162, 163, 164, 165, 166, 167, 168, 169, 170, 171, 172, 173, 174, 175, 176, 177, 178, 179, 180, 181, 182, 183, 184, 185, 186, 187, 188, 189, 190, 191, 192],
      "LargestImagePixelValue": [34942, 34043, 33542, 33478, 33757, 33293, 32748, 32857, 33190, 33118, 32483, 33255, 33097, 32689, 33483, 33036, 33666, 34075, 33188, 33934, 33929, 32829, 33437, 33148, 32499, 33228, 33392, 32969, 33119, 33973, 33100, 33059, 33170, 33376, 34023, 33110, 33675, 33398, 34047, 32731, 33148, 33167, 32718, 33041, 33346, 32320, 33056, 33990, 33054, 33293, 33816, 32239, 32773, 34019, 32717, 32562, 32809, 33165, 32904, 33134, 33059, 33518, 32592, 31919, 33555, 32584, 33099, 33661, 33145, 33127, 33368, 33068, 32762, 32133, 33562, 33029, 32692, 34098, 32570, 32729, 33857, 32271, 32394, 33231, 33349, 33293, 32827, 33318, 32913, 32296, 33785, 33159, 32807, 32283, 33345, 32547, 32108, 33628, 32405, 32189, 33609, 33183, 32671, 33111, 33166, 32755, 33047, 32664, 33275, 33482, 33930, 32807, 32370, 33797, 33195, 32903, 32938, 33164, 32793, 33119, 32944, 32714, 33613, 32591, 32719, 33991, 32182, 32396, 33964, 33035, 33071, 32760, 33017, 32885, 32378, 32914, 33205, 32716, 33317, 33195, 32591, 33481, 33305, 34300, 32506, 32802, 33210, 32755, 33097, 33167, 32810, 33069, 33293, 32998, 33817, 33252, 33528, 32600, 32401, 33160, 32588, 32432, 32144, 33426, 33137, 33079, 33621, 32980, 33512, 32581, 33583, 32871, 33034, 33483, 33230, 32628, 32580, 33058, 32989, 33079, 33933, 32768, 33331, 33432, 33086, 33295, 32992, 33685, 33235, 33025, 33184, 33081],
      "WindowCenter": [9960.0, 9926.0, 9931.0, 9922.0, 9921.0, 9929.0, 9921.0, 9935.0, 9932.0, 9928.0, 9913.0, 9909.0, 9909.0, 9903.0, 9920.0, 9924.0, 9939.0, 9944.0, 9935.0, 9944.0, 9931.0, 9913.0, 9901.0, 9907.0, 9896.0, 9908.0, 9911.0, 9902.0, 9891.0, 9900.0, 9883.0, 9882.0, 9879.0, 9894.0, 9903.0, 9899.0, 9912.0, 9914.0, 9917.0, 9904.0, 9900.0, 9899.0, 9878.0, 9876.0, 9871.0, 9867.0, 9873.0, 9891.0, 9889.0, 9882.0, 9895.0, 9874.0, 9873.0, 9878.0, 9865.0, 9860.0, 9857.0, 9867.0, 9855.0, 9846.0, 9844.0, 9849.0, 9846.0, 9843.0, 9866.0, 9868.0, 9864.0, 9875.0, 9871.0, 9872.0, 9865.0, 9856.0, 9858.0, 9852.0, 9874.0, 9870.0, 9859.0, 9865.0, 9850.0, 9832.0, 9849.0, 9839.0, 9832.0, 9843.0, 9847.0, 9853.0, 9847.0, 9854.0, 9856.0, 9854.0, 9867.0, 9868.0, 9860.0, 9851.0, 9861.0, 9852.0, 9845.0, 9859.0, 9849.0, 9857.0, 9869.0, 9887.0, 9877.0, 9881.0, 9889.0, 9875.0, 9872.0, 9869.0, 9864.0, 9861.0, 9874.0, 9858.0, 9844.0, 9866.0, 9852.0, 9846.0, 9845.0, 9845.0, 9839.0, 9844.0, 9845.0, 9847.0, 9859.0, 9848.0, 9849.0, 9857.0, 9839.0, 9834.0, 9846.0, 9841.0, 9840.0, 9838.0, 9845.0, 9851.0, 9832.0, 9844.0, 9853.0, 9848.0, 9854.0, 9855.0, 9843.0, 9857.0, 9861.0, 9873.0, 9865.0, 9871.0, 9874.0, 9871.0, 9867.0, 9868.0, 9857.0, 9858.0, 9864.0, 9865.0, 9876.0, 9872.0, 9879.0, 9878.0, 9872.0, 9882.0, 9871.0, 9857.0, 9838.0, 9845.0, 9838.0, 9832.0, 9838.0, 9846.0, 9861.0, 9835.0, 9848.0, 9848.0, 9837.0, 9826.0, 9827.0, 9833.0, 9833.0, 9836.0, 9853.0, 9845.0, 9857.0, 9843.0, 9843.0, 9840.0, 9836.0, 9838.0, 9822.0, 9841.0, 9844.0, 9835.0, 9834.0, 9840.0],
      "WindowWidth": [21196.0, 21108.0, 21113.0, 21091.0, 21091.0, 21107.0, 21090.0, 21121.0, 21113.0, 21103.0, 21069.0, 21059.0, 21058.0, 21051.0, 21085.0, 21095.0, 21127.0, 21136.0, 21123.0, 21139.0, 21110.0, 21073.0, 21042.0, 21056.0, 21033.0, 21055.0, 21060.0, 21044.0, 21017.0, 21032.0, 20999.0, 20993.0, 20986.0, 21021.0, 21044.0, 21039.0, 21064.0, 21070.0, 21073.0, 21050.0, 21037.0, 21033.0, 20990.0, 20982.0, 20966.0, 20961.0, 20974.0, 21011.0, 21010.0, 20996.0, 21020.0, 20982.0, 20972.0, 20981.0, 20954.0, 20944.0, 20934.0, 20955.0, 20928.0, 20907.0, 20902.0, 20912.0, 20909.0, 20907.0, 20954.0, 20966.0, 20954.0, 20979.0, 20969.0, 20972.0, 20959.0, 20939.0, 20942.0, 20931.0, 20970.0, 20962.0, 20942.0, 20946.0, 20921.0, 20881.0, 20915.0, 20902.0, 20884.0, 20904.0, 20917.0, 20930.0, 20918.0, 20934.0, 20938.0, 20936.0, 20958.0, 20964.0, 20948.0, 20929.0, 20946.0, 20931.0, 20916.0, 20940.0, 20923.0, 20941.0, 20965.0, 21006.0, 20988.0, 20993.0, 21013.0, 20980.0, 20970.0, 20967.0, 20950.0, 20942.0, 20971.0, 20942.0, 20914.0, 20956.0, 20922.0, 20911.0, 20905.0, 20906.0, 20894.0, 20903.0, 20907.0, 20911.0, 20936.0, 20915.0, 20917.0, 20929.0, 20897.0, 20886.0, 20903.0, 20900.0, 20897.0, 20891.0, 20908.0, 20923.0, 20881.0, 20906.0, 20924.0, 20915.0, 20929.0, 20932.0, 20906.0, 20934.0, 20947.0, 20968.0, 20956.0, 20970.0, 20977.0, 20973.0, 20963.0, 20963.0, 20939.0, 20943.0, 20955.0, 20960.0, 20982.0, 20975.0, 20994.0, 20998.0, 20986.0, 21004.0, 20979.0, 20946.0, 20902.0, 20907.0, 20893.0, 20877.0, 20889.0, 20912.0, 20942.0, 20884.0, 20910.0, 20915.0, 20892.0, 20860.0, 20863.0, 20880.0, 20882.0, 20888.0, 20926.0, 20907.0, 20932.0, 20907.0, 20904.0, 20901.0, 20890.0, 20895.0, 20861.0, 20900.0, 20907.0, 20888.0, 20884.0, 20899.0]
    },
    "slices": {}
  },
  "NumberOfVolumes": 192
}