{
  "AcquisitionMatrixPE": 104,
  "AcquisitionNumber": 1,
  "AcquisitionTime": "12:51:53.540000",
  "BandwidthPerPixelPhaseEncode": 16.297,
  "BaseResolution": 104,
  "BodyPartExamined": "BRAIN",
  "ConsistencyInfo": "N4_VE11C_LATEST_20160120",
  "ConversionSoftware": "dcm2niix",
  "ConversionSoftwareVersion": "v1.0.20190902",
  "DerivedVendorReportedEchoSpacing": 0.000590009,
  "DeviceSerialNumber": "166018",
  "DwellTime": 2.1e-06,
  "EchoTime": 0.0376,
  "EchoTrainLength": 104,
  "EffectiveEchoSpacing": 0.000590009,
  "FlipAngle": 68,
  "ImageComments": "Unaliased_MB6_PE3_LB",
  "ImageOrientationPatientDICOM": [0.997485, 0.0708704, 0.000940899, -0.069576, 0.981626, -0.177681],
  "ImageType": [
    "ORIGINAL",
    "PRIMARY",
    "M",
    "MB",
    "ND",
    "MOSAIC"
],
  "ImagingFrequency": 123.191,
  "InPlanePhaseEncodingDirectionDICOM": "COL",
  "InstitutionAddress": "Washington_Place_6_NYC_NYC_US_10003",
  "InstitutionName": "NYU_-_CBI",
  "InstitutionalDepartmentName": "Department",
  "MRAcquisitionType": "2D",
  "MagneticFieldStrength": 3,
  "Manufacturer": "Siemens",
  "ManufacturersModelName": "Prisma",
  "Modality": "MR",
  "MultibandAccelerationFactor": 6,
  "PartialFourier": 1,
  "PatientPosition": "HFS",
  "PercentPhaseFOV": 100,
  "PhaseEncodingDirection": "j",
  "PhaseEncodingSteps": 104,
  "PhaseResolution": 1,
  "PixelBandwidth": 2290,
  "ProcedureStepDescription": "Investigators_Blessing",
  "ProtocolName": "cmrr_mbepi_s6_2mm_66sl_PA_task-prf",
  "PulseSequenceDetails": "%CustomerSeq%_cmrr_mbep2d_bold",
  "ReceiveCoilActiveElements": "HC1-7",
  "ReceiveCoilName": "HeadNeck_64",
  "ReconMatrixPE": 104,
  "RepetitionTime": 1,
  "SAR": 0.068826,
  "ScanOptions": "FS",
  "ScanningSequence": "EP",
  "SequenceName": "epfid2d1_104",
  "SequenceVariant": "SK_SS",
  "SeriesDescription": "cmrr_mbepi_s6_2mm_66sl_PA_task-prf",
  "SeriesNumber": 24,
  "ShimSetting": [230, -12530, -8417, 659, -123, 53, -236, 65],
  "SliceThickness": 2,
  "SliceTiming": [0, 0.535, 0.0875, 0.6225, 0.1775, 0.7125, 0.2675, 0.8, 0.355, 0.89, 0.445, 0, 0.535, 0.0875, 0.6225, 0.1775, 0.7125, 0.2675, 0.8, 0.355, 0.89, 0.445, 0, 0.535, 0.0875, 0.6225, 0.1775, 0.7125, 0.2675, 0.8, 0.355, 0.89, 0.445, 0, 0.535, 0.0875, 0.6225, 0.1775, 0.7125, 0.2675, 0.8, 0.355, 0.89, 0.445, 0, 0.535, 0.0875, 0.6225, 0.1775, 0.7125, 0.2675, 0.8, 0.355, 0.89, 0.445, 0, 0.535, 0.0875, 0.6225, 0.1775, 0.7125, 0.2675, 0.8, 0.355, 0.89, 0.445],
  "SoftwareVersions": "syngo_MR_E11",
  "SpacingBetweenSlices": 2,
  "StationName": "AWP166018",
  "TaskName": "prf",
  "TotalReadoutTime": 0.060771,
  "TxRefAmp": 230.194,
  "VendorReportedEchoSpacing": 0.00059,
  "WipMemBlock": "91898721-a113-4cf2-8671-a18f4da0d760||Sequence: R016 ve11c/master r/8780670; Nov 27 2017 15:05:12 by eja",
  "dcmmeta_affine": [
    [-1.9949702024459839, -0.13915205001831055, 0.02703181467950344, 113.21038055419922],
    [-0.1417408585548401, 1.9632512331008911, -0.3543364703655243, -62.96363830566406],
    [0.0018817979143932462, 0.35536107420921326, 1.9681755304336548, -66.46185302734375],
    [0.0, 0.0, 0.0, 1.0]
],
  "dcmmeta_reorient_transform": [
    [0.0, -1.0, 0.0, 103.0],
    [1.0, 0.0, 0.0, 0.0],
    [0.0, 0.0, 1.0, 0.0],
    [0.0, 0.0, 0.0, 1.0]
],
  "dcmmeta_shape": [104, 104, 66, 192],
  "dcmmeta_slice_dim": 2,
  "dcmmeta_version": 0.6,
  "global": {
    "const": {
      "AccessionNumber": "kqL6z354",
      "AcquisitionMatrix": [104, 0, 0, 104],
      "AngioFlag": "N",
      "BitsAllocated": 16,
      "BitsStored": 16,
      "BodyPartExamined": "BRAIN",
      "Columns": 936,
      "EchoNumbers": 1,
      "EchoTime": 37.6,
      "EchoTrainLength": 104,
      "FlipAngle": 68.0,
      "HighBit": 15,
      "ImageOrientationPatient": [0.99748508601541, 0.07087043026506, 0.00094089897092, -0.0695760262753, 0.9816255910177, -0.1776805437489],
      "ImagePositionPatient": [-870.89805348545, -1014.9279228781, 117.18772218501],
      "ImageType": [
        "ORIGINAL",
        "PRIMARY",
        "M",
        "MB",
        "ND",
        "MOSAIC"
],
      "ImagedNucleus": "1H",
      "ImagingFrequency": 123.190654,
      "InPlanePhaseEncodingDirection": "COL",
      "MRAcquisitionType": "2D",
      "MagneticFieldStrength": 3.0,
      "Manufacturer": "SIEMENS",
      "ManufacturerModelName": "Prisma",
      "Modality": "MR",
      "NumberOfAverages": 1.0,
      "NumberOfPhaseEncodingSteps": 104,
      "PercentPhaseFieldOfView": 100.0,
      "PercentSampling": 100.0,
      "PerformedProcedureStepStartTime": "120139.460000",
      "PhotometricInterpretation": "MONOCHROME2",
      "PixelBandwidth": 2290.0,
      "PixelRepresentation": 0,
      "PixelSpacing": [2.0, 2.0],
      "ProtocolName": "cmrr_mbepi_s6_2mm_66sl_PA_task-prf",
      "RepetitionTime": 1000.0,
      "Rows": 936,
      "SAR": 0.06882603948902,
      "SamplesPerPixel": 1,
      "ScanOptions": "FS",
      "ScanningSequence": "EP",
      "SequenceName": "epfid2d1_104",
      "SequenceVariant": [
        "SK",
        "SS"
],
      "SeriesDescription": "cmrr_mbepi_s6_2mm_66sl_PA_task-prf",
      "SeriesNumber": 24,
      "SeriesTime": "125322.157000",
      "SliceLocation": -52.719000727401,
      "SliceThickness": 2.0,
      "SmallestImagePixelValue": 0,
      "SoftwareVersions": "syngo MR E11",
      "SpacingBetweenSlices": 2.0000000280231,
      "SpecificCharacterSet": "ISO_IR 100",
      "StudyID": "1",
      "StudyTime": "120139.397000",
      "TransmitCoilName": "Body",
      "VariableFlipAngleFlag": "N",
      "WindowCenterWidthExplanation": "Algo1",
      "dBdt": 0.0},
    "slices": {}
  },
  "time": {
    "samples": {
      "AcquisitionNumber": [1, 2, 3, 4, 5, 6, 7, 8, 9, 10, 11, 12, 13, 14, 15, 16, 17, 18, 19, 20, 21, 22, 23, 24, 25, 26, 27, 28, 29, 30, 31, 32, 33, 34, 35, 36, 37, 38, 39, 40, 41, 42, 43, 44, 45, 46, 47, 48, 49, 50, 51, 52, 53, 54, 55, 56, 57, 58, 59, 60, 61, 62, 63, 64, 65, 66, 67, 68, 69, 70, 71, 72, 73, 74, 75, 76, 77, 78, 79, 80, 81, 82, 83, 84, 85, 86, 87, 88, 89, 90, 91, 92, 93, 94, 95, 96, 97, 98, 99, 100, 101, 102, 103, 104, 105, 106, 107, 108, 109, 110, 111, 112, 113, 114, 115, 116, 117, 118, 119, 120, 121, 122, 123, 124, 125, 126, 127, 128, 129, 130, 131, 132, 133, 134, 135, 136, 137, 138, 139, 140, 141, 142, 143, 144, 145, 146, 147, 148, 149, 150, 151, 152, 153, 154, 155, 156, 157, 158, 159, 160, 161, 162, 163, 164, 165, 166, 167, 168, 169, 170, 171, 172, 173, 174, 175, 176, 177, 178, 179, 180, 181, 182, 183, 184, 185, 186, 187, 188, 189, 190, 191, 192],
      "AcquisitionTime": ["125153.540000", "125154.540000", "125155.540000", "125156.540000", "125157.540000", "125158.540000", "125159.540000", "125200.540000", "125201.540000", "125202.540000", "125203.540000", "125204.540000", "125205.540000", "125206.540000", "125207.540000", "125208.540000", "125209.540000", "125210.540000", "125211.540000", "125212.540000", "125213.540000", "125214.540000", "125215.540000", "125216.540000", "125217.540000", "125218.540000", "125219.540000", "125220.540000", "125221.540000", "125222.540000", "125223.540000", "125224.540000", "125225.540000", "125226.540000", "125227.540000", "125228.540000", "125229.540000", "125230.540000", "125231.540000", "125232.540000", "125233.540000", "125234.540000", "125235.540000", "125236.540000", "125237.540000", "125238.540000", "125239.540000", "125240.540000", "125241.540000", "125242.540000", "125243.540000", "125244.540000", "125245.540000", "125246.540000", "125247.540000", "125248.540000", "125249.540000", "125250.540000", "125251.540000", "125252.540000", "125253.540000", "125254.540000", "125255.540000", "125256.540000", "125257.540000", "125258.540000", "125259.540000", "125300.540000", "125301.540000", "125302.540000", "125303.540000", "125304.540000", "125305.540000", "125306.540000", "125307.540000", "125308.540000", "125309.540000", "125310.540000", "125311.540000", "125312.540000", "125313.540000", "125314.540000", "125315.540000", "125316.540000", "125317.540000", "125318.540000", "125319.540000", "125320.540000", "125321.540000", "125322.540000", "125323.540000", "125324.540000", "125325.540000", "125326.540000", "125327.540000", "125328.540000", "125329.540000", "125330.540000", "125331.540000", "125332.540000", "125333.540000", "125334.540000", "125335.540000", "125336.540000", "125337.540000", "125338.540000", "125339.540000", "125340.540000", "125341.540000", "125342.540000", "125343.540000", "125344.540000", "125345.540000", "125346.540000", "125347.540000", "125348.540000", "125349.540000", "125350.540000", "125351.540000", "125352.540000", "125353.540000", "125354.540000", "125355.540000", "125356.540000", "125357.540000", "125358.540000", "125359.540000", "125400.540000", "125401.540000", "125402.540000", "125403.540000", "125404.540000", "125405.540000", "125406.540000", "125407.540000", "125408.540000", "125409.540000", "125410.540000", "125411.540000", "125412.540000", "125413.540000", "125414.540000", "125415.540000", "125416.540000", "125417.540000", "125418.540000", "125419.540000", "125420.540000", "125421.540000", "125422.540000", "125423.540000", "125424.540000", "125425.540000", "125426.540000", "125427.540000", "125428.540000", "125429.540000", "125430.540000", "125431.540000", "125432.540000", "125433.540000", "125434.540000", "125435.540000", "125436.540000", "125437.540000", "125438.540000", "125439.540000", "125440.540000", "125441.540000", "125442.540000", "125443.540000", "125444.540000", "125445.540000", "125446.540000", "125447.540000", "125448.540000", "125449.540000", "125450.540000", "125451.540000", "125452.540000", "125453.540000", "125454.540000", "125455.540000", "125456.540000", "125457.540000", "125458.540000", "125459.540000", "125500.540000", "125501.540000", "125502.540000", "125503.540000", "125504.540000"],
      "ContentTime": ["125322.160000", "125322.164000", "125322.182000", "125322.185000", "125322.188000", "125322.191000", "125322.194000", "125322.197000", "125322.200000", "125322.203000", "125322.206000", "125322.209000", "125322.212000", "125322.215000", "125322.218000", "125322.221000", "125322.224000", "125322.227000", "125322.231000", "125322.234000", "125322.236000", "125322.239000", "125322.242000", "125322.245000", "125322.248000", "125322.251000", "125322.254000", "125322.257000", "125322.260000", "125322.263000", "125322.266000", "125322.269000", "125322.272000", "125322.275000", "125322.278000", "125322.281000", "125322.284000", "125322.287000", "125322.290000", "125322.293000", "125322.296000", "125322.299000", "125322.302000", "125322.305000", "125322.308000", "125322.311000", "125342.126000", "125342.129000", "125342.136000", "125342.139000", "125342.142000", "125342.145000", "125342.148000", "125342.151000", "125342.154000", "125342.157000", "125342.160000", "125342.163000", "125342.166000", "125342.169000", "125342.171000", "125342.175000", "125342.178000", "125342.180000", "125342.183000", "125342.187000", "125342.190000", "125342.192000", "125342.195000", "125342.198000", "125342.201000", "125342.204000", "125342.207000", "125342.211000", "125342.213000", "125402.126000", "125402.129000", "125402.132000", "125402.135000", "125402.138000", "125402.141000", "125402.144000", "125402.147000", "125402.150000", "125402.153000", "125402.156000", "125402.159000", "125402.162000", "125402.165000", "125402.168000", "125402.171000", "125402.174000", "125402.177000", "125402.180000", "125402.183000", "125402.186000", "125402.189000", "125402.192000", "125402.195000", "125402.198000", "125402.201000", "125402.205000", "125402.208000", "125422.126000", "125422.129000", "125422.132000", "125422.135000", "125422.138000", "125422.141000", "125422.144000", "125422.147000", "125422.150000", "125422.153000", "125422.156000", "125422.159000", "125422.162000", "125422.165000", "125422.168000", "125422.171000", "125422.174000", "125422.177000", "125422.180000", "125422.183000", "125422.186000", "125422.189000", "125422.192000", "125422.195000", "125422.198000", "125422.201000", "125422.203000", "125422.206000", "125422.210000", "125442.126000", "125442.129000", "125442.132000", "125442.135000", "125442.138000", "125442.141000", "125442.144000", "125442.147000", "125442.150000", "125442.153000", "125442.156000", "125442.159000", "125442.162000", "125442.165000", "125442.168000", "125442.171000", "125442.174000", "125442.177000", "125442.180000", "125442.183000", "125442.186000", "125442.189000", "125442.192000", "125442.195000", "125442.198000", "125442.201000", "125442.204000", "125442.207000", "125502.125000", "125502.128000", "125502.131000", "125502.134000", "125502.137000", "125502.140000", "125502.143000", "125502.146000", "125502.149000", "125502.152000", "125502.155000", "125502.158000", "125502.161000", "125502.164000", "125502.167000", "125502.173000", "125502.176000", "125502.179000", "125502.182000", "125502.185000", "125502.188000", "125502.191000", "125502.194000", "125502.197000", "125502.200000", "125502.203000", "125502.206000", "125502.209000", "125505.917000", "125505.921000", "125505.924000", "125505.936000"],
      "InstanceCreationTime": ["125322.160000", "125322.164000", "125322.182000", "125322.185000", "125322.188000", "125322.191000", "125322.194000", "125322.197000", "125322.200000", "125322.203000", "125322.206000", "125322.209000", "125322.212000", "125322.215000", "125322.218000", "125322.221000", "125322.224000", "125322.227000", "125322.231000", "125322.234000", "125322.236000", "125322.239000", "125322.242000", "125322.245000", "125322.248000", "125322.251000", "125322.254000", "125322.257000", "125322.260000", "125322.263000", "125322.266000", "125322.269000", "125322.272000", "125322.275000", "125322.278000", "125322.281000", "125322.284000", "125322.287000", "125322.290000", "125322.293000", "125322.296000", "125322.299000", "125322.302000", "125322.305000", "125322.308000", "125322.311000", "125342.126000", "125342.129000", "125342.136000", "125342.139000", "125342.142000", "125342.145000", "125342.148000", "125342.151000", "125342.154000", "125342.157000", "125342.160000", "125342.163000", "125342.166000", "125342.169000", "125342.171000", "125342.175000", "125342.178000", "125342.180000", "125342.183000", "125342.187000", "125342.190000", "125342.192000", "125342.195000", "125342.198000", "125342.201000", "125342.204000", "125342.207000", "125342.211000", "125342.213000", "125402.126000", "125402.129000", "125402.132000", "125402.135000", "125402.138000", "125402.141000", "125402.144000", "125402.147000", "125402.150000", "125402.153000", "125402.156000", "125402.159000", "125402.162000", "125402.165000", "125402.168000", "125402.171000", "125402.174000", "125402.177000", "125402.180000", "125402.183000", "125402.186000", "125402.189000", "125402.192000", "125402.195000", "125402.198000", "125402.201000", "125402.205000", "125402.208000", "125422.126000", "125422.129000", "125422.132000", "125422.135000", "125422.138000", "125422.141000", "125422.144000", "125422.147000", "125422.150000", "125422.153000", "125422.156000", "125422.159000", "125422.162000", "125422.165000", "125422.168000", "125422.171000", "125422.174000", "125422.177000", "125422.180000", "125422.183000", "125422.186000", "125422.189000", "125422.192000", "125422.195000", "125422.198000", "125422.201000", "125422.203000", "125422.206000", "125422.210000", "125442.126000", "125442.129000", "125442.132000", "125442.135000", "125442.138000", "125442.141000", "125442.144000", "125442.147000", "125442.150000", "125442.153000", "125442.156000", "125442.159000", "125442.162000", "125442.165000", "125442.168000", "125442.171000", "125442.174000", "125442.177000", "125442.180000", "125442.183000", "125442.186000", "125442.189000", "125442.192000", "125442.195000", "125442.198000", "125442.201000", "125442.204000", "125442.207000", "125502.125000", "125502.128000", "125502.131000", "125502.134000", "125502.137000", "125502.140000", "125502.143000", "125502.146000", "125502.149000", "125502.152000", "125502.155000", "125502.158000", "125502.161000", "125502.164000", "125502.167000", "125502.173000", "125502.176000", "125502.179000", "125502.182000", "125502.185000", "125502.188000", "125502.191000", "125502.194000", "125502.197000", "125502.200000", "125502.203000", "125502.206000", "125502.209000", "125505.917000", "125505.921000", "125505.924000", "125505.936000"],
      "InstanceNumber": [1, 2, 3, 4, 5, 6, 7, 8, 9, 10, 11, 12, 13, 14, 15, 16, 17, 18, 19, 20, 21, 22, 23, 24, 25, 26, 27, 28, 29, 30, 31, 32, 33, 34, 35, 36, 37, 38, 39, 40, 41, 42, 43, 44, 45, 46, 47, 48, 49, 50, 51, 52, 53, 54, 55, 56, 57, 58, 59, 60, 61, 62, 63, 64, 65, 66, 67, 68, 69, 70, 71, 72, 73, 74, 75, 76, 77, 78, 79, 80, 81, 82, 83, 84, 85, 86, 87, 88, 89, 90, 91, 92, 93, 94, 95, 96, 97, 98, 99, 100, 101, 102, 103, 104, 105, 106, 107, 108, 109, 110, 111, 112, 113, 114, 115, 116, 117, 118, 119, 120, 121, 122, 123, 124, 125, 126, 127, 128, 129, 130, 131, 132, 133, 134, 135, 136, 137, 138, 139, 140, 141, 142, 143, 144, 145, 146, 147, 148, 149, 150, 151, 152, 153, 154, 155, 156, 157, 158, 159, 160, 161, 162, 163, 164, 165, 166, 167, 168, 169, 170, 171, 172, 173, 174, 175, 176, 177, 178, 179, 180, 181, 182, 183, 184, 185, 186, 187, 188, 189, 190, 191, 192],
      "LargestImagePixelValue": [35041, 34950, 34059, 33531, 33961, 33629, 33399, 33662, 33695, 33806, 33456, 33782, 33408, 33936, 33627, 33936, 33948, 34135, 33982, 33734, 34072, 34237, 33766, 34106, 33668, 33880, 34180, 34214, 34364, 34172, 33807, 33895, 33699, 33521, 33494, 33479, 33133, 33757, 33784, 33237, 34342, 33639, 33522, 33726, 33960, 33113, 33227, 33608, 33306, 33305, 33430, 33505, 33442, 32925, 33477, 33862, 33272, 33708, 33645, 32672, 33435, 33292, 33021, 33493, 32935, 33825, 33594, 33679, 33178, 32878, 33517, 32868, 33513, 34208, 33344, 33519, 33740, 33625, 33474, 33636, 33116, 32408, 33066, 32867, 33010, 32488, 33334, 33118, 33093, 33236, 33435, 33184, 33363, 33608, 33634, 33317, 33566, 33508, 33066, 33605, 33583, 33736, 33426, 34089, 34166, 32730, 33648, 33573, 33169, 33356, 32943, 33926, 33735, 33786, 33754, 33065, 33528, 33373, 33050, 32512, 33002, 33180, 33252, 32999, 33112, 33266, 32929, 33160, 32856, 33031, 33433, 32413, 33446, 33184, 32818, 33337, 32821, 32493, 33085, 32389, 33238, 33189, 32338, 33486, 33497, 33272, 32507, 32129, 32260, 32612, 32812, 33239, 32773, 31790, 32180, 32160, 32031, 32590, 31868, 31625, 32931, 32938, 31992, 32849, 31705, 32211, 32281, 31876, 33258, 31784, 32383, 32095, 33171, 32234, 32606, 32145, 32594, 32864, 31789, 32159, 32208, 33473, 33349, 32731, 32147, 33107, 32106, 32121, 32604, 33268, 32674, 32343],
      "WindowCenter": [9879.0, 9873.0, 9843.0, 9837.0, 9824.0, 9813.0, 9792.0, 9788.0, 9790.0, 9787.0, 9782.0, 9800.0, 9798.0, 9802.0, 9807.0, 9805.0, 9796.0, 9803.0, 9796.0, 9784.0, 9795.0, 9788.0, 9779.0, 9778.0, 9782.0, 9787.0, 9795.0, 9795.0, 9794.0, 9792.0, 9788.0, 9787.0, 9781.0, 9782.0, 9779.0, 9782.0, 9781.0, 9793.0, 9808.0, 9809.0, 9820.0, 9810.0, 9793.0, 9789.0, 9787.0, 9770.0, 9776.0, 9771.0, 9766.0, 9774.0, 9775.0, 9781.0, 9794.0, 9788.0, 9787.0, 9793.0, 9789.0, 9788.0, 9791.0, 9781.0, 9790.0, 9795.0, 9795.0, 9801.0, 9801.0, 9805.0, 9804.0, 9802.0, 9793.0, 9786.0, 9781.0, 9780.0, 9789.0, 9790.0, 9795.0, 9798.0, 9802.0, 9810.0, 9815.0, 9830.0, 9821.0, 9803.0, 9812.0, 9799.0, 9793.0, 9800.0, 9820.0, 9822.0, 9825.0, 9825.0, 9814.0, 9816.0, 9804.0, 9807.0, 9804.0, 9808.0, 9810.0, 9809.0, 9818.0, 9833.0, 9841.0, 9854.0, 9845.0, 9848.0, 9845.0, 9819.0, 9829.0, 9839.0, 9840.0, 9840.0, 9836.0, 9853.0, 9839.0, 9825.0, 9807.0, 9788.0, 9792.0, 9788.0, 9789.0, 9776.0, 9778.0, 9778.0, 9770.0, 9775.0, 9791.0, 9793.0, 9795.0, 9806.0, 9807.0, 9816.0, 9816.0, 9808.0, 9822.0, 9817.0, 9800.0, 9798.0, 9800.0, 9801.0, 9816.0, 9810.0, 9818.0, 9833.0, 9811.0, 9820.0, 9828.0, 9826.0, 9829.0, 9818.0, 9822.0, 9821.0, 9827.0, 9832.0, 9821.0, 9807.0, 9809.0, 9815.0, 9807.0, 9821.0, 9816.0, 9811.0, 9827.0, 9845.0, 9825.0, 9846.0, 9829.0, 9840.0, 9840.0, 9842.0, 9867.0, 9845.0, 9851.0, 9828.0, 9843.0, 9832.0, 9837.0, 9838.0, 9837.0, 9834.0, 9807.0, 9797.0, 9807.0, 9835.0, 9836.0, 9832.0, 9808.0, 9816.0, 9792.0, 9794.0, 9789.0, 9800.0, 9799.0, 9797.0],
      "WindowWidth": [21003.0, 20975.0, 20905.0, 20888.0, 20854.0, 20833.0, 20783.0, 20769.0, 20775.0, 20768.0, 20760.0, 20797.0, 20795.0, 20803.0, 20818.0, 20809.0, 20791.0, 20805.0, 20789.0, 20765.0, 20782.0, 20766.0, 20747.0, 20747.0, 20757.0, 20763.0, 20785.0, 20782.0, 20780.0, 20775.0, 20767.0, 20767.0, 20755.0, 20756.0, 20750.0, 20758.0, 20754.0, 20787.0, 20818.0, 20820.0, 20842.0, 20820.0, 20780.0, 20770.0, 20760.0, 20729.0, 20740.0, 20729.0, 20719.0, 20735.0, 20739.0, 20749.0, 20784.0, 20772.0, 20764.0, 20776.0, 20768.0, 20767.0, 20773.0, 20756.0, 20775.0, 20785.0, 20788.0, 20801.0, 20803.0, 20810.0, 20811.0, 20803.0, 20785.0, 20768.0, 20756.0, 20753.0, 20768.0, 20772.0, 20786.0, 20791.0, 20803.0, 20821.0, 20830.0, 20870.0, 20849.0, 20812.0, 20830.0, 20800.0, 20787.0, 20803.0, 20847.0, 20853.0, 20859.0, 20858.0, 20831.0, 20837.0, 20806.0, 20812.0, 20808.0, 20813.0, 20820.0, 20819.0, 20844.0, 20873.0, 20893.0, 20923.0, 20902.0, 20906.0, 20902.0, 20851.0, 20869.0, 20892.0, 20896.0, 20896.0, 20886.0, 20920.0, 20890.0, 20856.0, 20817.0, 20773.0, 20779.0, 20765.0, 20769.0, 20746.0, 20744.0, 20743.0, 20726.0, 20736.0, 20778.0, 20782.0, 20788.0, 20816.0, 20815.0, 20840.0, 20837.0, 20823.0, 20852.0, 20842.0, 20802.0, 20795.0, 20801.0, 20805.0, 20840.0, 20830.0, 20843.0, 20876.0, 20832.0, 20844.0, 20862.0, 20861.0, 20867.0, 20848.0, 20859.0, 20855.0, 20864.0, 20871.0, 20852.0, 20826.0, 20828.0, 20840.0, 20824.0, 20851.0, 20841.0, 20834.0, 20868.0, 20907.0, 20866.0, 20910.0, 20876.0, 20896.0, 20895.0, 20901.0, 20953.0, 20912.0, 20921.0, 20872.0, 20897.0, 20880.0, 20889.0, 20895.0, 20885.0, 20875.0, 20823.0, 20794.0, 20820.0, 20875.0, 20879.0, 20873.0, 20825.0, 20834.0, 20788.0, 20790.0, 20779.0, 20800.0, 20801.0, 20794.0]
    },
    "slices": {}
  },
  "NumberOfVolumes": 192
}