{
  "AcquisitionMatrixPE": 104,
  "AcquisitionNumber": 1,
  "AcquisitionTime": "12:56:1.307500",
  "BandwidthPerPixelPhaseEncode": 16.297,
  "BaseResolution": 104,
  "BodyPartExamined": "BRAIN",
  "ConsistencyInfo": "N4_VE11C_LATEST_20160120",
  "ConversionSoftware": "dcm2niix",
  "ConversionSoftwareVersion": "v1.0.20210317",
  "DerivedVendorReportedEchoSpacing": 0.000590009,
  "DeviceSerialNumber": "166018",
  "DwellTime": 2.1e-06,
  "EchoTime": 0.0376,
  "EchoTrainLength": 104,
  "EffectiveEchoSpacing": 0.000590009,
  "FlipAngle": 68,
  "ImageComments": "Unaliased MB6/PE3/LB",
  "ImageOrientationPatientDICOM": [0.992679, 0.106924, -0.0561704, -0.119952, 0.927158, -0.354949],
  "ImageType": [
    "ORIGINAL",
    "PRIMARY",
    "M",
    "MB",
    "ND",
    "MOSAIC"
],
  "ImagingFrequency": 123.197,
  "InPlanePhaseEncodingDirectionDICOM": "COL",
  "InstitutionAddress": "Washington Place 6,NYC,NYC,US,10003",
  "InstitutionName": "NYU - CBI",
  "InstitutionalDepartmentName": "Department",
  "MRAcquisitionType": "2D",
  "MagneticFieldStrength": 3,
  "Manufacturer": "Siemens",
  "ManufacturersModelName": "Prisma",
  "Modality": "MR",
  "MultibandAccelerationFactor": 6,
  "PartialFourier": 1,
  "PatientPosition": "HFS",
  "PercentPhaseFOV": 100,
  "PercentSampling": 100,
  "PhaseEncodingDirection": "j",
  "PhaseEncodingSteps": 104,
  "PhaseResolution": 1,
  "PixelBandwidth": 2290,
  "ProcedureStepDescription": "Investigators^Winawer",
  "ProtocolName": "cmrr_mbepi_s6_2mm_66sl_PA_task-wedgering1",
  "PulseSequenceDetails": "%CustomerSeq%\\cmrr_mbep2d_bold",
  "ReceiveCoilActiveElements": "HC1-7",
  "ReceiveCoilName": "HeadNeck_64",
  "ReconMatrixPE": 104,
  "RepetitionTime": 1,
  "SAR": 0.085959,
  "ScanOptions": "FS",
  "ScanningSequence": "EP",
  "SequenceName": "epfid2d1_104",
  "SequenceVariant": "SK\\SS",
  "SeriesDescription": "cmrr_mbepi_s6_2mm_66sl_PA_task-wedgering1",
  "SeriesNumber": 10,
  "ShimSetting": [281, -12619, -8465, 287, 10, -66, -170, 93],
  "SliceThickness": 2,
  "SliceTiming": [0, 0.5325, 0.0875, 0.6225, 0.1775, 0.7125, 0.2675, 0.8, 0.355, 0.89, 0.445, 0, 0.5325, 0.0875, 0.6225, 0.1775, 0.7125, 0.2675, 0.8, 0.355, 0.89, 0.445, 0, 0.5325, 0.0875, 0.6225, 0.1775, 0.7125, 0.2675, 0.8, 0.355, 0.89, 0.445, 0, 0.5325, 0.0875, 0.6225, 0.1775, 0.7125, 0.2675, 0.8, 0.355, 0.89, 0.445, 0, 0.5325, 0.0875, 0.6225, 0.1775, 0.7125, 0.2675, 0.8, 0.355, 0.89, 0.445, 0, 0.5325, 0.0875, 0.6225, 0.1775, 0.7125, 0.2675, 0.8, 0.355, 0.89, 0.445],
  "SoftwareVersions": "syngo MR E11",
  "SpacingBetweenSlices": 2,
  "StationName": "AWP166018",
  "TaskName": "wedgering1",
  "TotalReadoutTime": 0.060771,
  "TxRefAmp": 237.072,
  "VendorReportedEchoSpacing": 0.00059,
  "WipMemBlock": "94adc5df-715d-4701-b098-1f843e8c4d74||Sequence: R016 ve11c/master r/8780670; Nov 27 2017 15:05:12 by eja",
  "dcmmeta_affine": [
    [-1.985358476638794, -0.23990318179130554, -0.02825227752327919, 118.57012176513672],
    [-0.21384871006011963, 1.8543167114257812, -0.7181769013404846, -46.655208587646484],
    [-0.11234080046415329, 0.7098984718322754, 1.8663933277130127, -63.47893142700195],
    [0.0, 0.0, 0.0, 1.0]
],
  "dcmmeta_reorient_transform": [
    [0.0, -1.0, 0.0, 103.0],
    [1.0, 0.0, 0.0, 0.0],
    [0.0, 0.0, 1.0, 0.0],
    [0.0, 0.0, 0.0, 1.0]
],
  "dcmmeta_shape": [104, 104, 66, 300],
  "dcmmeta_slice_dim": 2,
  "dcmmeta_version": 0.6,
  "global": {
    "const": {
      "AccessionNumber": "Lep9m76j",
      "AcquisitionMatrix": [104, 0, 0, 104],
      "AngioFlag": "N",
      "BitsAllocated": 16,
      "BitsStored": 16,
      "BodyPartExamined": "BRAIN",
      "Columns": 936,
      "EchoNumbers": 1,
      "EchoTime": 37.6,
      "EchoTrainLength": 104,
      "FlipAngle": 68.0,
      "HighBit": 15,
      "ImageOrientationPatient": [0.99267923716399, 0.10692435809413, -0.0561703992303, -0.1199515915464, 0.92715838134908, -0.3549492239457],
      "ImagePositionPatient": [-819.96949205623, -1004.6962553676, 351.69213401022],
      "ImageType": [
        "ORIGINAL",
        "PRIMARY",
        "M",
        "MB",
        "ND",
        "MOSAIC"
],
      "ImagedNucleus": "1H",
      "ImagingFrequency": 123.196797,
      "InPlanePhaseEncodingDirection": "COL",
      "MRAcquisitionType": "2D",
      "MagneticFieldStrength": 3.0,
      "Manufacturer": "SIEMENS",
      "ManufacturerModelName": "Prisma",
      "Modality": "MR",
      "NumberOfAverages": 1.0,
      "NumberOfPhaseEncodingSteps": 104,
      "PercentPhaseFieldOfView": 100.0,
      "PercentSampling": 100.0,
      "PerformedProcedureStepStartTime": "123454.739000",
      "PhotometricInterpretation": "MONOCHROME2",
      "PixelBandwidth": 2290.0,
      "PixelRepresentation": 0,
      "PixelSpacing": [2.0, 2.0],
      "ProtocolName": "cmrr_mbepi_s6_2mm_66sl_PA_task-wedgering1",
      "RepetitionTime": 1000.0,
      "Rows": 936,
      "SAR": 0.08595903136871,
      "SamplesPerPixel": 1,
      "ScanOptions": "FS",
      "ScanningSequence": "EP",
      "SequenceName": "epfid2d1_104",
      "SequenceVariant": [
        "SK",
        "SS"
],
      "SeriesDescription": "cmrr_mbepi_s6_2mm_66sl_PA_task-wedgering1",
      "SeriesNumber": 10,
      "SeriesTime": "125700.675000",
      "SliceLocation": -44.159916013839,
      "SliceThickness": 2.0,
      "SmallestImagePixelValue": 0,
      "SoftwareVersions": "syngo MR E11",
      "SpacingBetweenSlices": 2.0000000372749,
      "SpecificCharacterSet": "ISO_IR 100",
      "StudyID": "1",
      "StudyTime": "123454.580000",
      "TransmitCoilName": "Body",
      "VariableFlipAngleFlag": "N",
      "WindowCenterWidthExplanation": "Algo1",
      "dBdt": 0.0},
    "slices": {}
  },
  "time": {
    "samples": {
      "AcquisitionNumber": [1, 2, 3, 4, 5, 6, 7, 8, 9, 10, 11, 12, 13, 14, 15, 16, 17, 18, 19, 20, 21, 22, 23, 24, 25, 26, 27, 28, 29, 30, 31, 32, 33, 34, 35, 36, 37, 38, 39, 40, 41, 42, 43, 44, 45, 46, 47, 48, 49, 50, 51, 52, 53, 54, 55, 56, 57, 58, 59, 60, 61, 62, 63, 64, 65, 66, 67, 68, 69, 70, 71, 72, 73, 74, 75, 76, 77, 78, 79, 80, 81, 82, 83, 84, 85, 86, 87, 88, 89, 90, 91, 92, 93, 94, 95, 96, 97, 98, 99, 100, 101, 102, 103, 104, 105, 106, 107, 108, 109, 110, 111, 112, 113, 114, 115, 116, 117, 118, 119, 120, 121, 122, 123, 124, 125, 126, 127, 128, 129, 130, 131, 132, 133, 134, 135, 136, 137, 138, 139, 140, 141, 142, 143, 144, 145, 146, 147, 148, 149, 150, 151, 152, 153, 154, 155, 156, 157, 158, 159, 160, 161, 162, 163, 164, 165, 166, 167, 168, 169, 170, 171, 172, 173, 174, 175, 176, 177, 178, 179, 180, 181, 182, 183, 184, 185, 186, 187, 188, 189, 190, 191, 192, 193, 194, 195, 196, 197, 198, 199, 200, 201, 202, 203, 204, 205, 206, 207, 208, 209, 210, 211, 212, 213, 214, 215, 216, 217, 218, 219, 220, 221, 222, 223, 224, 225, 226, 227, 228, 229, 230, 231, 232, 233, 234, 235, 236, 237, 238, 239, 240, 241, 242, 243, 244, 245, 246, 247, 248, 249, 250, 251, 252, 253, 254, 255, 256, 257, 258, 259, 260, 261, 262, 263, 264, 265, 266, 267, 268, 269, 270, 271, 272, 273, 274, 275, 276, 277, 278, 279, 280, 281, 282, 283, 284, 285, 286, 287, 288, 289, 290, 291, 292, 293, 294, 295, 296, 297, 298, 299, 300],
      "AcquisitionTime": ["125601.307500", "125602.307500", "125603.307500", "125604.307500", "125605.307500", "125606.307500", "125607.307500", "125608.307500", "125609.307500", "125610.307500", "125611.307500", "125612.307500", "125613.307500", "125614.307500", "125615.307500", "125616.307500", "125617.307500", "125618.307500", "125619.307500", "125620.307500", "125621.307500", "125622.307500", "125623.307500", "125624.307500", "125625.307500", "125626.307500", "125627.307500", "125628.307500", "125629.307500", "125630.307500", "125631.307500", "125632.307500", "125633.307500", "125634.307500", "125635.307500", "125636.307500", "125637.307500", "125638.307500", "125639.307500", "125640.307500", "125641.307500", "125642.307500", "125643.307500", "125644.307500", "125645.307500", "125646.307500", "125647.307500", "125648.307500", "125649.307500", "125650.307500", "125651.307500", "125652.307500", "125653.307500", "125654.307500", "125655.307500", "125656.307500", "125657.307500", "125658.307500", "125659.307500", "125700.307500", "125701.307500", "125702.307500", "125703.307500", "125704.307500", "125705.307500", "125706.307500", "125707.307500", "125708.307500", "125709.307500", "125710.307500", "125711.307500", "125712.307500", "125713.307500", "125714.307500", "125715.307500", "125716.307500", "125717.307500", "125718.307500", "125719.307500", "125720.307500", "125721.307500", "125722.307500", "125723.307500", "125724.307500", "125725.307500", "125726.307500", "125727.307500", "125728.307500", "125729.307500", "125730.307500", "125731.307500", "125732.307500", "125733.307500", "125734.307500", "125735.307500", "125736.307500", "125737.307500", "125738.307500", "125739.307500", "125740.307500", "125741.307500", "125742.307500", "125743.307500", "125744.307500", "125745.307500", "125746.307500", "125747.307500", "125748.307500", "125749.307500", "125750.307500", "125751.307500", "125752.307500", "125753.307500", "125754.307500", "125755.307500", "125756.307500", "125757.307500", "125758.307500", "125759.307500", "125800.307500", "125801.307500", "125802.307500", "125803.307500", "125804.307500", "125805.307500", "125806.307500", "125807.307500", "125808.307500", "125809.307500", "125810.307500", "125811.307500", "125812.307500", "125813.307500", "125814.307500", "125815.307500", "125816.307500", "125817.307500", "125818.307500", "125819.307500", "125820.307500", "125821.307500", "125822.307500", "125823.307500", "125824.307500", "125825.307500", "125826.307500", "125827.307500", "125828.307500", "125829.307500", "125830.307500", "125831.307500", "125832.307500", "125833.307500", "125834.307500", "125835.307500", "125836.307500", "125837.307500", "125838.307500", "125839.307500", "125840.307500", "125841.307500", "125842.307500", "125843.307500", "125844.307500", "125845.307500", "125846.307500", "125847.307500", "125848.307500", "125849.307500", "125850.307500", "125851.307500", "125852.307500", "125853.307500", "125854.307500", "125855.307500", "125856.307500", "125857.307500", "125858.307500", "125859.307500", "125900.307500", "125901.307500", "125902.307500", "125903.307500", "125904.307500", "125905.307500", "125906.307500", "125907.307500", "125908.307500", "125909.307500", "125910.307500", "125911.307500", "125912.307500", "125913.307500", "125914.307500", "125915.307500", "125916.307500", "125917.307500", "125918.307500", "125919.307500", "125920.307500", "125921.307500", "125922.307500", "125923.307500", "125924.307500", "125925.307500", "125926.307500", "125927.307500", "125928.307500", "125929.307500", "125930.307500", "125931.307500", "125932.307500", "125933.307500", "125934.307500", "125935.307500", "125936.307500", "125937.307500", "125938.307500", "125939.307500", "125940.307500", "125941.307500", "125942.307500", "125943.307500", "125944.307500", "125945.307500", "125946.307500", "125947.307500", "125948.307500", "125949.307500", "125950.307500", "125951.307500", "125952.307500", "125953.307500", "125954.307500", "125955.307500", "125956.307500", "125957.307500", "125958.307500", "125959.307500", "130000.307500", "130001.307500", "130002.307500", "130003.307500", "130004.307500", "130005.307500", "130006.307500", "130007.307500", "130008.307500", "130009.307500", "130010.307500", "130011.307500", "130012.307500", "130013.307500", "130014.307500", "130015.307500", "130016.307500", "130017.307500", "130018.307500", "130019.307500", "130020.307500", "130021.307500", "130022.307500", "130023.307500", "130024.307500", "130025.307500", "130026.307500", "130027.307500", "130028.307500", "130029.307500", "130030.307500", "130031.307500", "130032.307500", "130033.307500", "130034.307500", "130035.307500", "130036.307500", "130037.307500", "130038.307500", "130039.307500", "130040.307500", "130041.307500", "130042.307500", "130043.307500", "130044.307500", "130045.307500", "130046.307500", "130047.307500", "130048.307500", "130049.307500", "130050.307500", "130051.307500", "130052.307500", "130053.307500", "130054.307500", "130055.307500", "130056.307500", "130057.307500", "130058.307500", "130059.307500", "130100.307500"],
      "ContentTime": ["125700.677000", "125700.681000", "125700.684000", "125700.687000", "125700.702000", "125700.705000", "125700.708000", "125700.711000", "125700.714000", "125700.717000", "125700.720000", "125700.723000", "125700.726000", "125720.646000", "125720.654000", "125720.657000", "125720.660000", "125720.663000", "125720.666000", "125720.669000", "125720.672000", "125720.675000", "125720.678000", "125720.682000", "125720.685000", "125720.688000", "125720.691000", "125720.694000", "125720.697000", "125720.700000", "125720.703000", "125720.706000", "125720.709000", "125720.712000", "125720.715000", "125720.718000", "125720.721000", "125720.724000", "125720.727000", "125720.730000", "125720.733000", "125720.736000", "125740.646000", "125740.649000", "125740.652000", "125740.655000", "125740.658000", "125740.661000", "125740.664000", "125740.667000", "125740.670000", "125740.673000", "125740.677000", "125740.680000", "125740.683000", "125740.686000", "125740.689000", "125740.692000", "125740.710000", "125740.713000", "125740.716000", "125740.719000", "125740.722000", "125740.725000", "125740.728000", "125740.731000", "125740.734000", "125740.737000", "125740.740000", "125740.743000", "125800.646000", "125800.649000", "125800.652000", "125800.655000", "125800.658000", "125800.661000", "125800.664000", "125800.667000", "125800.670000", "125800.673000", "125800.676000", "125800.679000", "125800.682000", "125800.685000", "125800.689000", "125800.692000", "125800.695000", "125800.698000", "125800.701000", "125800.704000", "125800.707000", "125800.710000", "125800.713000", "125800.716000", "125800.719000", "125800.722000", "125800.725000", "125800.728000", "125800.731000", "125820.646000", "125820.649000", "125820.652000", "125820.655000", "125820.658000", "125820.661000", "125820.664000", "125820.667000", "125820.670000", "125820.673000", "125820.676000", "125820.679000", "125820.683000", "125820.686000", "125820.689000", "125820.692000", "125820.695000", "125820.698000", "125820.701000", "125820.704000", "125820.707000", "125820.710000", "125820.713000", "125820.716000", "125820.719000", "125820.722000", "125820.725000", "125820.728000", "125840.647000", "125840.650000", "125840.653000", "125840.656000", "125840.659000", "125840.663000", "125840.666000", "125840.669000", "125840.672000", "125840.675000", "125840.678000", "125840.681000", "125840.684000", "125840.687000", "125840.690000", "125840.693000", "125840.696000", "125840.699000", "125840.702000", "125840.705000", "125840.708000", "125840.711000", "125840.714000", "125840.717000", "125840.720000", "125840.723000", "125840.727000", "125840.730000", "125900.647000", "125900.650000", "125900.653000", "125900.657000", "125900.660000", "125900.663000", "125900.666000", "125900.669000", "125900.672000", "125900.675000", "125900.678000", "125900.681000", "125900.685000", "125900.688000", "125900.707000", "125900.710000", "125900.713000", "125900.716000", "125900.719000", "125900.722000", "125900.725000", "125900.728000", "125900.732000", "125920.647000", "125920.650000", "125920.653000", "125920.656000", "125920.659000", "125920.662000", "125920.666000", "125920.669000", "125920.672000", "125920.675000", "125920.678000", "125920.681000", "125920.684000", "125920.687000", "125920.690000", "125920.693000", "125920.696000", "125920.699000", "125920.702000", "125920.705000", "125940.646000", "125940.649000", "125940.652000", "125940.655000", "125940.658000", "125940.661000", "125940.664000", "125940.668000", "125940.671000", "125940.674000", "125940.677000", "125940.680000", "125940.683000", "125940.686000", "125940.689000", "125940.692000", "125940.695000", "125940.698000", "125940.701000", "125940.709000", "130000.646000", "130000.649000", "130000.652000", "130000.655000", "130000.658000", "130000.661000", "130000.664000", "130000.668000", "130000.671000", "130000.674000", "130000.677000", "130000.680000", "130000.683000", "130000.686000", "130000.689000", "130000.692000", "130000.695000", "130000.698000", "130000.701000", "130000.704000", "130020.646000", "130020.649000", "130020.652000", "130020.655000", "130020.659000", "130020.662000", "130020.665000", "130020.668000", "130020.671000", "130020.674000", "130020.677000", "130020.680000", "130020.683000", "130020.686000", "130020.689000", "130020.692000", "130020.695000", "130020.698000", "130020.701000", "130020.704000", "130040.646000", "130040.649000", "130040.652000", "130040.655000", "130040.658000", "130040.661000", "130040.664000", "130040.667000", "130040.671000", "130040.674000", "130040.677000", "130040.680000", "130040.683000", "130040.686000", "130040.689000", "130040.692000", "130040.695000", "130040.698000", "130040.701000", "130040.704000", "130100.647000", "130100.650000", "130100.653000", "130100.656000", "130100.659000", "130100.662000", "130100.665000", "130100.669000", "130100.672000", "130100.675000", "130100.678000", "130100.681000", "130100.684000", "130100.687000", "130100.690000", "130100.693000", "130100.696000", "130100.699000", "130100.702000", "130100.705000", "130102.326000", "130102.329000"],
      "InstanceCreationTime": ["125700.677000", "125700.681000", "125700.684000", "125700.687000", "125700.702000", "125700.705000", "125700.708000", "125700.711000", "125700.714000", "125700.717000", "125700.720000", "125700.723000", "125700.726000", "125720.646000", "125720.654000", "125720.657000", "125720.660000", "125720.663000", "125720.666000", "125720.669000", "125720.672000", "125720.675000", "125720.678000", "125720.682000", "125720.685000", "125720.688000", "125720.691000", "125720.694000", "125720.697000", "125720.700000", "125720.703000", "125720.706000", "125720.709000", "125720.712000", "125720.715000", "125720.718000", "125720.721000", "125720.724000", "125720.727000", "125720.730000", "125720.733000", "125720.736000", "125740.646000", "125740.649000", "125740.652000", "125740.655000", "125740.658000", "125740.661000", "125740.664000", "125740.667000", "125740.670000", "125740.673000", "125740.677000", "125740.680000", "125740.683000", "125740.686000", "125740.689000", "125740.692000", "125740.710000", "125740.713000", "125740.716000", "125740.719000", "125740.722000", "125740.725000", "125740.728000", "125740.731000", "125740.734000", "125740.737000", "125740.740000", "125740.743000", "125800.646000", "125800.649000", "125800.652000", "125800.655000", "125800.658000", "125800.661000", "125800.664000", "125800.667000", "125800.670000", "125800.673000", "125800.676000", "125800.679000", "125800.682000", "125800.685000", "125800.689000", "125800.692000", "125800.695000", "125800.698000", "125800.701000", "125800.704000", "125800.707000", "125800.710000", "125800.713000", "125800.716000", "125800.719000", "125800.722000", "125800.725000", "125800.728000", "125800.731000", "125820.646000", "125820.649000", "125820.652000", "125820.655000", "125820.658000", "125820.661000", "125820.664000", "125820.667000", "125820.670000", "125820.673000", "125820.676000", "125820.679000", "125820.683000", "125820.686000", "125820.689000", "125820.692000", "125820.695000", "125820.698000", "125820.701000", "125820.704000", "125820.707000", "125820.710000", "125820.713000", "125820.716000", "125820.719000", "125820.722000", "125820.725000", "125820.728000", "125840.647000", "125840.650000", "125840.653000", "125840.656000", "125840.659000", "125840.663000", "125840.666000", "125840.669000", "125840.672000", "125840.675000", "125840.678000", "125840.681000", "125840.684000", "125840.687000", "125840.690000", "125840.693000", "125840.696000", "125840.699000", "125840.702000", "125840.705000", "125840.708000", "125840.711000", "125840.714000", "125840.717000", "125840.720000", "125840.723000", "125840.727000", "125840.730000", "125900.647000", "125900.650000", "125900.653000", "125900.657000", "125900.660000", "125900.663000", "125900.666000", "125900.669000", "125900.672000", "125900.675000", "125900.678000", "125900.681000", "125900.685000", "125900.688000", "125900.707000", "125900.710000", "125900.713000", "125900.716000", "125900.719000", "125900.722000", "125900.725000", "125900.728000", "125900.732000", "125920.647000", "125920.650000", "125920.653000", "125920.656000", "125920.659000", "125920.662000", "125920.666000", "125920.669000", "125920.672000", "125920.675000", "125920.678000", "125920.681000", "125920.684000", "125920.687000", "125920.690000", "125920.693000", "125920.696000", "125920.699000", "125920.702000", "125920.705000", "125940.646000", "125940.649000", "125940.652000", "125940.655000", "125940.658000", "125940.661000", "125940.664000", "125940.668000", "125940.671000", "125940.674000", "125940.677000", "125940.680000", "125940.683000", "125940.686000", "125940.689000", "125940.692000", "125940.695000", "125940.698000", "125940.701000", "125940.709000", "130000.646000", "130000.649000", "130000.652000", "130000.655000", "130000.658000", "130000.661000", "130000.664000", "130000.668000", "130000.671000", "130000.674000", "130000.677000", "130000.680000", "130000.683000", "130000.686000", "130000.689000", "130000.692000", "130000.695000", "130000.698000", "130000.701000", "130000.704000", "130020.646000", "130020.649000", "130020.652000", "130020.655000", "130020.659000", "130020.662000", "130020.665000", "130020.668000", "130020.671000", "130020.674000", "130020.677000", "130020.680000", "130020.683000", "130020.686000", "130020.689000", "130020.692000", "130020.695000", "130020.698000", "130020.701000", "130020.704000", "130040.646000", "130040.649000", "130040.652000", "130040.655000", "130040.658000", "130040.661000", "130040.664000", "130040.667000", "130040.671000", "130040.674000", "130040.677000", "130040.680000", "130040.683000", "130040.686000", "130040.689000", "130040.692000", "130040.695000", "130040.698000", "130040.701000", "130040.704000", "130100.647000", "130100.650000", "130100.653000", "130100.656000", "130100.659000", "130100.662000", "130100.665000", "130100.669000", "130100.672000", "130100.675000", "130100.678000", "130100.681000", "130100.684000", "130100.687000", "130100.690000", "130100.693000", "130100.696000", "130100.699000", "130100.702000", "130100.705000", "130102.326000", "130102.329000"],
      "InstanceNumber": [1, 2, 3, 4, 5, 6, 7, 8, 9, 10, 11, 12, 13, 14, 15, 16, 17, 18, 19, 20, 21, 22, 23, 24, 25, 26, 27, 28, 29, 30, 31, 32, 33, 34, 35, 36, 37, 38, 39, 40, 41, 42, 43, 44, 45, 46, 47, 48, 49, 50, 51, 52, 53, 54, 55, 56, 57, 58, 59, 60, 61, 62, 63, 64, 65, 66, 67, 68, 69, 70, 71, 72, 73, 74, 75, 76, 77, 78, 79, 80, 81, 82, 83, 84, 85, 86, 87, 88, 89, 90, 91, 92, 93, 94, 95, 96, 97, 98, 99, 100, 101, 102, 103, 104, 105, 106, 107, 108, 109, 110, 111, 112, 113, 114, 115, 116, 117, 118, 119, 120, 121, 122, 123, 124, 125, 126, 127, 128, 129, 130, 131, 132, 133, 134, 135, 136, 137, 138, 139, 140, 141, 142, 143, 144, 145, 146, 147, 148, 149, 150, 151, 152, 153, 154, 155, 156, 157, 158, 159, 160, 161, 162, 163, 164, 165, 166, 167, 168, 169, 170, 171, 172, 173, 174, 175, 176, 177, 178, 179, 180, 181, 182, 183, 184, 185, 186, 187, 188, 189, 190, 191, 192, 193, 194, 195, 196, 197, 198, 199, 200, 201, 202, 203, 204, 205, 206, 207, 208, 209, 210, 211, 212, 213, 214, 215, 216, 217, 218, 219, 220, 221, 222, 223, 224, 225, 226, 227, 228, 229, 230, 231, 232, 233, 234, 235, 236, 237, 238, 239, 240, 241, 242, 243, 244, 245, 246, 247, 248, 249, 250, 251, 252, 253, 254, 255, 256, 257, 258, 259, 260, 261, 262, 263, 264, 265, 266, 267, 268, 269, 270, 271, 272, 273, 274, 275, 276, 277, 278, 279, 280, 281, 282, 283, 284, 285, 286, 287, 288, 289, 290, 291, 292, 293, 294, 295, 296, 297, 298, 299, 300],
      "LargestImagePixelValue": [36999, 35615, 34329, 34119, 34017, 34090, 33947, 33672, 34134, 34484, 34087, 33050, 33890, 34007, 33560, 33858, 33911, 33804, 33427, 34104, 33927, 33575, 33469, 34027, 33670, 33304, 33774, 33641, 34015, 34152, 33935, 33859, 34042, 33592, 33427, 33883, 33970, 33313, 34210, 33987, 33755, 33696, 33546, 33679, 34049, 34282, 33529, 34099, 33967, 33530, 33645, 33892, 33766, 34020, 33923, 33863, 34225, 33814, 33470, 33698, 33839, 33547, 33975, 34161, 33557, 33748, 34175, 33775, 33610, 33535, 33920, 33804, 33909, 33909, 34177, 33592, 33955, 34057, 33261, 34161, 33816, 33399, 34009, 33238, 33404, 33552, 33298, 33552, 33909, 33581, 33677, 33914, 33698, 33441, 34038, 33786, 33711, 33782, 33894, 33748, 33539, 34000, 34100, 34207, 33950, 34020, 34178, 33944, 33803, 34229, 33770, 34127, 33923, 33762, 34039, 33959, 33877, 33594, 33584, 33367, 33517, 33975, 33248, 33930, 33434, 33404, 33508, 33926, 33452, 33696, 33658, 33425, 33582, 33736, 33267, 33421, 33791, 33719, 33415, 33686, 33989, 33712, 33914, 34055, 33611, 33533, 33345, 33573, 33597, 33549, 33450, 33752, 34118, 33821, 33972, 33967, 33497, 33869, 33739, 33608, 33572, 33944, 33459, 33055, 33589, 33813, 33504, 33404, 33245, 33453, 33266, 33614, 33604, 33174, 33277, 33586, 33405, 33204, 33308, 33576, 33149, 33370, 33615, 33653, 33374, 33594, 33642, 33068, 33486, 33420, 33370, 33597, 34075, 33618, 33536, 34042, 33250, 33684, 33915, 33087, 33625, 33864, 33256, 33172, 33150, 32836, 33314, 33412, 32982, 33504, 33607, 33250, 32907, 33659, 32884, 33255, 33598, 33000, 33522, 33527, 33265, 33126, 33849, 33013, 33641, 33192, 33452, 33337, 33546, 33026, 33939, 33080, 33010, 33260, 33563, 33717, 33059, 33083, 33564, 33170, 33606, 33878, 33272, 33920, 33633, 33180, 33173, 33347, 33235, 33042, 33019, 33169, 33297, 33489, 33415, 33284, 33122, 33632, 33326, 33165, 33552, 33765, 33077, 33332, 33621, 33339, 33024, 33623, 33552, 33029, 33099, 32845, 33032, 33360, 33315, 32948, 33697, 33711, 33118, 33580, 33862, 33317, 33159, 33403, 33681, 33114, 33210, 33294, 33846, 33760, 33322, 33889, 33319, 33178, 33821, 33520, 33322, 33596, 33727, 33775],
      "WindowCenter": [10118.0, 10067.0, 10034.0, 10021.0, 10011.0, 10010.0, 10008.0, 10000.0, 10006.0, 10013.0, 10014.0, 9999.0, 10009.0, 10001.0, 9985.0, 9976.0, 9972.0, 9963.0, 9956.0, 9967.0, 9963.0, 9965.0, 9972.0, 9971.0, 9965.0, 9956.0, 9954.0, 9946.0, 9951.0, 9956.0, 9949.0, 9949.0, 9958.0, 9961.0, 9966.0, 9985.0, 9986.0, 9968.0, 9977.0, 9970.0, 9961.0, 9961.0, 9953.0, 9958.0, 9959.0, 9964.0, 9952.0, 9964.0, 9958.0, 9952.0, 9945.0, 9942.0, 9941.0, 9934.0, 9933.0, 9938.0, 9945.0, 9940.0, 9942.0, 9943.0, 9941.0, 9934.0, 9940.0, 9947.0, 9943.0, 9945.0, 9957.0, 9951.0, 9944.0, 9942.0, 9941.0, 9941.0, 9947.0, 9942.0, 9947.0, 9943.0, 9950.0, 9957.0, 9953.0, 9965.0, 9958.0, 9939.0, 9941.0, 9922.0, 9921.0, 9920.0, 9917.0, 9924.0, 9939.0, 9942.0, 9950.0, 9958.0, 9953.0, 9956.0, 9977.0, 9978.0, 9966.0, 9965.0, 9961.0, 9953.0, 9954.0, 9959.0, 9961.0, 9976.0, 9973.0, 9966.0, 9963.0, 9954.0, 9945.0, 9941.0, 9936.0, 9935.0, 9936.0, 9943.0, 9951.0, 9960.0, 9961.0, 9963.0, 9955.0, 9948.0, 9947.0, 9944.0, 9938.0, 9951.0, 9948.0, 9949.0, 9961.0, 9958.0, 9944.0, 9944.0, 9943.0, 9938.0, 9939.0, 9942.0, 9928.0, 9921.0, 9931.0, 9927.0, 9922.0, 9928.0, 9934.0, 9929.0, 9941.0, 9942.0, 9936.0, 9929.0, 9922.0, 9926.0, 9926.0, 9925.0, 9927.0, 9934.0, 9939.0, 9941.0, 9944.0, 9944.0, 9930.0, 9928.0, 9921.0, 9922.0, 9922.0, 9930.0, 9937.0, 9930.0, 9948.0, 9954.0, 9942.0, 9941.0, 9935.0, 9938.0, 9933.0, 9940.0, 9947.0, 9949.0, 9951.0, 9956.0, 9943.0, 9936.0, 9942.0, 9942.0, 9941.0, 9949.0, 9951.0, 9957.0, 9952.0, 9956.0, 9948.0, 9927.0, 9931.0, 9922.0, 9921.0, 9921.0, 9933.0, 9935.0, 9937.0, 9943.0, 9932.0, 9930.0, 9928.0, 9915.0, 9921.0, 9932.0, 9923.0, 9931.0, 9937.0, 9930.0, 9924.0, 9921.0, 9906.0, 9909.0, 9908.0, 9909.0, 9913.0, 9925.0, 9922.0, 9922.0, 9920.0, 9901.0, 9910.0, 9909.0, 9904.0, 9911.0, 9923.0, 9920.0, 9926.0, 9920.0, 9918.0, 9912.0, 9916.0, 9906.0, 9931.0, 9922.0, 9924.0, 9930.0, 9929.0, 9920.0, 9908.0, 9899.0, 9908.0, 9910.0, 9918.0, 9924.0, 9917.0, 9924.0, 9925.0, 9920.0, 9921.0, 9921.0, 9914.0, 9908.0, 9906.0, 9911.0, 9912.0, 9920.0, 9914.0, 9914.0, 9914.0, 9912.0, 9904.0, 9896.0, 9902.0, 9907.0, 9903.0, 9905.0, 9917.0, 9914.0, 9915.0, 9928.0, 9922.0, 9922.0, 9915.0, 9914.0, 9923.0, 9939.0, 9947.0, 9936.0, 9934.0, 9925.0, 9911.0, 9912.0, 9910.0, 9904.0, 9905.0, 9913.0, 9919.0, 9916.0, 9923.0, 9924.0, 9934.0, 9926.0, 9907.0, 9910.0, 9898.0, 9898.0, 9908.0, 9910.0, 9915.0, 9921.0, 9922.0, 9929.0],
