{
  "AcquisitionMatrixPE": 104,
  "AcquisitionNumber": 1,
  "AcquisitionTime": "13:02:24.370000",
  "BandwidthPerPixelPhaseEncode": 16.297,
  "BaseResolution": 104,
  "BodyPartExamined": "BRAIN",
  "ConsistencyInfo": "N4_VE11C_LATEST_20160120",
  "ConversionSoftware": "dcm2niix",
  "ConversionSoftwareVersion": "v1.0.20210317",
  "DerivedVendorReportedEchoSpacing": 0.000590009,
  "DeviceSerialNumber": "166018",
  "DwellTime": 2.1e-06,
  "EchoTime": 0.0376,
  "EchoTrainLength": 104,
  "EffectiveEchoSpacing": 0.000590009,
  "FlipAngle": 68,
  "ImageComments": "Unaliased MB6/PE3/LB",
  "ImageOrientationPatientDICOM": [0.992679, 0.106924, -0.0561704, -0.119952, 0.927158, -0.354949],
  "ImageType": [
    "ORIGINAL",
    "PRIMARY",
    "M",
    "MB",
    "ND",
    "MOSAIC"
],
  "ImagingFrequency": 123.197,
  "InPlanePhaseEncodingDirectionDICOM": "COL",
  "InstitutionAddress": "Washington Place 6,NYC,NYC,US,10003",
  "InstitutionName": "NYU - CBI",
  "InstitutionalDepartmentName": "Department",
  "MRAcquisitionType": "2D",
  "MagneticFieldStrength": 3,
  "Manufacturer": "Siemens",
  "ManufacturersModelName": "Prisma",
  "Modality": "MR",
  "MultibandAccelerationFactor": 6,
  "PartialFourier": 1,
  "PatientPosition": "HFS",
  "PercentPhaseFOV": 100,
  "PercentSampling": 100,
  "PhaseEncodingDirection": "j",
  "PhaseEncodingSteps": 104,
  "PhaseResolution": 1,
  "PixelBandwidth": 2290,
  "ProcedureStepDescription": "Investigators^Winawer",
  "ProtocolName": "cmrr_mbepi_s6_2mm_66sl_PA_task-bar2",
  "PulseSequenceDetails": "%CustomerSeq%\\cmrr_mbep2d_bold",
  "ReceiveCoilActiveElements": "HC1-7",
  "ReceiveCoilName": "HeadNeck_64",
  "ReconMatrixPE": 104,
  "RepetitionTime": 1,
  "SAR": 0.085959,
  "ScanOptions": "FS",
  "ScanningSequence": "EP",
  "SequenceName": "epfid2d1_104",
  "SequenceVariant": "SK\\SS",
  "SeriesDescription": "cmrr_mbepi_s6_2mm_66sl_PA_task-bar2",
  "SeriesNumber": 12,
  "ShimSetting": [281, -12619, -8465, 287, 10, -66, -170, 93],
  "SliceThickness": 2,
  "SliceTiming": [0, 0.535, 0.0875, 0.6225, 0.1775, 0.7125, 0.2675, 0.8, 0.355, 0.89, 0.445, 0, 0.535, 0.0875, 0.6225, 0.1775, 0.7125, 0.2675, 0.8, 0.355, 0.89, 0.445, 0, 0.535, 0.0875, 0.6225, 0.1775, 0.7125, 0.2675, 0.8, 0.355, 0.89, 0.445, 0, 0.535, 0.0875, 0.6225, 0.1775, 0.7125, 0.2675, 0.8, 0.355, 0.89, 0.445, 0, 0.535, 0.0875, 0.6225, 0.1775, 0.7125, 0.2675, 0.8, 0.355, 0.89, 0.445, 0, 0.535, 0.0875, 0.6225, 0.1775, 0.7125, 0.2675, 0.8, 0.355, 0.89, 0.445],
  "SoftwareVersions": "syngo MR E11",
  "SpacingBetweenSlices": 2,
  "StationName": "AWP166018",
  "TaskName": "bar2",
  "TotalReadoutTime": 0.060771,
  "TxRefAmp": 237.072,
  "VendorReportedEchoSpacing": 0.00059,
  "WipMemBlock": "1da6d86b-81de-4798-b96b-eaffa878ac6b||Sequence: R016 ve11c/master r/8780670; Nov 27 2017 15:05:12 by eja",
  "dcmmeta_affine": [
    [-1.985358476638794, -0.23990318179130554, -0.02825227752327919, 118.57012176513672],
    [-0.21384871006011963, 1.8543167114257812, -0.7181769013404846, -46.655208587646484],
    [-0.11234080046415329, 0.7098984718322754, 1.8663933277130127, -63.47893142700195],
    [0.0, 0.0, 0.0, 1.0]
],
  "dcmmeta_reorient_transform": [
    [0.0, -1.0, 0.0, 103.0],
    [1.0, 0.0, 0.0, 0.0],
    [0.0, 0.0, 1.0, 0.0],
    [0.0, 0.0, 0.0, 1.0]
],
  "dcmmeta_shape": [104, 104, 66, 300],
  "dcmmeta_slice_dim": 2,
  "dcmmeta_version": 0.6,
  "global": {
    "const": {
      "AccessionNumber": "Lep9m76j",
      "AcquisitionMatrix": [104, 0, 0, 104],
      "AngioFlag": "N",
      "BitsAllocated": 16,
      "BitsStored": 16,
      "BodyPartExamined": "BRAIN",
      "Columns": 936,
      "EchoNumbers": 1,
      "EchoTime": 37.6,
      "EchoTrainLength": 104,
      "FlipAngle": 68.0,
      "HighBit": 15,
      "ImageOrientationPatient": [0.99267923716399, 0.10692435809413, -0.0561703992303, -0.1199515915464, 0.92715838134908, -0.3549492239457],
      "ImagePositionPatient": [-819.96949205623, -1004.6962553676, 351.69213401022],
      "ImageType": [
        "ORIGINAL",
        "PRIMARY",
        "M",
        "MB",
        "ND",
        "MOSAIC"
],
      "ImagedNucleus": "1H",
      "ImagingFrequency": 123.196803,
      "InPlanePhaseEncodingDirection": "COL",
      "MRAcquisitionType": "2D",
      "MagneticFieldStrength": 3.0,
      "Manufacturer": "SIEMENS",
      "ManufacturerModelName": "Prisma",
      "Modality": "MR",
      "NumberOfAverages": 1.0,
      "NumberOfPhaseEncodingSteps": 104,
      "PercentPhaseFieldOfView": 100.0,
      "PercentSampling": 100.0,
      "PerformedProcedureStepStartTime": "123454.739000",
      "PhotometricInterpretation": "MONOCHROME2",
      "PixelBandwidth": 2290.0,
      "PixelRepresentation": 0,
      "PixelSpacing": [2.0, 2.0],
      "ProtocolName": "cmrr_mbepi_s6_2mm_66sl_PA_task-bar2",
      "RepetitionTime": 1000.0,
      "Rows": 936,
      "SAR": 0.08595903136871,
      "SamplesPerPixel": 1,
      "ScanOptions": "FS",
      "ScanningSequence": "EP",
      "SequenceName": "epfid2d1_104",
      "SequenceVariant": [
        "SK",
        "SS"
],
      "SeriesDescription": "cmrr_mbepi_s6_2mm_66sl_PA_task-bar2",
      "SeriesNumber": 12,
      "SeriesTime": "130340.779000",
      "SliceLocation": -44.159916013839,
      "SliceThickness": 2.0,
      "SmallestImagePixelValue": 0,
      "SoftwareVersions": "syngo MR E11",
      "SpacingBetweenSlices": 2.0000000372749,
      "SpecificCharacterSet": "ISO_IR 100",
      "StudyID": "1",
      "StudyTime": "123454.580000",
      "TransmitCoilName": "Body",
      "VariableFlipAngleFlag": "N",
      "WindowCenterWidthExplanation": "Algo1",
      "dBdt": 0.0},
    "slices": {}
  },
  "time": {
    "samples": {
      "AcquisitionNumber": [1, 2, 3, 4, 5, 6, 7, 8, 9, 10, 11, 12, 13, 14, 15, 16, 17, 18, 19, 20, 21, 22, 23, 24, 25, 26, 27, 28, 29, 30, 31, 32, 33, 34, 35, 36, 37, 38, 39, 40, 41, 42, 43, 44, 45, 46, 47, 48, 49, 50, 51, 52, 53, 54, 55, 56, 57, 58, 59, 60, 61, 62, 63, 64, 65, 66, 67, 68, 69, 70, 71, 72, 73, 74, 75, 76, 77, 78, 79, 80, 81, 82, 83, 84, 85, 86, 87, 88, 89, 90, 91, 92, 93, 94, 95, 96, 97, 98, 99, 100, 101, 102, 103, 104, 105, 106, 107, 108, 109, 110, 111, 112, 113, 114, 115, 116, 117, 118, 119, 120, 121, 122, 123, 124, 125, 126, 127, 128, 129, 130, 131, 132, 133, 134, 135, 136, 137, 138, 139, 140, 141, 142, 143, 144, 145, 146, 147, 148, 149, 150, 151, 152, 153, 154, 155, 156, 157, 158, 159, 160, 161, 162, 163, 164, 165, 166, 167, 168, 169, 170, 171, 172, 173, 174, 175, 176, 177, 178, 179, 180, 181, 182, 183, 184, 185, 186, 187, 188, 189, 190, 191, 192, 193, 194, 195, 196, 197, 198, 199, 200, 201, 202, 203, 204, 205, 206, 207, 208, 209, 210, 211, 212, 213, 214, 215, 216, 217, 218, 219, 220, 221, 222, 223, 224, 225, 226, 227, 228, 229, 230, 231, 232, 233, 234, 235, 236, 237, 238, 239, 240, 241, 242, 243, 244, 245, 246, 247, 248, 249, 250, 251, 252, 253, 254, 255, 256, 257, 258, 259, 260, 261, 262, 263, 264, 265, 266, 267, 268, 269, 270, 271, 272, 273, 274, 275, 276, 277, 278, 279, 280, 281, 282, 283, 284, 285, 286, 287, 288, 289, 290, 291, 292, 293, 294, 295, 296, 297, 298, 299, 300],
      "AcquisitionTime": ["130224.370000", "130225.370000", "130226.370000", "130227.370000", "130228.370000", "130229.370000", "130230.370000", "130231.370000", "130232.370000", "130233.370000", "130234.370000", "130235.370000", "130236.370000", "130237.370000", "130238.370000", "130239.370000", "130240.370000", "130241.370000", "130242.370000", "130243.370000", "130244.370000", "130245.370000", "130246.370000", "130247.370000", "130248.370000", "130249.370000", "130250.370000", "130251.370000", "130252.370000", "130253.370000", "130254.370000", "130255.370000", "130256.370000", "130257.370000", "130258.370000", "130259.370000", "130300.370000", "130301.370000", "130302.370000", "130303.370000", "130304.370000", "130305.370000", "130306.370000", "130307.370000", "130308.370000", "130309.370000", "130310.370000", "130311.370000", "130312.370000", "130313.370000", "130314.370000", "130315.370000", "130316.370000", "130317.370000", "130318.370000", "130319.370000", "130320.370000", "130321.370000", "130322.370000", "130323.370000", "130324.370000", "130325.370000", "130326.370000", "130327.370000", "130328.370000", "130329.370000", "130330.370000", "130331.370000", "130332.370000", "130333.370000", "130334.370000", "130335.370000", "130336.370000", "130337.370000", "130338.370000", "130339.370000", "130340.370000", "130341.370000", "130342.370000", "130343.370000", "130344.370000", "130345.370000", "130346.370000", "130347.370000", "130348.370000", "130349.370000", "130350.370000", "130351.370000", "130352.370000", "130353.370000", "130354.370000", "130355.370000", "130356.370000", "130357.370000", "130358.370000", "130359.370000", "130400.370000", "130401.370000", "130402.370000", "130403.370000", "130404.370000", "130405.370000", "130406.370000", "130407.370000", "130408.370000", "130409.370000", "130410.370000", "130411.370000", "130412.370000", "130413.370000", "130414.370000", "130415.370000", "130416.370000", "130417.370000", "130418.370000", "130419.370000", "130420.370000", "130421.370000", "130422.370000", "130423.370000", "130424.370000", "130425.370000", "130426.370000", "130427.370000", "130428.370000", "130429.370000", "130430.370000", "130431.370000", "130432.370000", "130433.370000", "130434.370000", "130435.370000", "130436.370000", "130437.370000", "130438.370000", "130439.370000", "130440.370000", "130441.370000", "130442.370000", "130443.370000", "130444.370000", "130445.370000", "130446.370000", "130447.370000", "130448.370000", "130449.370000", "130450.370000", "130451.370000", "130452.370000", "130453.370000", "130454.370000", "130455.370000", "130456.370000", "130457.370000", "130458.370000", "130459.370000", "130500.370000", "130501.370000", "130502.370000", "130503.370000", "130504.370000", "130505.370000", "130506.370000", "130507.370000", "130508.370000", "130509.370000", "130510.370000", "130511.370000", "130512.370000", "130513.370000", "130514.370000", "130515.370000", "130516.370000", "130517.370000", "130518.370000", "130519.370000", "130520.370000", "130521.370000", "130522.370000", "130523.370000", "130524.370000", "130525.370000", "130526.370000", "130527.370000", "130528.370000", "130529.370000", "130530.370000", "130531.370000", "130532.370000", "130533.370000", "130534.370000", "130535.370000", "130536.370000", "130537.370000", "130538.370000", "130539.370000", "130540.370000", "130541.370000", "130542.370000", "130543.370000", "130544.370000", "130545.370000", "130546.370000", "130547.370000", "130548.370000", "130549.370000", "130550.370000", "130551.370000", "130552.370000", "130553.370000", "130554.370000", "130555.370000", "130556.370000", "130557.370000", "130558.370000", "130559.370000", "130600.370000", "130601.370000", "130602.370000", "130603.370000", "130604.370000", "130605.370000", "130606.370000", "130607.370000", "130608.370000", "130609.370000", "130610.370000", "130611.370000", "130612.370000", "130613.370000", "130614.370000", "130615.370000", "130616.370000", "130617.370000", "130618.370000", "130619.370000", "130620.370000", "130621.370000", "130622.370000", "130623.370000", "130624.370000", "130625.370000", "130626.370000", "130627.370000", "130628.370000", "130629.370000", "130630.370000", "130631.370000", "130632.370000", "130633.370000", "130634.370000", "130635.370000", "130636.370000", "130637.370000", "130638.370000", "130639.370000", "130640.370000", "130641.370000", "130642.370000", "130643.370000", "130644.370000", "130645.370000", "130646.370000", "130647.370000", "130648.370000", "130649.370000", "130650.370000", "130651.370000", "130652.370000", "130653.370000", "130654.370000", "130655.370000", "130656.370000", "130657.370000", "130658.370000", "130659.370000", "130700.370000", "130701.370000", "130702.370000", "130703.370000", "130704.370000", "130705.370000", "130706.370000", "130707.370000", "130708.370000", "130709.370000", "130710.370000", "130711.370000", "130712.370000", "130713.370000", "130714.370000", "130715.370000", "130716.370000", "130717.370000", "130718.370000", "130719.370000", "130720.370000", "130721.370000", "130722.370000", "130723.370000"],
      "ContentTime": ["130340.782000", "130340.786000", "130340.789000", "130340.792000", "130340.795000", "130340.798000", "130340.801000", "130340.804000", "130340.807000", "130340.810000", "130340.813000", "130340.817000", "130340.820000", "130340.823000", "130340.826000", "130340.829000", "130340.832000", "130340.835000", "130340.838000", "130340.841000", "130340.844000", "130340.852000", "130340.855000", "130340.867000", "130340.870000", "130340.876000", "130340.879000", "130340.882000", "130340.885000", "130340.888000", "130340.891000", "130340.894000", "130340.897000", "130340.900000", "130340.903000", "130340.906000", "130400.720000", "130400.723000", "130400.726000", "130400.729000", "130400.732000", "130400.735000", "130400.738000", "130400.742000", "130400.745000", "130400.748000", "130400.751000", "130400.754000", "130400.757000", "130400.760000", "130400.763000", "130400.766000", "130400.769000", "130400.779000", "130400.782000", "130400.785000", "130400.788000", "130400.792000", "130400.795000", "130400.798000", "130400.801000", "130400.804000", "130400.807000", "130400.812000", "130420.719000", "130420.722000", "130420.725000", "130420.728000", "130420.731000", "130420.734000", "130420.737000", "130420.740000", "130420.743000", "130420.747000", "130420.750000", "130420.753000", "130420.756000", "130420.759000", "130420.762000", "130420.765000", "130420.768000", "130420.771000", "130420.774000", "130420.777000", "130420.780000", "130420.783000", "130420.786000", "130420.789000", "130420.792000", "130420.795000", "130420.808000", "130420.811000", "130420.814000", "130440.719000", "130440.726000", "130440.729000", "130440.732000", "130440.735000", "130440.738000", "130440.741000", "130440.744000", "130440.747000", "130440.750000", "130440.753000", "130440.756000", "130440.759000", "130440.763000", "130440.766000", "130440.769000", "130440.772000", "130440.775000", "130440.783000", "130440.786000", "130440.789000", "130440.792000", "130440.795000", "130440.798000", "130440.802000", "130440.805000", "130440.808000", "130440.811000", "130500.719000", "130500.722000", "130500.725000", "130500.728000", "130500.732000", "130500.735000", "130500.738000", "130500.741000", "130500.744000", "130500.747000", "130500.750000", "130500.753000", "130500.756000", "130500.759000", "130500.762000", "130500.765000", "130500.768000", "130500.771000", "130500.774000", "130500.777000", "130500.780000", "130500.783000", "130500.786000", "130500.789000", "130500.792000", "130500.795000", "130500.799000", "130500.802000", "130520.719000", "130520.722000", "130520.725000", "130520.728000", "130520.731000", "130520.734000", "130520.737000", "130520.740000", "130520.744000", "130520.747000", "130520.750000", "130520.753000", "130520.756000", "130520.759000", "130520.762000", "130520.765000", "130520.768000", "130520.771000", "130520.774000", "130520.777000", "130520.780000", "130520.783000", "130520.786000", "130520.789000", "130520.793000", "130520.796000", "130540.720000", "130540.723000", "130540.726000", "130540.729000", "130540.732000", "130540.735000", "130540.739000", "130540.742000", "130540.745000", "130540.748000", "130540.751000", "130540.754000", "130540.759000", "130540.762000", "130540.765000", "130540.768000", "130540.771000", "130540.774000", "130540.777000", "130540.780000", "130600.720000", "130600.723000", "130600.726000", "130600.730000", "130600.733000", "130600.736000", "130600.739000", "130600.742000", "130600.745000", "130600.748000", "130600.751000", "130600.754000", "130600.757000", "130600.760000", "130600.763000", "130600.766000", "130600.769000", "130600.773000", "130600.776000", "130600.779000", "130620.720000", "130620.723000", "130620.726000", "130620.730000", "130620.733000", "130620.736000", "130620.739000", "130620.742000", "130620.745000", "130620.748000", "130620.751000", "130620.754000", "130620.757000", "130620.760000", "130620.763000", "130620.766000", "130620.769000", "130620.772000", "130620.775000", "130620.778000", "130640.719000", "130640.722000", "130640.725000", "130640.728000", "130640.732000", "130640.735000", "130640.738000", "130640.741000", "130640.744000", "130640.747000", "130640.750000", "130640.753000", "130640.756000", "130640.759000", "130640.762000", "130640.765000", "130640.768000", "130640.771000", "130640.774000", "130640.777000", "130700.719000", "130700.722000", "130700.725000", "130700.728000", "130700.732000", "130700.735000", "130700.738000", "130700.741000", "130700.744000", "130700.747000", "130700.750000", "130700.753000", "130700.756000", "130700.759000", "130700.762000", "130700.765000", "130700.768000", "130700.771000", "130700.774000", "130700.777000", "130720.719000", "130720.722000", "130720.725000", "130720.728000", "130720.731000", "130720.735000", "130720.738000", "130720.741000", "130720.744000", "130720.747000", "130720.750000", "130720.753000", "130720.756000", "130720.759000", "130720.762000", "130720.765000", "130720.768000", "130720.771000", "130720.774000", "130720.777000", "130725.344000", "130725.348000", "130725.351000", "130725.354000", "130725.357000"],
      "InstanceCreationTime": ["130340.782000", "130340.786000", "130340.789000", "130340.792000", "130340.795000", "130340.798000", "130340.801000", "130340.804000", "130340.807000", "130340.810000", "130340.813000", "130340.817000", "130340.820000", "130340.823000", "130340.826000", "130340.829000", "130340.832000", "130340.835000", "130340.838000", "130340.841000", "130340.844000", "130340.852000", "130340.855000", "130340.867000", "130340.870000", "130340.876000", "130340.879000", "130340.882000", "130340.885000", "130340.888000", "130340.891000", "130340.894000", "130340.897000", "130340.900000", "130340.903000", "130340.906000", "130400.720000", "130400.723000", "130400.726000", "130400.729000", "130400.732000", "130400.735000", "130400.738000", "130400.742000", "130400.745000", "130400.748000", "130400.751000", "130400.754000", "130400.757000", "130400.760000", "130400.763000", "130400.766000", "130400.769000", "130400.779000", "130400.782000", "130400.785000", "130400.788000", "130400.792000", "130400.795000", "130400.798000", "130400.801000", "130400.804000", "130400.807000", "130400.812000", "130420.719000", "130420.722000", "130420.725000", "130420.728000", "130420.731000", "130420.734000", "130420.737000", "130420.740000", "130420.743000", "130420.747000", "130420.750000", "130420.753000", "130420.756000", "130420.759000", "130420.762000", "130420.765000", "130420.768000", "130420.771000", "130420.774000", "130420.777000", "130420.780000", "130420.783000", "130420.786000", "130420.789000", "130420.792000", "130420.795000", "130420.808000", "130420.811000", "130420.814000", "130440.719000", "130440.726000", "130440.729000", "130440.732000", "130440.735000", "130440.738000", "130440.741000", "130440.744000", "130440.747000", "130440.750000", "130440.753000", "130440.756000", "130440.759000", "130440.763000", "130440.766000", "130440.769000", "130440.772000", "130440.775000", "130440.783000", "130440.786000", "130440.789000", "130440.792000", "130440.795000", "130440.798000", "130440.802000", "130440.805000", "130440.808000", "130440.811000", "130500.719000", "130500.722000", "130500.725000", "130500.728000", "130500.732000", "130500.735000", "130500.738000", "130500.741000", "130500.744000", "130500.747000", "130500.750000", "130500.753000", "130500.756000", "130500.759000", "130500.762000", "130500.765000", "130500.768000", "130500.771000", "130500.774000", "130500.777000", "130500.780000", "130500.783000", "130500.786000", "130500.789000", "130500.792000", "130500.795000", "130500.799000", "130500.802000", "130520.719000", "130520.722000", "130520.725000", "130520.728000", "130520.731000", "130520.734000", "130520.737000", "130520.740000", "130520.744000", "130520.747000", "130520.750000", "130520.753000", "130520.756000", "130520.759000", "130520.762000", "130520.765000", "130520.768000", "130520.771000", "130520.774000", "130520.777000", "130520.780000", "130520.783000", "130520.786000", "130520.789000", "130520.793000", "130520.796000", "130540.720000", "130540.723000", "130540.726000", "130540.729000", "130540.732000", "130540.735000", "130540.739000", "130540.742000", "130540.745000", "130540.748000", "130540.751000", "130540.754000", "130540.759000", "130540.762000", "130540.765000", "130540.768000", "130540.771000", "130540.774000", "130540.777000", "130540.780000", "130600.720000", "130600.723000", "130600.726000", "130600.730000", "130600.733000", "130600.736000", "130600.739000", "130600.742000", "130600.745000", "130600.748000", "130600.751000", "130600.754000", "130600.757000", "130600.760000", "130600.763000", "130600.766000", "130600.769000", "130600.773000", "130600.776000", "130600.779000", "130620.720000", "130620.723000", "130620.726000", "130620.730000", "130620.733000", "130620.736000", "130620.739000", "130620.742000", "130620.745000", "130620.748000", "130620.751000", "130620.754000", "130620.757000", "130620.760000", "130620.763000", "130620.766000", "130620.769000", "130620.772000", "130620.775000", "130620.778000", "130640.719000", "130640.722000", "130640.725000", "130640.728000", "130640.732000", "130640.735000", "130640.738000", "130640.741000", "130640.744000", "130640.747000", "130640.750000", "130640.753000", "130640.756000", "130640.759000", "130640.762000", "130640.765000", "130640.768000", "130640.771000", "130640.774000", "130640.777000", "130700.719000", "130700.722000", "130700.725000", "130700.728000", "130700.732000", "130700.735000", "130700.738000", "130700.741000", "130700.744000", "130700.747000", "130700.750000", "130700.753000", "130700.756000", "130700.759000", "130700.762000", "130700.765000", "130700.768000", "130700.771000", "130700.774000", "130700.777000", "130720.719000", "130720.722000", "130720.725000", "130720.728000", "130720.731000", "130720.735000", "130720.738000", "130720.741000", "130720.744000", "130720.747000", "130720.750000", "130720.753000", "130720.756000", "130720.759000", "130720.762000", "130720.765000", "130720.768000", "130720.771000", "130720.774000", "130720.777000", "130725.344000", "130725.348000", "130725.351000", "130725.354000", "130725.357000"],
      "InstanceNumber": [1, 2, 3, 4, 5, 6, 7, 8, 9, 10, 11, 12, 13, 14, 15, 16, 17, 18, 19, 20, 21, 22, 23, 24, 25, 26, 27, 28, 29, 30, 31, 32, 33, 34, 35, 36, 37, 38, 39, 40, 41, 42, 43, 44, 45, 46, 47, 48, 49, 50, 51, 52, 53, 54, 55, 56, 57, 58, 59, 60, 61, 62, 63, 64, 65, 66, 67, 68, 69, 70, 71, 72, 73, 74, 75, 76, 77, 78, 79, 80, 81, 82, 83, 84, 85, 86, 87, 88, 89, 90, 91, 92, 93, 94, 95, 96, 97, 98, 99, 100, 101, 102, 103, 104, 105, 106, 107, 108, 109, 110, 111, 112, 113, 114, 115, 116, 117, 118, 119, 120, 121, 122, 123, 124, 125, 126, 127, 128, 129, 130, 131, 132, 133, 134, 135, 136, 137, 138, 139, 140, 141, 142, 143, 144, 145, 146, 147, 148, 149, 150, 151, 152, 153, 154, 155, 156, 157, 158, 159, 160, 161, 162, 163, 164, 165, 166, 167, 168, 169, 170, 171, 172, 173, 174, 175, 176, 177, 178, 179, 180, 181, 182, 183, 184, 185, 186, 187, 188, 189, 190, 191, 192, 193, 194, 195, 196, 197, 198, 199, 200, 201, 202, 203, 204, 205, 206, 207, 208, 209, 210, 211, 212, 213, 214, 215, 216, 217, 218, 219, 220, 221, 222, 223, 224, 225, 226, 227, 228, 229, 230, 231, 232, 233, 234, 235, 236, 237, 238, 239, 240, 241, 242, 243, 244, 245, 246, 247, 248, 249, 250, 251, 252, 253, 254, 255, 256, 257, 258, 259, 260, 261, 262, 263, 264, 265, 266, 267, 268, 269, 270, 271, 272, 273, 274, 275, 276, 277, 278, 279, 280, 281, 282, 283, 284, 285, 286, 287, 288, 289, 290, 291, 292, 293, 294, 295, 296, 297, 298, 299, 300],
      "LargestImagePixelValue": [37435, 35994, 35196, 35123, 34400, 34087, 34347, 34871, 33928, 34018, 34229, 34005, 34531, 34485, 33898, 34109, 34351, 34335, 34572, 34316, 34653, 34314, 34794, 34607, 34297, 34383, 34267, 34208, 34719, 34641, 34096, 34752, 34256, 34659, 35056, 34231, 34396, 34257, 34365, 34349, 33856, 34106, 34075, 33769, 34228, 34169, 34114, 34256, 34045, 34284, 34590, 33725, 34179, 34091, 33804, 34210, 33815, 33934, 34281, 34448, 34022, 33932, 34218, 33822, 34298, 34089, 33948, 33746, 33920, 33929, 33749, 33877, 34069, 33894, 33611, 34071, 34031, 33906, 33775, 33757, 33714, 34076, 34166, 33864, 33748, 33559, 33498, 33674, 33655, 33384, 33058, 33088, 33362, 33362, 33596, 33407, 33152, 33398, 33491, 33793, 33580, 33327, 33277, 33209, 33726, 33967, 33745, 33611, 33125, 33255, 33629, 33552, 33522, 33292, 33276, 33519, 33567, 33661, 33475, 33357, 33458, 33851, 33522, 33640, 33527, 33690, 33609, 33780, 33237, 33462, 33243, 33646, 33433, 33549, 33480, 33349, 33029, 33451, 33557, 33626, 33367, 33505, 33595, 33582, 33543, 33281, 33145, 33263, 33446, 33357, 33840, 33522, 33251, 33132, 33559, 33186, 33441, 33157, 33707, 33101, 33294, 33392, 33149, 33082, 33292, 33040, 33412, 33231, 33259, 33154, 33177, 33301, 33178, 33226, 32981, 33246, 36257, 33278, 33073, 33317, 33371, 33027, 33130, 33390, 33344, 33367, 33334, 33130, 33304, 33441, 33115, 33063, 33479, 33504, 32962, 33473, 33160, 33195, 33471, 33463, 33246, 33449, 33326, 32885, 33208, 32901, 32949, 33178, 33251, 33402, 33409, 33345, 32834, 32992, 33122, 33449, 33182, 33166, 33322, 33206, 33387, 33448, 33128, 32860, 33036, 33009, 32922, 32986, 33013, 33122, 33439, 33098, 33084, 33594, 33370, 33466, 33101, 33385, 33154, 33018, 33162, 33476, 33325, 32892, 33353, 33021, 32820, 33412, 33352, 32898, 32863, 33138, 33074, 32798, 33504, 33763, 33098, 33211, 33585, 33493, 33221, 32806, 33161, 33162, 32682, 33161, 33178, 32941, 33086, 33891, 32975, 33055, 33413, 33213, 32873, 33329, 33280, 32913, 32743, 33417, 32664, 32607, 33384, 33488, 32715, 32825, 33017, 32851, 32664, 33210, 33004, 33198, 32637, 32658, 33529, 33016, 32741, 32566, 33062, 33101],
      "WindowCenter": [10094.0, 10030.0, 10002.0, 9982.0, 9964.0, 9955.0, 9949.0, 9958.0, 9947.0, 9948.0, 9948.0, 9941.0, 9943.0, 9936.0, 9923.0, 9928.0, 9927.0, 9926.0, 9932.0, 9935.0, 9941.0, 9936.0, 9949.0, 9937.0, 9935.0, 9928.0, 9926.0, 9931.0, 9939.0, 9940.0, 9934.0, 9946.0, 9935.0, 9941.0, 9948.0, 9942.0, 9936.0, 9943.0, 9943.0, 9937.0, 9929.0, 9922.0, 9920.0, 9912.0, 9911.0, 9917.0, 9919.0, 9927.0, 9922.0, 9920.0, 9923.0, 9906.0, 9910.0, 9903.0, 9901.0, 9900.0, 9901.0, 9903.0, 9917.0, 9919.0, 9912.0, 9913.0, 9918.0, 9913.0, 9919.0, 9920.0, 9912.0, 9914.0, 9921.0, 9928.0, 9923.0, 9921.0, 9915.0, 9921.0, 9923.0, 9931.0, 9925.0, 9922.0, 9909.0, 9893.0, 9891.0, 9904.0, 9911.0, 9920.0, 9923.0, 9916.0, 9915.0, 9910.0, 9908.0, 9900.0, 9892.0, 9885.0, 9890.0, 9891.0, 9906.0, 9915.0, 9916.0, 9916.0, 9910.0, 9912.0, 9904.0, 9897.0, 9897.0, 9898.0, 9905.0, 9912.0, 9907.0, 9911.0, 9909.0, 9916.0, 9925.0, 9933.0, 9935.0, 9929.0, 9920.0, 9917.0, 9909.0, 9906.0, 9906.0, 9899.0, 9906.0, 9914.0, 9917.0, 9918.0, 9922.0, 9917.0, 9917.0, 9915.0, 9909.0, 9913.0, 9909.0, 9922.0, 9924.0, 9925.0, 9918.0, 9911.0, 9905.0, 9902.0, 9904.0, 9898.0, 9891.0, 9904.0, 9906.0, 9914.0, 9915.0, 9909.0, 9901.0, 9893.0, 9896.0, 9883.0, 9882.0, 9878.0, 9867.0, 9873.0, 9880.0, 9881.0, 9889.0, 9891.0, 9905.0, 9901.0, 9916.0, 9924.0, 9920.0, 9907.0, 9910.0, 9904.0, 9909.0, 9902.0, 9907.0, 9908.0, 9903.0, 9907.0, 9909.0, 9916.0, 9910.0, 9907.0, 9937.0, 9893.0, 9893.0, 9900.0, 9907.0, 9911.0, 9917.0, 9926.0, 9926.0, 9919.0, 9911.0, 9902.0, 9899.0, 9899.0, 9893.0, 9894.0, 9913.0, 9914.0, 9904.0, 9915.0, 9908.0, 9908.0, 9908.0, 9908.0, 9902.0, 9908.0, 9900.0, 9879.0, 9881.0, 9873.0, 9881.0, 9897.0, 9912.0, 9909.0, 9910.0, 9909.0, 9894.0, 9886.0, 9883.0, 9879.0, 9872.0, 9873.0, 9888.0, 9897.0, 9914.0, 9925.0, 9927.0, 9912.0, 9904.0, 9895.0, 9887.0, 9886.0, 9884.0, 9883.0, 9882.0, 9876.0, 9877.0, 9888.0, 9889.0, 9896.0, 9892.0, 9900.0, 9906.0, 9900.0, 9899.0, 9898.0, 9892.0, 9885.0, 9891.0, 9891.0, 9891.0, 9892.0, 9890.0, 9884.0, 9876.0, 9874.0, 9866.0, 9855.0, 9870.0, 9885.0, 9885.0, 9906.0, 9915.0, 9916.0, 9910.0, 9896.0, 9895.0, 9884.0, 9862.0, 9865.0, 9864.0, 9864.0, 9867.0, 9885.0, 9873.0, 9874.0, 9886.0, 9888.0, 9890.0, 9897.0, 9897.0, 9887.0, 9887.0, 9893.0, 9880.0, 9873.0, 9884.0, 9891.0, 9889.0, 9895.0, 9890.0, 9890.0, 9883.0, 9885.0, 9877.0, 9876.0, 9872.0, 9873.0, 9898.0, 9895.0, 9889.0, 9882.0, 9887.0, 9878.0],
