{
  "AcquisitionMatrixPE": 104,
  "AcquisitionNumber": 1,
  "AcquisitionTime": "13:21:27.630000",
  "BandwidthPerPixelPhaseEncode": 16.297,
  "BaseResolution": 104,
  "BodyPartExamined": "BRAIN",
  "ConsistencyInfo": "N4_VE11C_LATEST_20160120",
  "ConversionSoftware": "dcm2niix",
  "ConversionSoftwareVersion": "v1.0.20210317",
  "DerivedVendorReportedEchoSpacing": 0.000590009,
  "DeviceSerialNumber": "166018",
  "DwellTime": 2.1e-06,
  "EchoTime": 0.0376,
  "EchoTrainLength": 104,
  "EffectiveEchoSpacing": 0.000590009,
  "FlipAngle": 68,
  "ImageComments": "Unaliased MB6/PE3/LB",
  "ImageOrientationPatientDICOM": [0.992679, 0.106924, -0.0561704, -0.119952, 0.927158, -0.354949],
  "ImageType": [
    "ORIGINAL",
    "PRIMARY",
    "M",
    "MB",
    "ND",
    "MOSAIC"
],
  "ImagingFrequency": 123.197,
  "InPlanePhaseEncodingDirectionDICOM": "COL",
  "InstitutionAddress": "Washington Place 6,NYC,NYC,US,10003",
  "InstitutionName": "NYU - CBI",
  "InstitutionalDepartmentName": "Department",
  "MRAcquisitionType": "2D",
  "MagneticFieldStrength": 3,
  "Manufacturer": "Siemens",
  "ManufacturersModelName": "Prisma",
  "Modality": "MR",
  "MultibandAccelerationFactor": 6,
  "PartialFourier": 1,
  "PatientPosition": "HFS",
  "PercentPhaseFOV": 100,
  "PercentSampling": 100,
  "PhaseEncodingDirection": "j",
  "PhaseEncodingSteps": 104,
  "PhaseResolution": 1,
  "PixelBandwidth": 2290,
  "ProcedureStepDescription": "Investigators^Winawer",
  "ProtocolName": "cmrr_mbepi_s6_2mm_66sl_PA_task-wedgering3",
  "PulseSequenceDetails": "%CustomerSeq%\\cmrr_mbep2d_bold",
  "ReceiveCoilActiveElements": "HC1-7",
  "ReceiveCoilName": "HeadNeck_64",
  "ReconMatrixPE": 104,
  "RepetitionTime": 1,
  "SAR": 0.085959,
  "ScanOptions": "FS",
  "ScanningSequence": "EP",
  "SequenceName": "epfid2d1_104",
  "SequenceVariant": "SK\\SS",
  "SeriesDescription": "cmrr_mbepi_s6_2mm_66sl_PA_task-wedgering3",
  "SeriesNumber": 18,
  "ShimSetting": [281, -12619, -8465, 287, 10, -66, -170, 93],
  "SliceThickness": 2,
  "SliceTiming": [0, 0.5325, 0.0875, 0.6225, 0.1775, 0.7125, 0.265, 0.8, 0.355, 0.89, 0.445, 0, 0.5325, 0.0875, 0.6225, 0.1775, 0.7125, 0.265, 0.8, 0.355, 0.89, 0.445, 0, 0.5325, 0.0875, 0.6225, 0.1775, 0.7125, 0.265, 0.8, 0.355, 0.89, 0.445, 0, 0.5325, 0.0875, 0.6225, 0.1775, 0.7125, 0.265, 0.8, 0.355, 0.89, 0.445, 0, 0.5325, 0.0875, 0.6225, 0.1775, 0.7125, 0.265, 0.8, 0.355, 0.89, 0.445, 0, 0.5325, 0.0875, 0.6225, 0.1775, 0.7125, 0.265, 0.8, 0.355, 0.89, 0.445],
  "SoftwareVersions": "syngo MR E11",
  "SpacingBetweenSlices": 2,
  "StationName": "AWP166018",
  "TaskName": "wedgering3",
  "TotalReadoutTime": 0.060771,
  "TxRefAmp": 237.072,
  "VendorReportedEchoSpacing": 0.00059,
  "WipMemBlock": "a6e95f43-77e6-4181-8635-c123108625ed||Sequence: R016 ve11c/master r/8780670; Nov 27 2017 15:05:12 by eja",
  "dcmmeta_affine": [
    [-1.985358476638794, -0.23990318179130554, -0.02825227752327919, 118.57012176513672],
    [-0.21384871006011963, 1.8543167114257812, -0.7181769013404846, -46.655208587646484],
    [-0.11234080046415329, 0.7098984718322754, 1.8663933277130127, -63.47893142700195],
    [0.0, 0.0, 0.0, 1.0]
],
  "dcmmeta_reorient_transform": [
    [0.0, -1.0, 0.0, 103.0],
    [1.0, 0.0, 0.0, 0.0],
    [0.0, 0.0, 1.0, 0.0],
    [0.0, 0.0, 0.0, 1.0]
],
  "dcmmeta_shape": [104, 104, 66, 300],
  "dcmmeta_slice_dim": 2,
  "dcmmeta_version": 0.6,
  "global": {
    "const": {
      "AccessionNumber": "Lep9m76j",
      "AcquisitionMatrix": [104, 0, 0, 104],
      "AngioFlag": "N",
      "BitsAllocated": 16,
      "BitsStored": 16,
      "BodyPartExamined": "BRAIN",
      "Columns": 936,
      "EchoNumbers": 1,
      "EchoTime": 37.6,
      "EchoTrainLength": 104,
      "FlipAngle": 68.0,
      "HighBit": 15,
      "ImageOrientationPatient": [0.99267923716399, 0.10692435809413, -0.0561703992303, -0.1199515915464, 0.92715838134908, -0.3549492239457],
      "ImagePositionPatient": [-819.96949205623, -1004.6962553676, 351.69213401022],
      "ImageType": [
        "ORIGINAL",
        "PRIMARY",
        "M",
        "MB",
        "ND",
        "MOSAIC"
],
      "ImagedNucleus": "1H",
      "ImagingFrequency": 123.196813,
      "InPlanePhaseEncodingDirection": "COL",
      "MRAcquisitionType": "2D",
      "MagneticFieldStrength": 3.0,
      "Manufacturer": "SIEMENS",
      "ManufacturerModelName": "Prisma",
      "Modality": "MR",
      "NumberOfAverages": 1.0,
      "NumberOfPhaseEncodingSteps": 104,
      "PercentPhaseFieldOfView": 100.0,
      "PercentSampling": 100.0,
      "PerformedProcedureStepStartTime": "123454.739000",
      "PhotometricInterpretation": "MONOCHROME2",
      "PixelBandwidth": 2290.0,
      "PixelRepresentation": 0,
      "PixelSpacing": [2.0, 2.0],
      "ProtocolName": "cmrr_mbepi_s6_2mm_66sl_PA_task-wedgering3",
      "RepetitionTime": 1000.0,
      "Rows": 936,
      "SAR": 0.08595903136871,
      "SamplesPerPixel": 1,
      "ScanOptions": "FS",
      "ScanningSequence": "EP",
      "SequenceName": "epfid2d1_104",
      "SequenceVariant": [
        "SK",
        "SS"
],
      "SeriesDescription": "cmrr_mbepi_s6_2mm_66sl_PA_task-wedgering3",
      "SeriesNumber": 18,
      "SeriesTime": "132240.745000",
      "SliceLocation": -44.159916013839,
      "SliceThickness": 2.0,
      "SmallestImagePixelValue": 0,
      "SoftwareVersions": "syngo MR E11",
      "SpacingBetweenSlices": 2.0000000372749,
      "SpecificCharacterSet": "ISO_IR 100",
      "StudyID": "1",
      "StudyTime": "123454.580000",
      "TransmitCoilName": "Body",
      "VariableFlipAngleFlag": "N",
      "WindowCenterWidthExplanation": "Algo1",
      "dBdt": 0.0},
    "slices": {}
  },
  "time": {
    "samples": {
      "AcquisitionNumber": [1, 2, 3, 4, 5, 6, 7, 8, 9, 10, 11, 12, 13, 14, 15, 16, 17, 18, 19, 20, 21, 22, 23, 24, 25, 26, 27, 28, 29, 30, 31, 32, 33, 34, 35, 36, 37, 38, 39, 40, 41, 42, 43, 44, 45, 46, 47, 48, 49, 50, 51, 52, 53, 54, 55, 56, 57, 58, 59, 60, 61, 62, 63, 64, 65, 66, 67, 68, 69, 70, 71, 72, 73, 74, 75, 76, 77, 78, 79, 80, 81, 82, 83, 84, 85, 86, 87, 88, 89, 90, 91, 92, 93, 94, 95, 96, 97, 98, 99, 100, 101, 102, 103, 104, 105, 106, 107, 108, 109, 110, 111, 112, 113, 114, 115, 116, 117, 118, 119, 120, 121, 122, 123, 124, 125, 126, 127, 128, 129, 130, 131, 132, 133, 134, 135, 136, 137, 138, 139, 140, 141, 142, 143, 144, 145, 146, 147, 148, 149, 150, 151, 152, 153, 154, 155, 156, 157, 158, 159, 160, 161, 162, 163, 164, 165, 166, 167, 168, 169, 170, 171, 172, 173, 174, 175, 176, 177, 178, 179, 180, 181, 182, 183, 184, 185, 186, 187, 188, 189, 190, 191, 192, 193, 194, 195, 196, 197, 198, 199, 200, 201, 202, 203, 204, 205, 206, 207, 208, 209, 210, 211, 212, 213, 214, 215, 216, 217, 218, 219, 220, 221, 222, 223, 224, 225, 226, 227, 228, 229, 230, 231, 232, 233, 234, 235, 236, 237, 238, 239, 240, 241, 242, 243, 244, 245, 246, 247, 248, 249, 250, 251, 252, 253, 254, 255, 256, 257, 258, 259, 260, 261, 262, 263, 264, 265, 266, 267, 268, 269, 270, 271, 272, 273, 274, 275, 276, 277, 278, 279, 280, 281, 282, 283, 284, 285, 286, 287, 288, 289, 290, 291, 292, 293, 294, 295, 296, 297, 298, 299, 300],
      "AcquisitionTime": ["132127.630000", "132128.630000", "132129.630000", "132130.630000", "132131.630000", "132132.630000", "132133.630000", "132134.630000", "132135.630000", "132136.630000", "132137.630000", "132138.630000", "132139.630000", "132140.630000", "132141.630000", "132142.630000", "132143.630000", "132144.630000", "132145.630000", "132146.630000", "132147.630000", "132148.630000", "132149.630000", "132150.630000", "132151.630000", "132152.630000", "132153.630000", "132154.630000", "132155.630000", "132156.630000", "132157.630000", "132158.630000", "132159.630000", "132200.630000", "132201.630000", "132202.630000", "132203.630000", "132204.630000", "132205.630000", "132206.630000", "132207.630000", "132208.630000", "132209.630000", "132210.630000", "132211.630000", "132212.630000", "132213.630000", "132214.630000", "132215.630000", "132216.630000", "132217.630000", "132218.630000", "132219.630000", "132220.630000", "132221.630000", "132222.630000", "132223.630000", "132224.630000", "132225.630000", "132226.630000", "132227.630000", "132228.630000", "132229.630000", "132230.630000", "132231.630000", "132232.630000", "132233.630000", "132234.630000", "132235.630000", "132236.630000", "132237.630000", "132238.630000", "132239.630000", "132240.630000", "132241.630000", "132242.630000", "132243.630000", "132244.630000", "132245.630000", "132246.630000", "132247.630000", "132248.630000", "132249.630000", "132250.630000", "132251.630000", "132252.630000", "132253.630000", "132254.630000", "132255.630000", "132256.630000", "132257.630000", "132258.630000", "132259.630000", "132300.630000", "132301.630000", "132302.630000", "132303.630000", "132304.630000", "132305.630000", "132306.630000", "132307.630000", "132308.630000", "132309.630000", "132310.630000", "132311.630000", "132312.630000", "132313.630000", "132314.630000", "132315.630000", "132316.630000", "132317.630000", "132318.630000", "132319.630000", "132320.630000", "132321.630000", "132322.630000", "132323.630000", "132324.630000", "132325.630000", "132326.630000", "132327.630000", "132328.630000", "132329.630000", "132330.630000", "132331.630000", "132332.630000", "132333.630000", "132334.630000", "132335.630000", "132336.630000", "132337.630000", "132338.630000", "132339.630000", "132340.630000", "132341.630000", "132342.630000", "132343.630000", "132344.630000", "132345.630000", "132346.630000", "132347.630000", "132348.630000", "132349.630000", "132350.630000", "132351.630000", "132352.630000", "132353.630000", "132354.630000", "132355.630000", "132356.630000", "132357.630000", "132358.630000", "132359.630000", "132400.630000", "132401.630000", "132402.630000", "132403.630000", "132404.630000", "132405.630000", "132406.630000", "132407.630000", "132408.630000", "132409.630000", "132410.630000", "132411.630000", "132412.630000", "132413.630000", "132414.630000", "132415.630000", "132416.630000", "132417.630000", "132418.630000", "132419.630000", "132420.630000", "132421.630000", "132422.630000", "132423.630000", "132424.630000", "132425.630000", "132426.630000", "132427.630000", "132428.630000", "132429.630000", "132430.630000", "132431.630000", "132432.630000", "132433.630000", "132434.630000", "132435.630000", "132436.630000", "132437.630000", "132438.630000", "132439.630000", "132440.630000", "132441.630000", "132442.630000", "132443.630000", "132444.630000", "132445.630000", "132446.630000", "132447.630000", "132448.630000", "132449.630000", "132450.630000", "132451.630000", "132452.630000", "132453.630000", "132454.630000", "132455.630000", "132456.630000", "132457.630000", "132458.630000", "132459.630000", "132500.630000", "132501.630000", "132502.630000", "132503.630000", "132504.630000", "132505.630000", "132506.630000", "132507.630000", "132508.630000", "132509.630000", "132510.630000", "132511.630000", "132512.630000", "132513.630000", "132514.630000", "132515.630000", "132516.630000", "132517.630000", "132518.630000", "132519.630000", "132520.630000", "132521.630000", "132522.630000", "132523.630000", "132524.630000", "132525.630000", "132526.630000", "132527.630000", "132528.630000", "132529.630000", "132530.630000", "132531.630000", "132532.630000", "132533.630000", "132534.630000", "132535.630000", "132536.630000", "132537.630000", "132538.630000", "132539.630000", "132540.630000", "132541.630000", "132542.630000", "132543.630000", "132544.630000", "132545.630000", "132546.630000", "132547.630000", "132548.630000", "132549.630000", "132550.630000", "132551.630000", "132552.630000", "132553.630000", "132554.630000", "132555.630000", "132556.630000", "132557.630000", "132558.630000", "132559.630000", "132600.630000", "132601.630000", "132602.630000", "132603.630000", "132604.630000", "132605.630000", "132606.630000", "132607.630000", "132608.630000", "132609.630000", "132610.630000", "132611.630000", "132612.630000", "132613.630000", "132614.630000", "132615.630000", "132616.630000", "132617.630000", "132618.630000", "132619.630000", "132620.630000", "132621.630000", "132622.630000", "132623.630000", "132624.630000", "132625.630000", "132626.630000"],
      "ContentTime": ["132240.748000", "132240.752000", "132240.755000", "132240.758000", "132240.761000", "132240.764000", "132240.767000", "132240.770000", "132240.780000", "132240.783000", "132240.786000", "132240.789000", "132240.792000", "132240.795000", "132240.798000", "132240.801000", "132240.804000", "132240.807000", "132240.810000", "132240.813000", "132240.816000", "132240.819000", "132240.822000", "132240.826000", "132240.829000", "132240.832000", "132240.835000", "132240.838000", "132240.841000", "132240.844000", "132240.847000", "132240.857000", "132240.860000", "132300.719000", "132300.722000", "132300.732000", "132300.735000", "132300.738000", "132300.741000", "132300.744000", "132300.747000", "132300.750000", "132300.753000", "132300.756000", "132300.759000", "132300.762000", "132300.765000", "132300.769000", "132300.772000", "132300.775000", "132300.778000", "132300.781000", "132300.784000", "132300.787000", "132300.790000", "132300.793000", "132300.796000", "132300.799000", "132300.802000", "132300.805000", "132300.808000", "132320.719000", "132320.722000", "132320.725000", "132320.728000", "132320.731000", "132320.734000", "132320.738000", "132320.749000", "132320.752000", "132320.755000", "132320.759000", "132320.762000", "132320.765000", "132320.768000", "132320.771000", "132320.774000", "132320.777000", "132320.780000", "132320.783000", "132320.786000", "132320.789000", "132320.792000", "132320.795000", "132320.798000", "132320.801000", "132320.804000", "132320.807000", "132320.811000", "132340.719000", "132340.722000", "132340.725000", "132340.729000", "132340.732000", "132340.735000", "132340.738000", "132340.741000", "132340.744000", "132340.747000", "132340.750000", "132340.759000", "132340.762000", "132340.765000", "132340.768000", "132340.771000", "132340.774000", "132340.777000", "132340.780000", "132340.784000", "132340.787000", "132340.790000", "132340.799000", "132340.802000", "132340.805000", "132340.808000", "132340.811000", "132340.814000", "132340.817000", "132400.719000", "132400.722000", "132400.725000", "132400.729000", "132400.732000", "132400.735000", "132400.738000", "132400.741000", "132400.744000", "132400.747000", "132400.750000", "132400.753000", "132400.756000", "132400.759000", "132400.762000", "132400.765000", "132400.768000", "132400.771000", "132400.774000", "132400.777000", "132400.780000", "132400.783000", "132400.786000", "132400.789000", "132400.793000", "132400.796000", "132400.799000", "132400.802000", "132420.720000", "132420.723000", "132420.726000", "132420.729000", "132420.732000", "132420.735000", "132420.738000", "132420.742000", "132420.745000", "132420.748000", "132420.751000", "132420.768000", "132420.771000", "132420.774000", "132420.777000", "132420.780000", "132420.783000", "132420.786000", "132420.789000", "132420.793000", "132420.796000", "132420.799000", "132420.802000", "132420.805000", "132420.808000", "132420.811000", "132440.720000", "132440.723000", "132440.726000", "132440.729000", "132440.732000", "132440.735000", "132440.739000", "132440.742000", "132440.745000", "132440.748000", "132440.751000", "132440.754000", "132440.757000", "132440.760000", "132440.763000", "132440.776000", "132440.779000", "132440.782000", "132440.785000", "132440.788000", "132500.720000", "132500.723000", "132500.726000", "132500.729000", "132500.733000", "132500.736000", "132500.739000", "132500.742000", "132500.745000", "132500.748000", "132500.751000", "132500.754000", "132500.757000", "132500.760000", "132500.763000", "132500.766000", "132500.769000", "132500.772000", "132500.785000", "132500.788000", "132520.719000", "132520.722000", "132520.725000", "132520.728000", "132520.731000", "132520.735000", "132520.738000", "132520.741000", "132520.744000", "132520.747000", "132520.750000", "132520.753000", "132520.756000", "132520.759000", "132520.762000", "132520.765000", "132520.768000", "132520.771000", "132520.774000", "132520.777000", "132540.719000", "132540.722000", "132540.725000", "132540.729000", "132540.732000", "132540.735000", "132540.738000", "132540.741000", "132540.744000", "132540.747000", "132540.750000", "132540.753000", "132540.756000", "132540.759000", "132540.762000", "132540.765000", "132540.768000", "132540.771000", "132540.775000", "132540.778000", "132600.719000", "132600.722000", "132600.725000", "132600.729000", "132600.732000", "132600.735000", "132600.738000", "132600.741000", "132600.744000", "132600.747000", "132600.750000", "132600.753000", "132600.756000", "132600.759000", "132600.762000", "132600.765000", "132600.768000", "132600.771000", "132600.774000", "132600.777000", "132620.719000", "132620.722000", "132620.725000", "132620.728000", "132620.731000", "132620.735000", "132620.738000", "132620.741000", "132620.744000", "132620.747000", "132620.750000", "132620.753000", "132620.756000", "132620.759000", "132620.762000", "132620.765000", "132620.768000", "132620.771000", "132620.774000", "132620.777000", "132627.848000", "132627.851000", "132627.855000", "132627.858000", "132627.861000", "132627.864000", "132627.867000", "132627.870000"],
      "InstanceCreationTime": ["132240.748000", "132240.752000", "132240.755000", "132240.758000", "132240.761000", "132240.764000", "132240.767000", "132240.770000", "132240.780000", "132240.783000", "132240.786000", "132240.789000", "132240.792000", "132240.795000", "132240.798000", "132240.801000", "132240.804000", "132240.807000", "132240.810000", "132240.813000", "132240.816000", "132240.819000", "132240.822000", "132240.826000", "132240.829000", "132240.832000", "132240.835000", "132240.838000", "132240.841000", "132240.844000", "132240.847000", "132240.857000", "132240.860000", "132300.719000", "132300.722000", "132300.732000", "132300.735000", "132300.738000", "132300.741000", "132300.744000", "132300.747000", "132300.750000", "132300.753000", "132300.756000", "132300.759000", "132300.762000", "132300.765000", "132300.769000", "132300.772000", "132300.775000", "132300.778000", "132300.781000", "132300.784000", "132300.787000", "132300.790000", "132300.793000", "132300.796000", "132300.799000", "132300.802000", "132300.805000", "132300.808000", "132320.719000", "132320.722000", "132320.725000", "132320.728000", "132320.731000", "132320.734000", "132320.738000", "132320.749000", "132320.752000", "132320.755000", "132320.759000", "132320.762000", "132320.765000", "132320.768000", "132320.771000", "132320.774000", "132320.777000", "132320.780000", "132320.783000", "132320.786000", "132320.789000", "132320.792000", "132320.795000", "132320.798000", "132320.801000", "132320.804000", "132320.807000", "132320.811000", "132340.719000", "132340.722000", "132340.725000", "132340.729000", "132340.732000", "132340.735000", "132340.738000", "132340.741000", "132340.744000", "132340.747000", "132340.750000", "132340.759000", "132340.762000", "132340.765000", "132340.768000", "132340.771000", "132340.774000", "132340.777000", "132340.780000", "132340.784000", "132340.787000", "132340.790000", "132340.799000", "132340.802000", "132340.805000", "132340.808000", "132340.811000", "132340.814000", "132340.817000", "132400.719000", "132400.722000", "132400.725000", "132400.729000", "132400.732000", "132400.735000", "132400.738000", "132400.741000", "132400.744000", "132400.747000", "132400.750000", "132400.753000", "132400.756000", "132400.759000", "132400.762000", "132400.765000", "132400.768000", "132400.771000", "132400.774000", "132400.777000", "132400.780000", "132400.783000", "132400.786000", "132400.789000", "132400.793000", "132400.796000", "132400.799000", "132400.802000", "132420.720000", "132420.723000", "132420.726000", "132420.729000", "132420.732000", "132420.735000", "132420.738000", "132420.742000", "132420.745000", "132420.748000", "132420.751000", "132420.768000", "132420.771000", "132420.774000", "132420.777000", "132420.780000", "132420.783000", "132420.786000", "132420.789000", "132420.793000", "132420.796000", "132420.799000", "132420.802000", "132420.805000", "132420.808000", "132420.811000", "132440.720000", "132440.723000", "132440.726000", "132440.729000", "132440.732000", "132440.735000", "132440.739000", "132440.742000", "132440.745000", "132440.748000", "132440.751000", "132440.754000", "132440.757000", "132440.760000", "132440.763000", "132440.776000", "132440.779000", "132440.782000", "132440.785000", "132440.788000", "132500.720000", "132500.723000", "132500.726000", "132500.729000", "132500.733000", "132500.736000", "132500.739000", "132500.742000", "132500.745000", "132500.748000", "132500.751000", "132500.754000", "132500.757000", "132500.760000", "132500.763000", "132500.766000", "132500.769000", "132500.772000", "132500.785000", "132500.788000", "132520.719000", "132520.722000", "132520.725000", "132520.728000", "132520.731000", "132520.735000", "132520.738000", "132520.741000", "132520.744000", "132520.747000", "132520.750000", "132520.753000", "132520.756000", "132520.759000", "132520.762000", "132520.765000", "132520.768000", "132520.771000", "132520.774000", "132520.777000", "132540.719000", "132540.722000", "132540.725000", "132540.729000", "132540.732000", "132540.735000", "132540.738000", "132540.741000", "132540.744000", "132540.747000", "132540.750000", "132540.753000", "132540.756000", "132540.759000", "132540.762000", "132540.765000", "132540.768000", "132540.771000", "132540.775000", "132540.778000", "132600.719000", "132600.722000", "132600.725000", "132600.729000", "132600.732000", "132600.735000", "132600.738000", "132600.741000", "132600.744000", "132600.747000", "132600.750000", "132600.753000", "132600.756000", "132600.759000", "132600.762000", "132600.765000", "132600.768000", "132600.771000", "132600.774000", "132600.777000", "132620.719000", "132620.722000", "132620.725000", "132620.728000", "132620.731000", "132620.735000", "132620.738000", "132620.741000", "132620.744000", "132620.747000", "132620.750000", "132620.753000", "132620.756000", "132620.759000", "132620.762000", "132620.765000", "132620.768000", "132620.771000", "132620.774000", "132620.777000", "132627.848000", "132627.851000", "132627.855000", "132627.858000", "132627.861000", "132627.864000", "132627.867000", "132627.870000"],
      "InstanceNumber": [1, 2, 3, 4, 5, 6, 7, 8, 9, 10, 11, 12, 13, 14, 15, 16, 17, 18, 19, 20, 21, 22, 23, 24, 25, 26, 27, 28, 29, 30, 31, 32, 33, 34, 35, 36, 37, 38, 39, 40, 41, 42, 43, 44, 45, 46, 47, 48, 49, 50, 51, 52, 53, 54, 55, 56, 57, 58, 59, 60, 61, 62, 63, 64, 65, 66, 67, 68, 69, 70, 71, 72, 73, 74, 75, 76, 77, 78, 79, 80, 81, 82, 83, 84, 85, 86, 87, 88, 89, 90, 91, 92, 93, 94, 95, 96, 97, 98, 99, 100, 101, 102, 103, 104, 105, 106, 107, 108, 109, 110, 111, 112, 113, 114, 115, 116, 117, 118, 119, 120, 121, 122, 123, 124, 125, 126, 127, 128, 129, 130, 131, 132, 133, 134, 135, 136, 137, 138, 139, 140, 141, 142, 143, 144, 145, 146, 147, 148, 149, 150, 151, 152, 153, 154, 155, 156, 157, 158, 159, 160, 161, 162, 163, 164, 165, 166, 167, 168, 169, 170, 171, 172, 173, 174, 175, 176, 177, 178, 179, 180, 181, 182, 183, 184, 185, 186, 187, 188, 189, 190, 191, 192, 193, 194, 195, 196, 197, 198, 199, 200, 201, 202, 203, 204, 205, 206, 207, 208, 209, 210, 211, 212, 213, 214, 215, 216, 217, 218, 219, 220, 221, 222, 223, 224, 225, 226, 227, 228, 229, 230, 231, 232, 233, 234, 235, 236, 237, 238, 239, 240, 241, 242, 243, 244, 245, 246, 247, 248, 249, 250, 251, 252, 253, 254, 255, 256, 257, 258, 259, 260, 261, 262, 263, 264, 265, 266, 267, 268, 269, 270, 271, 272, 273, 274, 275, 276, 277, 278, 279, 280, 281, 282, 283, 284, 285, 286, 287, 288, 289, 290, 291, 292, 293, 294, 295, 296, 297, 298, 299, 300],
      "LargestImagePixelValue": [36838, 35676, 34503, 33907, 33916, 34078, 33312, 33619, 33971, 33618, 33505, 33573, 33884, 33340, 32880, 33500, 33601, 33432, 33418, 33466, 33428, 33088, 33204, 33312, 33152, 33319, 33602, 33290, 33260, 33734, 33481, 32764, 33607, 33744, 33309, 33078, 33275, 33276, 32968, 33417, 33631, 33558, 33132, 33618, 33308, 33109, 33554, 33542, 33137, 33334, 33575, 32828, 33134, 33148, 33132, 33152, 33092, 33175, 33596, 33631, 33029, 33391, 33038, 33129, 33005, 33264, 32878, 32545, 33006, 32811, 32905, 32618, 32963, 32851, 32825, 32872, 33061, 33058, 33035, 33157, 33302, 33076, 33310, 33363, 33295, 33030, 33157, 33088, 32973, 33080, 33236, 32825, 33155, 33084, 33078, 33174, 33256, 33045, 33284, 33065, 33450, 33071, 32949, 33159, 33343, 33186, 33281, 33252, 33557, 33271, 33185, 33431, 33124, 33042, 33119, 33219, 33149, 33348, 33136, 33014, 33319, 33416, 32945, 33035, 33330, 32777, 32814, 33223, 32752, 32777, 33013, 33307, 33209, 33127, 33390, 32897, 33231, 33286, 33165, 32712, 32925, 33139, 33060, 33099, 33091, 33334, 32990, 33172, 33435, 33212, 32722, 33024, 33125, 32780, 32962, 33142, 33358, 33087, 33164, 33523, 33380, 32859, 33425, 32996, 33144, 32701, 32971, 33350, 32946, 32854, 33270, 32960, 33094, 33177, 33122, 32970, 32724, 33200, 33363, 32692, 32777, 33516, 32872, 33025, 33168, 33176, 33922, 33212, 33826, 33106, 33166, 33431, 32985, 33038, 33486, 33289, 32910, 33261, 33257, 33037, 33009, 33744, 33859, 32807, 33015, 33625, 33080, 32989, 33755, 33558, 33074, 33181, 33209, 33268, 32854, 33373, 33506, 32864, 33178, 33457, 33151, 33034, 33474, 33262, 33256, 33246, 33297, 33119, 32899, 33036, 33531, 33138, 33647, 33704, 33207, 33079, 33425, 33171, 32965, 33545, 33323, 32961, 32934, 33329, 32994, 32831, 33554, 33111, 32837, 33553, 33422, 33329, 33155, 33627, 33506, 33224, 33448, 33489, 32921, 32982, 33648, 33150, 33335, 33516, 33159, 32884, 33739, 33619, 32926, 33221, 33552, 33095, 33095, 33312, 33244, 33024, 33358, 33676, 33088, 33273, 33414, 33137, 33193, 33356, 33933, 33343, 33175, 33553, 32922, 32922, 33285, 33662, 33073, 32718, 33581, 33442, 33427, 33273, 32880, 33515],
      "WindowCenter": [10021.0, 9955.0, 9918.0, 9899.0, 9903.0, 9904.0, 9900.0, 9900.0, 9905.0, 9897.0, 9889.0, 9887.0, 9886.0, 9874.0, 9866.0, 9883.0, 9885.0, 9885.0, 9880.0, 9879.0, 9871.0, 9870.0, 9879.0, 9885.0, 9894.0, 9903.0, 9917.0, 9907.0, 9905.0, 9903.0, 9895.0, 9883.0, 9899.0, 9900.0, 9902.0, 9904.0, 9904.0, 9903.0, 9897.0, 9897.0, 9901.0, 9893.0, 9894.0, 9895.0, 9887.0, 9886.0, 9892.0, 9890.0, 9886.0, 9893.0, 9898.0, 9886.0, 9886.0, 9883.0, 9875.0, 9868.0, 9853.0, 9858.0, 9873.0, 9880.0, 9871.0, 9869.0, 9861.0, 9854.0, 9852.0, 9851.0, 9845.0, 9840.0, 9851.0, 9850.0, 9851.0, 9846.0, 9851.0, 9850.0, 9844.0, 9844.0, 9850.0, 9867.0, 9892.0, 9902.0, 9911.0, 9905.0, 9895.0, 9888.0, 9877.0, 9861.0, 9860.0, 9854.0, 9855.0, 9861.0, 9867.0, 9862.0, 9868.0, 9861.0, 9855.0, 9858.0, 9851.0, 9842.0, 9840.0, 9833.0, 9845.0, 9842.0, 9851.0, 9857.0, 9859.0, 9862.0, 9871.0, 9885.0, 9893.0, 9888.0, 9888.0, 9889.0, 9880.0, 9873.0, 9874.0, 9884.0, 9879.0, 9886.0, 9889.0, 9889.0, 9888.0, 9880.0, 9873.0, 9866.0, 9863.0, 9855.0, 9853.0, 9853.0, 9839.0, 9847.0, 9863.0, 9878.0, 9886.0, 9889.0, 9883.0, 9874.0, 9871.0, 9864.0, 9854.0, 9839.0, 9837.0, 9844.0, 9846.0, 9854.0, 9856.0, 9861.0, 9855.0, 9874.0, 9834.0, 9834.0, 9836.0, 9837.0, 9848.0, 9838.0, 9845.0, 9860.0, 9862.0, 9856.0, 9853.0, 9860.0, 9860.0, 9863.0, 9878.0, 9880.0, 9880.0, 9866.0, 9863.0, 9854.0, 9846.0, 9839.0, 9844.0, 9852.0, 9861.0, 9868.0, 9868.0, 9855.0, 9848.0, 9859.0, 9852.0, 9847.0, 9848.0, 9865.0, 9855.0, 9855.0, 9867.0, 9860.0, 9870.0, 9865.0, 9880.0, 9877.0, 9884.0, 9892.0, 9875.0, 9866.0, 9862.0, 9848.0, 9846.0, 9845.0, 9852.0, 9860.0, 9871.0, 9898.0, 9901.0, 9884.0, 9875.0, 9876.0, 9855.0, 9846.0, 9857.0, 9857.0, 9845.0, 9859.0, 9868.0, 9869.0, 9857.0, 9859.0, 9856.0, 9844.0, 9842.0, 9848.0, 9842.0, 9849.0, 9864.0, 9867.0, 9868.0, 9861.0, 9861.0, 9855.0, 9853.0, 9846.0, 9857.0, 9859.0, 9865.0, 9866.0, 9861.0, 9856.0, 9859.0, 9852.0, 9844.0, 9848.0, 9834.0, 9833.0, 9836.0, 9851.0, 9854.0, 9856.0, 9861.0, 9848.0, 9836.0, 9834.0, 9826.0, 9824.0, 9830.0, 9838.0, 9847.0, 9851.0, 9858.0, 9859.0, 9846.0, 9838.0, 9841.0, 9841.0, 9850.0, 9859.0, 9853.0, 9846.0, 9851.0, 9850.0, 9836.0, 9841.0, 9847.0, 9837.0, 9843.0, 9843.0, 9843.0, 9836.0, 9841.0, 9848.0, 9846.0, 9853.0, 9861.0, 9862.0, 9860.0, 9846.0, 9855.0, 9851.0, 9853.0, 9861.0, 9862.0, 9863.0, 9862.0, 9853.0, 9840.0, 9832.0, 9850.0, 9859.0, 9878.0, 9887.0, 9877.0, 9875.0],
