{
  "AcquisitionMatrixPE": 104,
  "AcquisitionNumber": 1,
  "AcquisitionTime": "13:49:29.840000",
  "BandwidthPerPixelPhaseEncode": 16.578,
  "BaseResolution": 104,
  "BodyPartExamined": "BRAIN",
  "ConsistencyInfo": "N4_VE11C_LATEST_20160120",
  "ConversionSoftware": "dcm2niix",
  "ConversionSoftwareVersion": "v1.0.20190902",
  "DerivedVendorReportedEchoSpacing": 0.000580009,
  "DeviceSerialNumber": "166018",
  "DwellTime": 2.1e-06,
  "EchoTime": 0.037,
  "EchoTrainLength": 104,
  "EffectiveEchoSpacing": 0.000580009,
  "FlipAngle": 68,
  "ImageComments": "Unaliased_MB6_PE3_LB",
  "ImageOrientationPatientDICOM": [0.995554, 0.0645202, -0.0686182, -0.0769534, 0.97726, -0.19759],
  "ImageType": [
    "ORIGINAL",
    "PRIMARY",
    "M",
    "MB",
    "ND",
    "MOSAIC"
],
  "ImagingFrequency": 123.191,
  "InPlanePhaseEncodingDirectionDICOM": "COL",
  "InstitutionAddress": "Washington_Place_6_NYC_NYC_US_10003",
  "InstitutionName": "NYU_-_CBI",
  "InstitutionalDepartmentName": "Department",
  "MRAcquisitionType": "2D",
  "MagneticFieldStrength": 3,
  "Manufacturer": "Siemens",
  "ManufacturersModelName": "Prisma",
  "Modality": "MR",
  "MultibandAccelerationFactor": 6,
  "PartialFourier": 1,
  "PatientPosition": "HFS",
  "PercentPhaseFOV": 100,
  "PhaseEncodingDirection": "j",
  "PhaseEncodingSteps": 104,
  "PhaseResolution": 1,
  "PixelBandwidth": 2290,
  "ProcedureStepDescription": "Investigators_Winawer",
  "ProtocolName": "cmrr_mbepi_s6_2mm_66sl_PA_task-prf",
  "PulseSequenceDetails": "%CustomerSeq%_cmrr_mbep2d_bold",
  "ReceiveCoilActiveElements": "HC1-7",
  "ReceiveCoilName": "HeadNeck_64",
  "ReconMatrixPE": 104,
  "RepetitionTime": 1,
  "SAR": 0.0983483,
  "ScanOptions": "FS",
  "ScanningSequence": "EP",
  "SequenceName": "epfid2d1_104",
  "SequenceVariant": "SK_SS",
  "SeriesDescription": "cmrr_mbepi_s6_2mm_66sl_PA_task-prf",
  "SeriesNumber": 22,
  "ShimSetting": [231, -12585, -8463, 401, -12, -194, 23, 27],
  "SliceThickness": 2,
  "SliceTiming": [0, 0.5325, 0.0875, 0.6225, 0.1775, 0.7125, 0.265, 0.8, 0.355, 0.89, 0.445, 0, 0.5325, 0.0875, 0.6225, 0.1775, 0.7125, 0.265, 0.8, 0.355, 0.89, 0.445, 0, 0.5325, 0.0875, 0.6225, 0.1775, 0.7125, 0.265, 0.8, 0.355, 0.89, 0.445, 0, 0.5325, 0.0875, 0.6225, 0.1775, 0.7125, 0.265, 0.8, 0.355, 0.89, 0.445, 0, 0.5325, 0.0875, 0.6225, 0.1775, 0.7125, 0.265, 0.8, 0.355, 0.89, 0.445, 0, 0.5325, 0.0875, 0.6225, 0.1775, 0.7125, 0.265, 0.8, 0.355, 0.89, 0.445],
  "SoftwareVersions": "syngo_MR_E11",
  "SpacingBetweenSlices": 2,
  "StationName": "AWP166018",
  "TaskName": "prf",
  "TotalReadoutTime": 0.0597409,
  "TxRefAmp": 271.107,
  "WipMemBlock": "725d8e8b-d981-4577-b6bf-1fc4e442c617||Sequence: R016 ve11c/master r/8780670; Nov 27 2017 15:05:12 by eja",
  "dcmmeta_affine": [
    [-1.9911088943481445, -0.15390674769878387, -0.10861846804618835, 114.90558624267578],
    [-0.1290404498577118, 1.954519271850586, -0.4039839208126068, -68.88261413574219],
    [-0.13723637163639069, 0.3951798975467682, 1.9557604789733887, -60.4350471496582],
    [0.0, 0.0, 0.0, 1.0]
],
  "dcmmeta_reorient_transform": [
    [0.0, -1.0, 0.0, 103.0],
    [1.0, 0.0, 0.0, 0.0],
    [0.0, 0.0, 1.0, 0.0],
    [0.0, 0.0, 0.0, 1.0]
],
  "dcmmeta_shape": [104, 104, 66, 192],
  "dcmmeta_slice_dim": 2,
  "dcmmeta_version": 0.6,
  "global": {
    "const": {
      "AccessionNumber": "jxweL473",
      "AcquisitionMatrix": [104, 0, 0, 104],
      "AngioFlag": "N",
      "BitsAllocated": 16,
      "BitsStored": 16,
      "BodyPartExamined": "BRAIN",
      "Columns": 936,
      "EchoNumbers": 1,
      "EchoTime": 37.0,
      "EchoTrainLength": 104,
      "FlipAngle": 68.0,
      "HighBit": 15,
      "ImageOrientationPatient": [0.99555446120522, 0.0645202274782, -0.0686181828712, -0.0769533761215, 0.97725963343646, -0.1975899459971],
      "ImagePositionPatient": [-863.32929168096, -999.19371646346, 201.75364477183],
      "ImageType": [
        "ORIGINAL",
        "PRIMARY",
        "M",
        "MB",
        "ND",
        "MOSAIC"
],
      "ImagedNucleus": "1H",
      "ImagingFrequency": 123.191085,
      "InPlanePhaseEncodingDirection": "COL",
      "MRAcquisitionType": "2D",
      "MagneticFieldStrength": 3.0,
      "Manufacturer": "SIEMENS",
      "ManufacturerModelName": "Prisma",
      "Modality": "MR",
      "NumberOfAverages": 1.0,
      "NumberOfPhaseEncodingSteps": 104,
      "PercentPhaseFieldOfView": 100.0,
      "PercentSampling": 100.0,
      "PerformedProcedureStepStartTime": "131535.069000",
      "PhotometricInterpretation": "MONOCHROME2",
      "PixelBandwidth": 2290.0,
      "PixelRepresentation": 0,
      "PixelSpacing": [2.0, 2.0],
      "ProtocolName": "cmrr_mbepi_s6_2mm_66sl_PA_task-prf",
      "RepetitionTime": 1000.0,
      "Rows": 936,
      "SAR": 0.0983482532159,
      "SamplesPerPixel": 1,
      "ScanOptions": "FS",
      "ScanningSequence": "EP",
      "SequenceName": "epfid2d1_104",
      "SequenceVariant": [
        "SK",
        "SS"
],
      "SeriesDescription": "cmrr_mbepi_s6_2mm_66sl_PA_task-prf",
      "SeriesNumber": 22,
      "SeriesTime": "135039.644000",
      "SliceLocation": -51.424939053249,
      "SliceThickness": 2.0,
      "SmallestImagePixelValue": 0,
      "SoftwareVersions": "syngo MR E11",
      "SpacingBetweenSlices": 2.0000000124456,
      "SpecificCharacterSet": "ISO_IR 100",
      "StudyID": "1",
      "StudyTime": "131534.955000",
      "TransmitCoilName": "Body",
      "VariableFlipAngleFlag": "N",
      "WindowCenterWidthExplanation": "Algo1",
      "dBdt": 0.0},
    "slices": {}
  },
  "time": {
    "samples": {
      "AcquisitionNumber": [1, 2, 3, 4, 5, 6, 7, 8, 9, 10, 11, 12, 13, 14, 15, 16, 17, 18, 19, 20, 21, 22, 23, 24, 25, 26, 27, 28, 29, 30, 31, 32, 33, 34, 35, 36, 37, 38, 39, 40, 41, 42, 43, 44, 45, 46, 47, 48, 49, 50, 51, 52, 53, 54, 55, 56, 57, 58, 59, 60, 61, 62, 63, 64, 65, 66, 67, 68, 69, 70, 71, 72, 73, 74, 75, 76, 77, 78, 79, 80, 81, 82, 83, 84, 85, 86, 87, 88, 89, 90, 91, 92, 93, 94, 95, 96, 97, 98, 99, 100, 101, 102, 103, 104, 105, 106, 107, 108, 109, 110, 111, 112, 113, 114, 115, 116, 117, 118, 119, 120, 121, 122, 123, 124, 125, 126, 127, 128, 129, 130, 131, 132, 133, 134, 135, 136, 137, 138, 139, 140, 141, 142, 143, 144, 145, 146, 147, 148, 149, 150, 151, 152, 153, 154, 155, 156, 157, 158, 159, 160, 161, 162, 163, 164, 165, 166, 167, 168, 169, 170, 171, 172, 173, 174, 175, 176, 177, 178, 179, 180, 181, 182, 183, 184, 185, 186, 187, 188, 189, 190, 191, 192],
      "AcquisitionTime": ["134929.840000", "134930.840000", "134931.840000", "134932.840000", "134933.840000", "134934.840000", "134935.840000", "134936.840000", "134937.840000", "134938.840000", "134939.840000", "134940.840000", "134941.840000", "134942.840000", "134943.840000", "134944.840000", "134945.840000", "134946.840000", "134947.840000", "134948.840000", "134949.840000", "134950.840000", "134951.840000", "134952.840000", "134953.840000", "134954.840000", "134955.840000", "134956.840000", "134957.840000", "134958.840000", "134959.840000", "135000.840000", "135001.840000", "135002.840000", "135003.840000", "135004.840000", "135005.840000", "135006.840000", "135007.840000", "135008.840000", "135009.840000", "135010.840000", "135011.840000", "135012.840000", "135013.840000", "135014.840000", "135015.840000", "135016.840000", "135017.840000", "135018.840000", "135019.840000", "135020.840000", "135021.840000", "135022.840000", "135023.840000", "135024.840000", "135025.840000", "135026.840000", "135027.840000", "135028.840000", "135029.840000", "135030.840000", "135031.840000", "135032.840000", "135033.840000", "135034.840000", "135035.840000", "135036.840000", "135037.840000", "135038.840000", "135039.840000", "135040.840000", "135041.840000", "135042.840000", "135043.840000", "135044.840000", "135045.840000", "135046.840000", "135047.840000", "135048.840000", "135049.840000", "135050.840000", "135051.840000", "135052.840000", "135053.840000", "135054.840000", "135055.840000", "135056.840000", "135057.840000", "135058.840000", "135059.840000", "135100.840000", "135101.840000", "135102.840000", "135103.840000", "135104.840000", "135105.840000", "135106.840000", "135107.840000", "135108.840000", "135109.840000", "135110.840000", "135111.840000", "135112.840000", "135113.840000", "135114.840000", "135115.840000", "135116.840000", "135117.840000", "135118.840000", "135119.840000", "135120.840000", "135121.840000", "135122.840000", "135123.840000", "135124.840000", "135125.840000", "135126.840000", "135127.840000", "135128.840000", "135129.840000", "135130.840000", "135131.840000", "135132.840000", "135133.840000", "135134.840000", "135135.840000", "135136.840000", "135137.840000", "135138.840000", "135139.840000", "135140.840000", "135141.840000", "135142.840000", "135143.840000", "135144.840000", "135145.840000", "135146.840000", "135147.840000", "135148.840000", "135149.840000", "135150.840000", "135151.840000", "135152.840000", "135153.840000", "135154.840000", "135155.840000", "135156.840000", "135157.840000", "135158.840000", "135159.840000", "135200.840000", "135201.840000", "135202.840000", "135203.840000", "135204.840000", "135205.840000", "135206.840000", "135207.840000", "135208.840000", "135209.840000", "135210.840000", "135211.840000", "135212.840000", "135213.840000", "135214.840000", "135215.840000", "135216.840000", "135217.840000", "135218.840000", "135219.840000", "135220.840000", "135221.840000", "135222.840000", "135223.840000", "135224.840000", "135225.840000", "135226.840000", "135227.840000", "135228.840000", "135229.840000", "135230.840000", "135231.840000", "135232.840000", "135233.840000", "135234.840000", "135235.840000", "135236.840000", "135237.840000", "135238.840000", "135239.840000", "135240.840000"],
      "ContentTime": ["135039.646000", "135039.650000", "135039.659000", "135039.662000", "135039.666000", "135039.669000", "135039.672000", "135039.676000", "135039.679000", "135039.682000", "135039.685000", "135039.693000", "135039.697000", "135039.699000", "135039.702000", "135039.710000", "135039.713000", "135039.716000", "135039.719000", "135039.722000", "135059.616000", "135059.619000", "135059.622000", "135059.626000", "135059.629000", "135059.631000", "135059.634000", "135059.638000", "135059.640000", "135059.643000", "135059.646000", "135059.650000", "135059.653000", "135059.656000", "135059.659000", "135059.662000", "135059.665000", "135059.668000", "135059.671000", "135059.674000", "135059.677000", "135059.687000", "135059.690000", "135059.693000", "135059.696000", "135059.699000", "135059.703000", "135059.706000", "135119.616000", "135119.619000", "135119.622000", "135119.625000", "135119.628000", "135119.631000", "135119.634000", "135119.637000", "135119.640000", "135119.643000", "135119.646000", "135119.649000", "135119.652000", "135119.655000", "135119.658000", "135119.661000", "135119.664000", "135119.667000", "135119.670000", "135119.673000", "135119.676000", "135119.679000", "135119.682000", "135119.685000", "135119.688000", "135119.691000", "135119.694000", "135119.697000", "135119.700000", "135139.616000", "135139.619000", "135139.622000", "135139.625000", "135139.628000", "135139.631000", "135139.634000", "135139.649000", "135139.652000", "135139.655000", "135139.658000", "135139.661000", "135139.664000", "135139.667000", "135139.670000", "135139.673000", "135139.676000", "135139.679000", "135139.682000", "135139.685000", "135139.688000", "135139.691000", "135139.694000", "135139.697000", "135139.710000", "135139.713000", "135139.716000", "135139.719000", "135159.616000", "135159.619000", "135159.622000", "135159.625000", "135159.628000", "135159.631000", "135159.634000", "135159.637000", "135159.641000", "135159.653000", "135159.656000", "135159.659000", "135159.662000", "135159.665000", "135159.668000", "135159.671000", "135159.674000", "135159.677000", "135159.680000", "135159.683000", "135159.686000", "135159.689000", "135159.692000", "135159.695000", "135159.698000", "135159.701000", "135159.704000", "135159.707000", "135219.615000", "135219.618000", "135219.621000", "135219.624000", "135219.627000", "135219.630000", "135219.633000", "135219.637000", "135219.640000", "135219.643000", "135219.646000", "135219.649000", "135219.652000", "135219.655000", "135219.658000", "135219.661000", "135219.664000", "135219.667000", "135219.671000", "135219.674000", "135219.677000", "135219.680000", "135219.683000", "135219.686000", "135219.689000", "135219.692000", "135219.695000", "135219.698000", "135239.615000", "135239.618000", "135239.621000", "135239.624000", "135239.627000", "135239.630000", "135239.634000", "135239.637000", "135239.640000", "135239.643000", "135239.646000", "135239.649000", "135239.652000", "135239.655000", "135239.658000", "135239.661000", "135239.664000", "135239.667000", "135239.671000", "135239.674000", "135239.677000", "135239.680000", "135239.683000", "135239.686000", "135239.689000", "135239.692000", "135239.695000", "135242.716000", "135242.719000", "135242.722000", "135242.725000"],
      "InstanceCreationTime": ["135039.646000", "135039.650000", "135039.659000", "135039.662000", "135039.666000", "135039.669000", "135039.672000", "135039.676000", "135039.679000", "135039.682000", "135039.685000", "135039.693000", "135039.697000", "135039.699000", "135039.702000", "135039.710000", "135039.713000", "135039.716000", "135039.719000", "135039.722000", "135059.616000", "135059.619000", "135059.622000", "135059.626000", "135059.629000", "135059.631000", "135059.634000", "135059.638000", "135059.640000", "135059.643000", "135059.646000", "135059.650000", "135059.653000", "135059.656000", "135059.659000", "135059.662000", "135059.665000", "135059.668000", "135059.671000", "135059.674000", "135059.677000", "135059.687000", "135059.690000", "135059.693000", "135059.696000", "135059.699000", "135059.703000", "135059.706000", "135119.616000", "135119.619000", "135119.622000", "135119.625000", "135119.628000", "135119.631000", "135119.634000", "135119.637000", "135119.640000", "135119.643000", "135119.646000", "135119.649000", "135119.652000", "135119.655000", "135119.658000", "135119.661000", "135119.664000", "135119.667000", "135119.670000", "135119.673000", "135119.676000", "135119.679000", "135119.682000", "135119.685000", "135119.688000", "135119.691000", "135119.694000", "135119.697000", "135119.700000", "135139.616000", "135139.619000", "135139.622000", "135139.625000", "135139.628000", "135139.631000", "135139.634000", "135139.649000", "135139.652000", "135139.655000", "135139.658000", "135139.661000", "135139.664000", "135139.667000", "135139.670000", "135139.673000", "135139.676000", "135139.679000", "135139.682000", "135139.685000", "135139.688000", "135139.691000", "135139.694000", "135139.697000", "135139.710000", "135139.713000", "135139.716000", "135139.719000", "135159.616000", "135159.619000", "135159.622000", "135159.625000", "135159.628000", "135159.631000", "135159.634000", "135159.637000", "135159.641000", "135159.653000", "135159.656000", "135159.659000", "135159.662000", "135159.665000", "135159.668000", "135159.671000", "135159.674000", "135159.677000", "135159.680000", "135159.683000", "135159.686000", "135159.689000", "135159.692000", "135159.695000", "135159.698000", "135159.701000", "135159.704000", "135159.707000", "135219.615000", "135219.618000", "135219.621000", "135219.624000", "135219.627000", "135219.630000", "135219.633000", "135219.637000", "135219.640000", "135219.643000", "135219.646000", "135219.649000", "135219.652000", "135219.655000", "135219.658000", "135219.661000", "135219.664000", "135219.667000", "135219.671000", "135219.674000", "135219.677000", "135219.680000", "135219.683000", "135219.686000", "135219.689000", "135219.692000", "135219.695000", "135219.698000", "135239.615000", "135239.618000", "135239.621000", "135239.624000", "135239.627000", "135239.630000", "135239.634000", "135239.637000", "135239.640000", "135239.643000", "135239.646000", "135239.649000", "135239.652000", "135239.655000", "135239.658000", "135239.661000", "135239.664000", "135239.667000", "135239.671000", "135239.674000", "135239.677000", "135239.680000", "135239.683000", "135239.686000", "135239.689000", "135239.692000", "135239.695000", "135242.716000", "135242.719000", "135242.722000", "135242.725000"],
      "InstanceNumber": [1, 2, 3, 4, 5, 6, 7, 8, 9, 10, 11, 12, 13, 14, 15, 16, 17, 18, 19, 20, 21, 22, 23, 24, 25, 26, 27, 28, 29, 30, 31, 32, 33, 34, 35, 36, 37, 38, 39, 40, 41, 42, 43, 44, 45, 46, 47, 48, 49, 50, 51, 52, 53, 54, 55, 56, 57, 58, 59, 60, 61, 62, 63, 64, 65, 66, 67, 68, 69, 70, 71, 72, 73, 74, 75, 76, 77, 78, 79, 80, 81, 82, 83, 84, 85, 86, 87, 88, 89, 90, 91, 92, 93, 94, 95, 96, 97, 98, 99, 100, 101, 102, 103, 104, 105, 106, 107, 108, 109, 110, 111, 112, 113, 114, 115, 116, 117, 118, 119, 120, 121, 122, 123, 124, 125, 126, 127, 128, 129, 130, 131, 132, 133, 134, 135, 136, 137, 138, 139, 140, 141, 142, 143, 144, 145, 146, 147, 148, 149, 150, 151, 152, 153, 154, 155, 156, 157, 158, 159, 160, 161, 162, 163, 164, 165, 166, 167, 168, 169, 170, 171, 172, 173, 174, 175, 176, 177, 178, 179, 180, 181, 182, 183, 184, 185, 186, 187, 188, 189, 190, 191, 192],
      "LargestImagePixelValue": [41367, 38906, 40433, 36682, 40111, 39526, 39200, 39479, 39724, 39869, 38947, 40532, 40285, 41002, 40336, 40206, 39100, 40697, 40611, 38919, 39142, 38051, 38354, 36964, 38317, 37933, 40004, 38394, 37782, 38235, 37798, 39321, 38040, 37517, 37702, 37442, 37174, 37593, 37960, 38469, 36527, 38160, 38404, 39171, 37256, 35575, 38005, 38011, 37574, 37591, 37132, 38494, 38385, 38937, 38459, 39889, 41004, 41634, 41893, 41805, 41760, 41709, 41465, 40384, 40297, 40316, 39477, 39099, 42352, 38560, 39252, 41851, 42081, 41940, 42019, 41581, 40639, 40605, 39462, 39310, 38674, 40343, 39372, 39804, 37821, 37349, 38009, 38468, 37857, 37878, 39176, 38713, 38036, 39058, 38297, 37831, 37087, 36486, 36243, 36766, 37387, 38356, 39479, 38534, 39409, 39624, 38911, 39419, 41159, 38339, 38280, 39919, 40009, 39339, 41185, 41431, 40033, 38006, 39602, 41337, 41945, 42055, 41636, 42253, 41204, 40529, 41403, 41647, 41743, 41964, 42332, 42182, 42310, 42341, 41683, 41205, 40891, 41756, 42535, 41783, 41679, 42198, 42684, 40072, 39181, 38841, 38550, 38209, 38321, 37544, 39980, 37675, 36357, 36563, 39122, 40015, 38534, 40421, 40763, 38110, 39064, 40813, 41987, 42504, 42329, 42092, 41727, 42565, 41423, 41849, 41274, 42124, 42644, 41594, 41278, 41712, 36258, 37520, 38498, 38335, 38426, 38736, 39988, 39824, 39118, 40551, 39725, 39081, 41717, 42034, 41148, 41547],
      "WindowCenter": [9270.0, 9246.0, 9247.0, 9229.0, 9246.0, 9216.0, 9198.0, 9197.0, 9202.0, 9203.0, 9204.0, 9223.0, 9221.0, 9233.0, 9236.0, 9230.0, 9216.0, 9228.0, 9219.0, 9208.0, 9197.0, 9191.0, 9196.0, 9184.0, 9205.0, 9198.0, 9215.0, 9204.0, 9206.0, 9208.0, 9202.0, 9213.0, 9198.0, 9194.0, 9192.0, 9184.0, 9186.0, 9193.0, 9206.0, 9216.0, 9216.0, 9230.0, 9210.0, 9214.0, 9194.0, 9164.0, 9202.0, 9198.0, 9202.0, 9203.0, 9197.0, 9214.0, 9215.0, 9215.0, 9207.0, 9217.0, 9223.0, 9220.0, 9226.0, 9226.0, 9218.0, 9210.0, 9209.0, 9207.0, 9198.0, 9204.0, 9201.0, 9202.0, 9224.0, 9207.0, 9231.0, 9229.0, 9220.0, 9220.0, 9218.0, 9213.0, 9215.0, 9215.0, 9209.0, 9211.0, 9204.0, 9217.0, 9205.0, 9211.0, 9201.0, 9197.0, 9212.0, 9220.0, 9214.0, 9221.0, 9223.0, 9236.0, 9241.0, 9245.0, 9255.0, 9255.0, 9221.0, 9206.0, 9195.0, 9195.0, 9197.0, 9191.0, 9198.0, 9181.0, 9200.0, 9217.0, 9204.0, 9211.0, 9224.0, 9202.0, 9220.0, 9234.0, 9232.0, 9217.0, 9227.0, 9222.0, 9216.0, 9209.0, 9241.0, 9236.0, 9222.0, 9213.0, 9203.0, 9216.0, 9203.0, 9197.0, 9202.0, 9218.0, 9227.0, 9227.0, 9228.0, 9234.0, 9235.0, 9227.0, 9223.0, 9222.0, 9226.0, 9243.0, 9245.0, 9230.0, 9231.0, 9247.0, 9242.0, 9238.0, 9236.0, 9208.0, 9199.0, 9195.0, 9191.0, 9185.0, 9210.0, 9177.0, 9180.0, 9180.0, 9213.0, 9212.0, 9202.0, 9228.0, 9221.0, 9205.0, 9220.0, 9229.0, 9234.0, 9236.0, 9236.0, 9238.0, 9229.0, 9234.0, 9223.0, 9237.0, 9249.0, 9253.0, 9245.0, 9240.0, 9233.0, 9255.0, 9223.0, 9246.0, 9217.0, 9205.0, 9196.0, 9191.0, 9203.0, 9202.0, 9189.0, 9215.0, 9213.0, 9214.0, 9232.0, 9232.0, 9215.0, 9228.0],
      "WindowWidth": [19687.0, 19638.0, 19624.0, 19604.0, 19631.0, 19562.0, 19522.0, 19517.0, 19528.0, 19530.0, 19530.0, 19563.0, 19567.0, 19591.0, 19600.0, 19588.0, 19568.0, 19584.0, 19564.0, 19546.0, 19522.0, 19513.0, 19517.0, 19500.0, 19538.0, 19524.0, 19551.0, 19534.0, 19543.0, 19549.0, 19539.0, 19555.0, 19525.0, 19521.0, 19519.0, 19499.0, 19507.0, 19525.0, 19546.0, 19566.0, 19574.0, 19598.0, 19549.0, 19551.0, 19516.0, 19460.0, 19534.0, 19523.0, 19535.0, 19536.0, 19531.0, 19553.0, 19561.0, 19560.0, 19545.0, 19555.0, 19564.0, 19554.0, 19565.0, 19565.0, 19550.0, 19535.0, 19536.0, 19536.0, 19521.0, 19531.0, 19529.0, 19535.0, 19562.0, 19540.0, 19589.0, 19572.0, 19551.0, 19555.0, 19547.0, 19542.0, 19550.0, 19550.0, 19540.0, 19545.0, 19535.0, 19559.0, 19541.0, 19551.0, 19538.0, 19533.0, 19563.0, 19580.0, 19568.0, 19579.0, 19576.0, 19608.0, 19622.0, 19630.0, 19649.0, 19658.0, 19588.0, 19560.0, 19534.0, 19537.0, 19533.0, 19513.0, 19524.0, 19491.0, 19523.0, 19560.0, 19538.0, 19551.0, 19573.0, 19545.0, 19586.0, 19612.0, 19607.0, 19575.0, 19582.0, 19566.0, 19559.0, 19553.0, 19610.0, 19593.0, 19557.0, 19538.0, 19519.0, 19541.0, 19519.0, 19508.0, 19516.0, 19547.0, 19570.0, 19568.0, 19574.0, 19584.0, 19586.0, 19571.0, 19570.0, 19568.0, 19579.0, 19613.0, 19610.0, 19577.0, 19580.0, 19611.0, 19598.0, 19598.0, 19604.0, 19542.0, 19525.0, 19524.0, 19514.0, 19504.0, 19545.0, 19488.0, 19496.0, 19499.0, 19556.0, 19551.0, 19544.0, 19587.0, 19573.0, 19553.0, 19580.0, 19588.0, 19595.0, 19592.0, 19586.0, 19594.0, 19574.0, 19581.0, 19566.0, 19591.0, 19622.0, 19628.0, 19608.0, 19600.0, 19591.0, 19632.0, 19593.0, 19640.0, 19574.0, 19546.0, 19528.0, 19514.0, 19535.0, 19529.0, 19507.0, 19552.0, 19556.0, 19561.0, 19585.0, 19586.0, 19552.0, 19573.0]
    },
    "slices": {}
  },
  "NumberOfVolumes": 192
}