{
  "AcquisitionMatrixPE": 104,
  "AcquisitionNumber": 1,
  "AcquisitionTime": "13:54:3.807500",
  "BandwidthPerPixelPhaseEncode": 16.578,
  "BaseResolution": 104,
  "BodyPartExamined": "BRAIN",
  "ConsistencyInfo": "N4_VE11C_LATEST_20160120",
  "ConversionSoftware": "dcm2niix",
  "ConversionSoftwareVersion": "v1.0.20190902",
  "DerivedVendorReportedEchoSpacing": 0.000580009,
  "DeviceSerialNumber": "166018",
  "DwellTime": 2.1e-06,
  "EchoTime": 0.037,
  "EchoTrainLength": 104,
  "EffectiveEchoSpacing": 0.000580009,
  "FlipAngle": 68,
  "ImageComments": "Unaliased_MB6_PE3_LB",
  "ImageOrientationPatientDICOM": [0.995554, 0.0645202, -0.0686182, -0.0769534, 0.97726, -0.19759],
  "ImageType": [
    "ORIGINAL",
    "PRIMARY",
    "M",
    "MB",
    "ND",
    "MOSAIC"
],
  "ImagingFrequency": 123.191,
  "InPlanePhaseEncodingDirectionDICOM": "COL",
  "InstitutionAddress": "Washington_Place_6_NYC_NYC_US_10003",
  "InstitutionName": "NYU_-_CBI",
  "InstitutionalDepartmentName": "Department",
  "MRAcquisitionType": "2D",
  "MagneticFieldStrength": 3,
  "Manufacturer": "Siemens",
  "ManufacturersModelName": "Prisma",
  "Modality": "MR",
  "MultibandAccelerationFactor": 6,
  "PartialFourier": 1,
  "PatientPosition": "HFS",
  "PercentPhaseFOV": 100,
  "PhaseEncodingDirection": "j",
  "PhaseEncodingSteps": 104,
  "PhaseResolution": 1,
  "PixelBandwidth": 2290,
  "ProcedureStepDescription": "Investigators_Winawer",
  "ProtocolName": "cmrr_mbepi_s6_2mm_66sl_PA_task-prf",
  "PulseSequenceDetails": "%CustomerSeq%_cmrr_mbep2d_bold",
  "ReceiveCoilActiveElements": "HC1-7",
  "ReceiveCoilName": "HeadNeck_64",
  "ReconMatrixPE": 104,
  "RepetitionTime": 1,
  "SAR": 0.0983483,
  "ScanOptions": "FS",
  "ScanningSequence": "EP",
  "SequenceName": "epfid2d1_104",
  "SequenceVariant": "SK_SS",
  "SeriesDescription": "cmrr_mbepi_s6_2mm_66sl_PA_task-prf",
  "SeriesNumber": 24,
  "ShimSetting": [231, -12585, -8463, 401, -12, -194, 23, 27],
  "SliceThickness": 2,
  "SliceTiming": [0, 0.535, 0.0875, 0.6225, 0.1775, 0.7125, 0.2675, 0.8025, 0.355, 0.89, 0.445, 0, 0.535, 0.0875, 0.6225, 0.1775, 0.7125, 0.2675, 0.8025, 0.355, 0.89, 0.445, 0, 0.535, 0.0875, 0.6225, 0.1775, 0.7125, 0.2675, 0.8025, 0.355, 0.89, 0.445, 0, 0.535, 0.0875, 0.6225, 0.1775, 0.7125, 0.2675, 0.8025, 0.355, 0.89, 0.445, 0, 0.535, 0.0875, 0.6225, 0.1775, 0.7125, 0.2675, 0.8025, 0.355, 0.89, 0.445, 0, 0.535, 0.0875, 0.6225, 0.1775, 0.7125, 0.2675, 0.8025, 0.355, 0.89, 0.445],
  "SoftwareVersions": "syngo_MR_E11",
  "SpacingBetweenSlices": 2,
  "StationName": "AWP166018",
  "TaskName": "prf",
  "TotalReadoutTime": 0.0597409,
  "TxRefAmp": 271.107,
  "WipMemBlock": "e745fd60-538a-4c9f-a59d-df8d6dd3cb49||Sequence: R016 ve11c/master r/8780670; Nov 27 2017 15:05:12 by eja",
  "dcmmeta_affine": [
    [-1.9911088943481445, -0.15390674769878387, -0.10861846804618835, 114.90558624267578],
    [-0.1290404498577118, 1.954519271850586, -0.4039839208126068, -68.88261413574219],
    [-0.13723637163639069, 0.3951798975467682, 1.9557604789733887, -60.4350471496582],
    [0.0, 0.0, 0.0, 1.0]
],
  "dcmmeta_reorient_transform": [
    [0.0, -1.0, 0.0, 103.0],
    [1.0, 0.0, 0.0, 0.0],
    [0.0, 0.0, 1.0, 0.0],
    [0.0, 0.0, 0.0, 1.0]
],
  "dcmmeta_shape": [104, 104, 66, 192],
  "dcmmeta_slice_dim": 2,
  "dcmmeta_version": 0.6,
  "global": {
    "const": {
      "AccessionNumber": "jxweL473",
      "AcquisitionMatrix": [104, 0, 0, 104],
      "AngioFlag": "N",
      "BitsAllocated": 16,
      "BitsStored": 16,
      "BodyPartExamined": "BRAIN",
      "Columns": 936,
      "EchoNumbers": 1,
      "EchoTime": 37.0,
      "EchoTrainLength": 104,
      "FlipAngle": 68.0,
      "HighBit": 15,
      "ImageOrientationPatient": [0.99555446120522, 0.0645202274782, -0.0686181828712, -0.0769533761215, 0.97725963343646, -0.1975899459971],
      "ImagePositionPatient": [-863.32929168096, -999.19371646346, 201.75364477183],
      "ImageType": [
        "ORIGINAL",
        "PRIMARY",
        "M",
        "MB",
        "ND",
        "MOSAIC"
],
      "ImagedNucleus": "1H",
      "ImagingFrequency": 123.191088,
      "InPlanePhaseEncodingDirection": "COL",
      "MRAcquisitionType": "2D",
      "MagneticFieldStrength": 3.0,
      "Manufacturer": "SIEMENS",
      "ManufacturerModelName": "Prisma",
      "Modality": "MR",
      "NumberOfAverages": 1.0,
      "NumberOfPhaseEncodingSteps": 104,
      "PercentPhaseFieldOfView": 100.0,
      "PercentSampling": 100.0,
      "PerformedProcedureStepStartTime": "131535.069000",
      "PhotometricInterpretation": "MONOCHROME2",
      "PixelBandwidth": 2290.0,
      "PixelRepresentation": 0,
      "PixelSpacing": [2.0, 2.0],
      "ProtocolName": "cmrr_mbepi_s6_2mm_66sl_PA_task-prf",
      "RepetitionTime": 1000.0,
      "Rows": 936,
      "SAR": 0.0983482532159,
      "SamplesPerPixel": 1,
      "ScanOptions": "FS",
      "ScanningSequence": "EP",
      "SequenceName": "epfid2d1_104",
      "SequenceVariant": [
        "SK",
        "SS"
],
      "SeriesDescription": "cmrr_mbepi_s6_2mm_66sl_PA_task-prf",
      "SeriesNumber": 24,
      "SeriesTime": "135519.725000",
      "SliceLocation": -51.424939053249,
      "SliceThickness": 2.0,
      "SmallestImagePixelValue": 0,
      "SoftwareVersions": "syngo MR E11",
      "SpacingBetweenSlices": 2.0000000124456,
      "SpecificCharacterSet": "ISO_IR 100",
      "StudyID": "1",
      "StudyTime": "131534.955000",
      "TransmitCoilName": "Body",
      "VariableFlipAngleFlag": "N",
      "WindowCenterWidthExplanation": "Algo1",
      "dBdt": 0.0},
    "slices": {}
  },
  "time": {
    "samples": {
      "AcquisitionNumber": [1, 2, 3, 4, 5, 6, 7, 8, 9, 10, 11, 12, 13, 14, 15, 16, 17, 18, 19, 20, 21, 22, 23, 24, 25, 26, 27, 28, 29, 30, 31, 32, 33, 34, 35, 36, 37, 38, 39, 40, 41, 42, 43, 44, 45, 46, 47, 48, 49, 50, 51, 52, 53, 54, 55, 56, 57, 58, 59, 60, 61, 62, 63, 64, 65, 66, 67, 68, 69, 70, 71, 72, 73, 74, 75, 76, 77, 78, 79, 80, 81, 82, 83, 84, 85, 86, 87, 88, 89, 90, 91, 92, 93, 94, 95, 96, 97, 98, 99, 100, 101, 102, 103, 104, 105, 106, 107, 108, 109, 110, 111, 112, 113, 114, 115, 116, 117, 118, 119, 120, 121, 122, 123, 124, 125, 126, 127, 128, 129, 130, 131, 132, 133, 134, 135, 136, 137, 138, 139, 140, 141, 142, 143, 144, 145, 146, 147, 148, 149, 150, 151, 152, 153, 154, 155, 156, 157, 158, 159, 160, 161, 162, 163, 164, 165, 166, 167, 168, 169, 170, 171, 172, 173, 174, 175, 176, 177, 178, 179, 180, 181, 182, 183, 184, 185, 186, 187, 188, 189, 190, 191, 192],
      "AcquisitionTime": ["135403.807500", "135404.807500", "135405.807500", "135406.807500", "135407.807500", "135408.807500", "135409.807500", "135410.807500", "135411.807500", "135412.807500", "135413.807500", "135414.807500", "135415.807500", "135416.807500", "135417.807500", "135418.807500", "135419.807500", "135420.807500", "135421.807500", "135422.807500", "135423.807500", "135424.807500", "135425.807500", "135426.807500", "135427.807500", "135428.807500", "135429.807500", "135430.807500", "135431.807500", "135432.807500", "135433.807500", "135434.807500", "135435.807500", "135436.807500", "135437.807500", "135438.807500", "135439.807500", "135440.807500", "135441.807500", "135442.807500", "135443.807500", "135444.807500", "135445.807500", "135446.807500", "135447.807500", "135448.807500", "135449.807500", "135450.807500", "135451.807500", "135452.807500", "135453.807500", "135454.807500", "135455.807500", "135456.807500", "135457.807500", "135458.807500", "135459.807500", "135500.807500", "135501.807500", "135502.807500", "135503.807500", "135504.807500", "135505.807500", "135506.807500", "135507.807500", "135508.807500", "135509.807500", "135510.807500", "135511.807500", "135512.807500", "135513.807500", "135514.807500", "135515.807500", "135516.807500", "135517.807500", "135518.807500", "135519.807500", "135520.807500", "135521.807500", "135522.807500", "135523.807500", "135524.807500", "135525.807500", "135526.807500", "135527.807500", "135528.807500", "135529.807500", "135530.807500", "135531.807500", "135532.807500", "135533.807500", "135534.807500", "135535.807500", "135536.807500", "135537.807500", "135538.807500", "135539.807500", "135540.807500", "135541.807500", "135542.807500", "135543.807500", "135544.807500", "135545.807500", "135546.807500", "135547.807500", "135548.807500", "135549.807500", "135550.807500", "135551.807500", "135552.807500", "135553.807500", "135554.807500", "135555.807500", "135556.807500", "135557.807500", "135558.807500", "135559.807500", "135600.807500", "135601.807500", "135602.807500", "135603.807500", "135604.807500", "135605.807500", "135606.807500", "135607.807500", "135608.807500", "135609.807500", "135610.807500", "135611.807500", "135612.807500", "135613.807500", "135614.807500", "135615.807500", "135616.807500", "135617.807500", "135618.807500", "135619.807500", "135620.807500", "135621.807500", "135622.807500", "135623.807500", "135624.807500", "135625.807500", "135626.807500", "135627.807500", "135628.807500", "135629.807500", "135630.807500", "135631.807500", "135632.807500", "135633.807500", "135634.807500", "135635.807500", "135636.807500", "135637.807500", "135638.807500", "135639.807500", "135640.807500", "135641.807500", "135642.807500", "135643.807500", "135644.807500", "135645.807500", "135646.807500", "135647.807500", "135648.807500", "135649.807500", "135650.807500", "135651.807500", "135652.807500", "135653.807500", "135654.807500", "135655.807500", "135656.807500", "135657.807500", "135658.807500", "135659.807500", "135700.807500", "135701.807500", "135702.807500", "135703.807500", "135704.807500", "135705.807500", "135706.807500", "135707.807500", "135708.807500", "135709.807500", "135710.807500", "135711.807500", "135712.807500", "135713.807500", "135714.807500"],
      "ContentTime": ["135519.728000", "135519.732000", "135519.735000", "135519.738000", "135519.741000", "135519.744000", "135519.747000", "135519.750000", "135519.753000", "135519.756000", "135519.759000", "135519.763000", "135519.766000", "135519.769000", "135519.780000", "135519.783000", "135519.786000", "135519.792000", "135519.795000", "135519.798000", "135519.801000", "135519.804000", "135519.807000", "135519.810000", "135519.813000", "135519.816000", "135519.820000", "135519.823000", "135519.826000", "135519.829000", "135519.832000", "135519.835000", "135519.838000", "135519.841000", "135519.848000", "135519.851000", "135519.854000", "135539.686000", "135539.689000", "135539.692000", "135539.695000", "135539.704000", "135539.707000", "135539.710000", "135539.713000", "135539.716000", "135539.719000", "135539.722000", "135539.725000", "135539.729000", "135539.732000", "135539.735000", "135539.738000", "135539.741000", "135539.744000", "135539.747000", "135539.750000", "135539.753000", "135539.756000", "135539.778000", "135539.781000", "135539.793000", "135539.796000", "135539.799000", "135539.802000", "135559.686000", "135559.689000", "135559.692000", "135559.695000", "135559.698000", "135559.701000", "135559.704000", "135559.707000", "135559.710000", "135559.713000", "135559.716000", "135559.719000", "135559.722000", "135559.725000", "135559.728000", "135559.731000", "135559.734000", "135559.737000", "135559.740000", "135559.743000", "135559.747000", "135559.749000", "135559.752000", "135559.755000", "135559.759000", "135559.762000", "135559.764000", "135559.767000", "135619.686000", "135619.689000", "135619.692000", "135619.705000", "135619.708000", "135619.711000", "135619.714000", "135619.717000", "135619.720000", "135619.723000", "135619.726000", "135619.729000", "135619.732000", "135619.735000", "135619.738000", "135619.741000", "135619.744000", "135619.747000", "135619.750000", "135619.753000", "135619.756000", "135619.759000", "135619.762000", "135619.765000", "135619.768000", "135619.771000", "135619.774000", "135619.778000", "135619.781000", "135639.686000", "135639.689000", "135639.692000", "135639.695000", "135639.698000", "135639.701000", "135639.704000", "135639.707000", "135639.710000", "135639.714000", "135639.717000", "135639.720000", "135639.722000", "135639.726000", "135639.729000", "135639.732000", "135639.734000", "135639.738000", "135639.741000", "135639.744000", "135639.746000", "135639.750000", "135639.753000", "135639.756000", "135639.759000", "135639.762000", "135639.765000", "135639.768000", "135659.685000", "135659.688000", "135659.691000", "135659.694000", "135659.697000", "135659.700000", "135659.707000", "135659.710000", "135659.713000", "135659.716000", "135659.719000", "135659.722000", "135659.725000", "135659.728000", "135659.731000", "135659.734000", "135659.737000", "135659.740000", "135659.743000", "135659.747000", "135659.750000", "135659.753000", "135659.755000", "135659.759000", "135659.762000", "135716.562000", "135716.565000", "135716.568000", "135716.571000", "135716.584000", "135716.587000", "135716.590000", "135716.593000", "135716.596000", "135716.599000", "135716.602000", "135716.605000", "135716.608000", "135716.611000", "135716.614000", "135716.617000", "135716.620000"],
      "InstanceCreationTime": ["135519.728000", "135519.732000", "135519.735000", "135519.738000", "135519.741000", "135519.744000", "135519.747000", "135519.750000", "135519.753000", "135519.756000", "135519.759000", "135519.763000", "135519.766000", "135519.769000", "135519.780000", "135519.783000", "135519.786000", "135519.792000", "135519.795000", "135519.798000", "135519.801000", "135519.804000", "135519.807000", "135519.810000", "135519.813000", "135519.816000", "135519.820000", "135519.823000", "135519.826000", "135519.829000", "135519.832000", "135519.835000", "135519.838000", "135519.841000", "135519.848000", "135519.851000", "135519.854000", "135539.686000", "135539.689000", "135539.692000", "135539.695000", "135539.704000", "135539.707000", "135539.710000", "135539.713000", "135539.716000", "135539.719000", "135539.722000", "135539.725000", "135539.729000", "135539.732000", "135539.735000", "135539.738000", "135539.741000", "135539.744000", "135539.747000", "135539.750000", "135539.753000", "135539.756000", "135539.778000", "135539.781000", "135539.793000", "135539.796000", "135539.799000", "135539.802000", "135559.686000", "135559.689000", "135559.692000", "135559.695000", "135559.698000", "135559.701000", "135559.704000", "135559.707000", "135559.710000", "135559.713000", "135559.716000", "135559.719000", "135559.722000", "135559.725000", "135559.728000", "135559.731000", "135559.734000", "135559.737000", "135559.740000", "135559.743000", "135559.747000", "135559.749000", "135559.752000", "135559.755000", "135559.759000", "135559.762000", "135559.764000", "135559.767000", "135619.686000", "135619.689000", "135619.692000", "135619.705000", "135619.708000", "135619.711000", "135619.714000", "135619.717000", "135619.720000", "135619.723000", "135619.726000", "135619.729000", "135619.732000", "135619.735000", "135619.738000", "135619.741000", "135619.744000", "135619.747000", "135619.750000", "135619.753000", "135619.756000", "135619.759000", "135619.762000", "135619.765000", "135619.768000", "135619.771000", "135619.774000", "135619.778000", "135619.781000", "135639.686000", "135639.689000", "135639.692000", "135639.695000", "135639.698000", "135639.701000", "135639.704000", "135639.707000", "135639.710000", "135639.714000", "135639.717000", "135639.720000", "135639.722000", "135639.726000", "135639.729000", "135639.732000", "135639.734000", "135639.738000", "135639.741000", "135639.744000", "135639.746000", "135639.750000", "135639.753000", "135639.756000", "135639.759000", "135639.762000", "135639.765000", "135639.768000", "135659.685000", "135659.688000", "135659.691000", "135659.694000", "135659.697000", "135659.700000", "135659.707000", "135659.710000", "135659.713000", "135659.716000", "135659.719000", "135659.722000", "135659.725000", "135659.728000", "135659.731000", "135659.734000", "135659.737000", "135659.740000", "135659.743000", "135659.747000", "135659.750000", "135659.753000", "135659.755000", "135659.759000", "135659.762000", "135716.562000", "135716.565000", "135716.568000", "135716.571000", "135716.584000", "135716.587000", "135716.590000", "135716.593000", "135716.596000", "135716.599000", "135716.602000", "135716.605000", "135716.608000", "135716.611000", "135716.614000", "135716.617000", "135716.620000"],
      "InstanceNumber": [1, 2, 3, 4, 5, 6, 7, 8, 9, 10, 11, 12, 13, 14, 15, 16, 17, 18, 19, 20, 21, 22, 23, 24, 25, 26, 27, 28, 29, 30, 31, 32, 33, 34, 35, 36, 37, 38, 39, 40, 41, 42, 43, 44, 45, 46, 47, 48, 49, 50, 51, 52, 53, 54, 55, 56, 57, 58, 59, 60, 61, 62, 63, 64, 65, 66, 67, 68, 69, 70, 71, 72, 73, 74, 75, 76, 77, 78, 79, 80, 81, 82, 83, 84, 85, 86, 87, 88, 89, 90, 91, 92, 93, 94, 95, 96, 97, 98, 99, 100, 101, 102, 103, 104, 105, 106, 107, 108, 109, 110, 111, 112, 113, 114, 115, 116, 117, 118, 119, 120, 121, 122, 123, 124, 125, 126, 127, 128, 129, 130, 131, 132, 133, 134, 135, 136, 137, 138, 139, 140, 141, 142, 143, 144, 145, 146, 147, 148, 149, 150, 151, 152, 153, 154, 155, 156, 157, 158, 159, 160, 161, 162, 163, 164, 165, 166, 167, 168, 169, 170, 171, 172, 173, 174, 175, 176, 177, 178, 179, 180, 181, 182, 183, 184, 185, 186, 187, 188, 189, 190, 191, 192],
      "LargestImagePixelValue": [41810, 39585, 38600, 38639, 39413, 40571, 40411, 38973, 38690, 38587, 39976, 39273, 38777, 39402, 38085, 38319, 38094, 37859, 37835, 37947, 38898, 38215, 38604, 37658, 38506, 39197, 39881, 38033, 38371, 39044, 40183, 37799, 37768, 39634, 38658, 39769, 38506, 38365, 38998, 38983, 38280, 38485, 38387, 37822, 37571, 39440, 39385, 38461, 38804, 39776, 39703, 36529, 37620, 38332, 39027, 38198, 37542, 36816, 37014, 39212, 38099, 38877, 38665, 38160, 38596, 39138, 39024, 39003, 38378, 39283, 39909, 39958, 39633, 38461, 38025, 38920, 39651, 39569, 39477, 41259, 38483, 38312, 38564, 38417, 38661, 37428, 37419, 38931, 38837, 39166, 37478, 39131, 37077, 38697, 39448, 39249, 35739, 38310, 38447, 36817, 35658, 39098, 37302, 36451, 36828, 36751, 36096, 39345, 39689, 38056, 37517, 37593, 37777, 38595, 38765, 38814, 38004, 38251, 38664, 37749, 37972, 39323, 42039, 41191, 38713, 38226, 38018, 41408, 38842, 39822, 40729, 38892, 39116, 40107, 37881, 38594, 37849, 37454, 37010, 38796, 38577, 40248, 40759, 38216, 37312, 38610, 38579, 37866, 40104, 38813, 39611, 39741, 41267, 38189, 37322, 36685, 37390, 39798, 38888, 38503, 39747, 38330, 38719, 38491, 38028, 39573, 38900, 38351, 39442, 39961, 38397, 39948, 39205, 42529, 38757, 38353, 41579, 41717, 40412, 40307, 41234, 40803, 41924, 40948, 40053, 40252, 38573, 37551, 39440, 38956, 38782, 39456],
      "WindowCenter": [9304.0, 9264.0, 9230.0, 9232.0, 9227.0, 9237.0, 9230.0, 9214.0, 9207.0, 9219.0, 9221.0, 9208.0, 9202.0, 9213.0, 9204.0, 9215.0, 9206.0, 9197.0, 9187.0, 9194.0, 9198.0, 9186.0, 9191.0, 9187.0, 9191.0, 9195.0, 9193.0, 9192.0, 9202.0, 9208.0, 9220.0, 9223.0, 9218.0, 9218.0, 9193.0, 9197.0, 9185.0, 9191.0, 9209.0, 9215.0, 9202.0, 9201.0, 9202.0, 9203.0, 9199.0, 9208.0, 9206.0, 9193.0, 9191.0, 9203.0, 9195.0, 9194.0, 9207.0, 9194.0, 9191.0, 9174.0, 9169.0, 9164.0, 9171.0, 9195.0, 9204.0, 9220.0, 9214.0, 9200.0, 9206.0, 9211.0, 9210.0, 9210.0, 9213.0, 9217.0, 9233.0, 9222.0, 9228.0, 9210.0, 9199.0, 9219.0, 9214.0, 9198.0, 9198.0, 9215.0, 9202.0, 9221.0, 9220.0, 9212.0, 9220.0, 9202.0, 9209.0, 9220.0, 9223.0, 9212.0, 9232.0, 9222.0, 9201.0, 9213.0, 9201.0, 9182.0, 9132.0, 9157.0, 9162.0, 9161.0, 9170.0, 9207.0, 9186.0, 9168.0, 9172.0, 9180.0, 9169.0, 9209.0, 9217.0, 9189.0, 9175.0, 9173.0, 9181.0, 9194.0, 9193.0, 9191.0, 9194.0, 9202.0, 9199.0, 9196.0, 9204.0, 9207.0, 9225.0, 9215.0, 9198.0, 9221.0, 9225.0, 9227.0, 9192.0, 9199.0, 9210.0, 9190.0, 9182.0, 9187.0, 9171.0, 9200.0, 9206.0, 9209.0, 9202.0, 9213.0, 9203.0, 9207.0, 9210.0, 9196.0, 9192.0, 9203.0, 9203.0, 9199.0, 9226.0, 9221.0, 9236.0, 9237.0, 9256.0, 9219.0, 9211.0, 9188.0, 9192.0, 9219.0, 9219.0, 9197.0, 9202.0, 9197.0, 9214.0, 9216.0, 9215.0, 9229.0, 9229.0, 9232.0, 9231.0, 9236.0, 9217.0, 9236.0, 9238.0, 9260.0, 9235.0, 9246.0, 9265.0, 9246.0, 9226.0, 9224.0, 9223.0, 9213.0, 9223.0, 9211.0, 9206.0, 9212.0, 9194.0, 9190.0, 9209.0, 9212.0, 9215.0, 9223.0],
      "WindowWidth": [19757.0, 19670.0, 19594.0, 19601.0, 19588.0, 19598.0, 19585.0, 19553.0, 19541.0, 19567.0, 19564.0, 19540.0, 19532.0, 19550.0, 19543.0, 19569.0, 19549.0, 19527.0, 19502.0, 19519.0, 19516.0, 19499.0, 19508.0, 19501.0, 19503.0, 19508.0, 19501.0, 19510.0, 19532.0, 19543.0, 19565.0, 19581.0, 19576.0, 19561.0, 19513.0, 19517.0, 19497.0, 19510.0, 19547.0, 19558.0, 19531.0, 19530.0, 19531.0, 19534.0, 19530.0, 19539.0, 19532.0, 19509.0, 19501.0, 19527.0, 19502.0, 19524.0, 19544.0, 19512.0, 19502.0, 19467.0, 19461.0, 19458.0, 19470.0, 19507.0, 19538.0, 19573.0, 19566.0, 19540.0, 19548.0, 19555.0, 19552.0, 19550.0, 19557.0, 19563.0, 19594.0, 19557.0, 19582.0, 19545.0, 19528.0, 19564.0, 19549.0, 19515.0, 19516.0, 19543.0, 19529.0, 19570.0, 19567.0, 19553.0, 19570.0, 19542.0, 19555.0, 19571.0, 19579.0, 19551.0, 19606.0, 19575.0, 19536.0, 19557.0, 19523.0, 19483.0, 19393.0, 19434.0, 19441.0, 19446.0, 19479.0, 19541.0, 19502.0, 19471.0, 19472.0, 19489.0, 19473.0, 19545.0, 19566.0, 19514.0, 19491.0, 19485.0, 19498.0, 19519.0, 19518.0, 19510.0, 19518.0, 19531.0, 19519.0, 19520.0, 19538.0, 19536.0, 19564.0, 19543.0, 19519.0, 19569.0, 19585.0, 19569.0, 19505.0, 19521.0, 19535.0, 19505.0, 19489.0, 19498.0, 19473.0, 19531.0, 19550.0, 19557.0, 19542.0, 19556.0, 19535.0, 19537.0, 19539.0, 19523.0, 19523.0, 19537.0, 19537.0, 19534.0, 19580.0, 19574.0, 19607.0, 19604.0, 19634.0, 19575.0, 19557.0, 19513.0, 19519.0, 19570.0, 19569.0, 19528.0, 19536.0, 19530.0, 19564.0, 19570.0, 19566.0, 19589.0, 19590.0, 19597.0, 19593.0, 19599.0, 19567.0, 19600.0, 19609.0, 19638.0, 19597.0, 19630.0, 19649.0, 19610.0, 19574.0, 19565.0, 19562.0, 19545.0, 19559.0, 19538.0, 19532.0, 19543.0, 19511.0, 19511.0, 19543.0, 19555.0, 19563.0, 19578.0]
    },
    "slices": {}
  },
  "NumberOfVolumes": 192
}