{
  "AcquisitionMatrixPE": 104,
  "AcquisitionNumber": 1,
  "AcquisitionTime": "12:07:25.432500",
  "BandwidthPerPixelPhaseEncode": 16.297,
  "BaseResolution": 104,
  "BodyPartExamined": "BRAIN",
  "ConsistencyInfo": "N4_VE11C_LATEST_20160120",
  "ConversionSoftware": "dcm2niix",
  "ConversionSoftwareVersion": "v1.0.20210317",
  "DerivedVendorReportedEchoSpacing": 0.000590009,
  "DeviceSerialNumber": "166018",
  "DwellTime": 2.1e-06,
  "EchoTime": 0.0376,
  "EchoTrainLength": 104,
  "EffectiveEchoSpacing": 0.000590009,
  "FlipAngle": 68,
  "ImageComments": "Unaliased MB6/PE3/LB",
  "ImageOrientationPatientDICOM": [0.99905, 0.0435014, 0.00247662, -0.042746, 0.989544, -0.137751],
  "ImageType": [
    "ORIGINAL",
    "PRIMARY",
    "M",
    "MB",
    "ND",
    "MOSAIC"
],
  "ImagingFrequency": 123.197,
  "InPlanePhaseEncodingDirectionDICOM": "COL",
  "InstitutionAddress": "Washington Place 6,NYC,NYC,US,10003",
  "InstitutionName": "NYU - CBI",
  "InstitutionalDepartmentName": "Department",
  "MRAcquisitionType": "2D",
  "MagneticFieldStrength": 3,
  "Manufacturer": "Siemens",
  "ManufacturersModelName": "Prisma",
  "Modality": "MR",
  "MultibandAccelerationFactor": 6,
  "PartialFourier": 1,
  "PatientPosition": "HFS",
  "PercentPhaseFOV": 100,
  "PercentSampling": 100,
  "PhaseEncodingDirection": "j",
  "PhaseEncodingSteps": 104,
  "PhaseResolution": 1,
  "PixelBandwidth": 2290,
  "ProcedureStepDescription": "Investigators^Winawer",
  "ProtocolName": "cmrr_mbepi_s6_2mm_66sl_PA_task-wedgering2",
  "PulseSequenceDetails": "%CustomerSeq%\\cmrr_mbep2d_bold",
  "ReceiveCoilActiveElements": "HC1-7",
  "ReceiveCoilName": "HeadNeck_64",
  "ReconMatrixPE": 104,
  "RepetitionTime": 1,
  "SAR": 0.0848736,
  "ScanOptions": "FS",
  "ScanningSequence": "EP",
  "SequenceName": "epfid2d1_104",
  "SequenceVariant": "SK\\SS",
  "SeriesDescription": "cmrr_mbepi_s6_2mm_66sl_PA_task-wedgering2",
  "SeriesNumber": 14,
  "ShimSetting": [292, -12652, -8446, 297, 58, -221, 19, 55],
  "SliceThickness": 2,
  "SliceTiming": [0, 0.535, 0.0875, 0.6225, 0.1775, 0.7125, 0.2675, 0.8, 0.355, 0.89, 0.445, 0, 0.535, 0.0875, 0.6225, 0.1775, 0.7125, 0.2675, 0.8, 0.355, 0.89, 0.445, 0, 0.535, 0.0875, 0.6225, 0.1775, 0.7125, 0.2675, 0.8, 0.355, 0.89, 0.445, 0, 0.535, 0.0875, 0.6225, 0.1775, 0.7125, 0.2675, 0.8, 0.355, 0.89, 0.445, 0, 0.535, 0.0875, 0.6225, 0.1775, 0.7125, 0.2675, 0.8, 0.355, 0.89, 0.445, 0, 0.535, 0.0875, 0.6225, 0.1775, 0.7125, 0.2675, 0.8, 0.355, 0.89, 0.445],
  "SoftwareVersions": "syngo MR E11",
  "SpacingBetweenSlices": 2,
  "StationName": "AWP166018",
  "TaskName": "wedgering2",
  "TotalReadoutTime": 0.060771,
  "TxRefAmp": 243.634,
  "VendorReportedEchoSpacing": 0.00059,
  "WipMemBlock": "c750b346-848c-44d3-9f55-513162ef67b0||Sequence: R016 ve11c/master r/8780670; Nov 27 2017 15:05:12 by eja",
  "dcmmeta_affine": [
    [-1.9981006383895874, -0.08549196273088455, 0.016886195167899132, 113.2522964477539],
    [-0.08700278401374817, 1.9790880680084229, -0.27502933144569397, -73.0588150024414],
    [0.004953235387802124, 0.27550268173217773, 1.980927586555481, -56.49468994140625],
    [0.0, 0.0, 0.0, 1.0]
],
  "dcmmeta_reorient_transform": [
    [0.0, -1.0, 0.0, 103.0],
    [1.0, 0.0, 0.0, 0.0],
    [0.0, 0.0, 1.0, 0.0],
    [0.0, 0.0, 0.0, 1.0]
],
  "dcmmeta_shape": [104, 104, 66, 300],
  "dcmmeta_slice_dim": 2,
  "dcmmeta_version": 0.6,
  "global": {
    "const": {
      "AccessionNumber": "Lf9p0r65",
      "AcquisitionMatrix": [104, 0, 0, 104],
      "AngioFlag": "N",
      "BitsAllocated": 16,
      "BitsStored": 16,
      "BodyPartExamined": "BRAIN",
      "Columns": 936,
      "EchoNumbers": 1,
      "EchoTime": 37.6,
      "EchoTrainLength": 104,
      "FlipAngle": 68.0,
      "HighBit": 15,
      "ImageOrientationPatient": [0.99905029664286, 0.04350139241817, 0.00247661775242, -0.0427459808903, 0.98954401039518, -0.1377513434009],
      "ImagePositionPatient": [-900.09181397065, -990.28102765769, 84.430657916446],
      "ImageType": [
        "ORIGINAL",
        "PRIMARY",
        "M",
        "MB",
        "ND",
        "MOSAIC"
],
      "ImagedNucleus": "1H",
      "ImagingFrequency": 123.196784,
      "InPlanePhaseEncodingDirection": "COL",
      "MRAcquisitionType": "2D",
      "MagneticFieldStrength": 3.0,
      "Manufacturer": "SIEMENS",
      "ManufacturerModelName": "Prisma",
      "Modality": "MR",
      "NumberOfAverages": 1.0,
      "NumberOfPhaseEncodingSteps": 104,
      "PercentPhaseFieldOfView": 100.0,
      "PercentSampling": 100.0,
      "PerformedProcedureStepStartTime": "113326.785000",
      "PhotometricInterpretation": "MONOCHROME2",
      "PixelBandwidth": 2290.0,
      "PixelRepresentation": 0,
      "PixelSpacing": [2.0, 2.0],
      "ProtocolName": "cmrr_mbepi_s6_2mm_66sl_PA_task-wedgering2",
      "RepetitionTime": 1000.0,
      "Rows": 936,
      "SAR": 0.08487359318613,
      "SamplesPerPixel": 1,
      "ScanOptions": "FS",
      "ScanningSequence": "EP",
      "SequenceName": "epfid2d1_104",
      "SequenceVariant": [
        "SK",
        "SS"
],
      "SeriesDescription": "cmrr_mbepi_s6_2mm_66sl_PA_task-wedgering2",
      "SeriesNumber": 14,
      "SeriesTime": "120840.556000",
      "SliceLocation": -44.953085165728,
      "SliceThickness": 2.0,
      "SmallestImagePixelValue": 0,
      "SoftwareVersions": "syngo MR E11",
      "SpacingBetweenSlices": 2.000000076319,
      "SpecificCharacterSet": "ISO_IR 100",
      "StudyID": "1",
      "StudyTime": "113326.723000",
      "TransmitCoilName": "Body",
      "VariableFlipAngleFlag": "N",
      "WindowCenterWidthExplanation": "Algo1",
      "dBdt": 0.0},
    "slices": {}
  },
  "time": {
    "samples": {
      "AcquisitionNumber": [1, 2, 3, 4, 5, 6, 7, 8, 9, 10, 11, 12, 13, 14, 15, 16, 17, 18, 19, 20, 21, 22, 23, 24, 25, 26, 27, 28, 29, 30, 31, 32, 33, 34, 35, 36, 37, 38, 39, 40, 41, 42, 43, 44, 45, 46, 47, 48, 49, 50, 51, 52, 53, 54, 55, 56, 57, 58, 59, 60, 61, 62, 63, 64, 65, 66, 67, 68, 69, 70, 71, 72, 73, 74, 75, 76, 77, 78, 79, 80, 81, 82, 83, 84, 85, 86, 87, 88, 89, 90, 91, 92, 93, 94, 95, 96, 97, 98, 99, 100, 101, 102, 103, 104, 105, 106, 107, 108, 109, 110, 111, 112, 113, 114, 115, 116, 117, 118, 119, 120, 121, 122, 123, 124, 125, 126, 127, 128, 129, 130, 131, 132, 133, 134, 135, 136, 137, 138, 139, 140, 141, 142, 143, 144, 145, 146, 147, 148, 149, 150, 151, 152, 153, 154, 155, 156, 157, 158, 159, 160, 161, 162, 163, 164, 165, 166, 167, 168, 169, 170, 171, 172, 173, 174, 175, 176, 177, 178, 179, 180, 181, 182, 183, 184, 185, 186, 187, 188, 189, 190, 191, 192, 193, 194, 195, 196, 197, 198, 199, 200, 201, 202, 203, 204, 205, 206, 207, 208, 209, 210, 211, 212, 213, 214, 215, 216, 217, 218, 219, 220, 221, 222, 223, 224, 225, 226, 227, 228, 229, 230, 231, 232, 233, 234, 235, 236, 237, 238, 239, 240, 241, 242, 243, 244, 245, 246, 247, 248, 249, 250, 251, 252, 253, 254, 255, 256, 257, 258, 259, 260, 261, 262, 263, 264, 265, 266, 267, 268, 269, 270, 271, 272, 273, 274, 275, 276, 277, 278, 279, 280, 281, 282, 283, 284, 285, 286, 287, 288, 289, 290, 291, 292, 293, 294, 295, 296, 297, 298, 299, 300],
      "AcquisitionTime": ["120725.432500", "120726.432500", "120727.432500", "120728.432500", "120729.432500", "120730.432500", "120731.432500", "120732.432500", "120733.432500", "120734.432500", "120735.432500", "120736.432500", "120737.432500", "120738.432500", "120739.432500", "120740.432500", "120741.432500", "120742.432500", "120743.432500", "120744.432500", "120745.432500", "120746.432500", "120747.432500", "120748.432500", "120749.432500", "120750.432500", "120751.432500", "120752.432500", "120753.432500", "120754.432500", "120755.432500", "120756.432500", "120757.432500", "120758.432500", "120759.432500", "120800.432500", "120801.432500", "120802.432500", "120803.432500", "120804.432500", "120805.432500", "120806.432500", "120807.432500", "120808.432500", "120809.432500", "120810.432500", "120811.432500", "120812.432500", "120813.432500", "120814.432500", "120815.432500", "120816.432500", "120817.432500", "120818.432500", "120819.432500", "120820.432500", "120821.432500", "120822.432500", "120823.432500", "120824.432500", "120825.432500", "120826.432500", "120827.432500", "120828.432500", "120829.432500", "120830.432500", "120831.432500", "120832.432500", "120833.432500", "120834.432500", "120835.432500", "120836.432500", "120837.432500", "120838.432500", "120839.432500", "120840.432500", "120841.432500", "120842.432500", "120843.432500", "120844.432500", "120845.432500", "120846.432500", "120847.432500", "120848.432500", "120849.432500", "120850.432500", "120851.432500", "120852.432500", "120853.432500", "120854.432500", "120855.432500", "120856.432500", "120857.432500", "120858.432500", "120859.432500", "120900.432500", "120901.432500", "120902.432500", "120903.432500", "120904.432500", "120905.432500", "120906.432500", "120907.432500", "120908.432500", "120909.432500", "120910.432500", "120911.432500", "120912.432500", "120913.432500", "120914.432500", "120915.432500", "120916.432500", "120917.432500", "120918.432500", "120919.432500", "120920.432500", "120921.432500", "120922.432500", "120923.432500", "120924.432500", "120925.432500", "120926.432500", "120927.432500", "120928.432500", "120929.432500", "120930.432500", "120931.432500", "120932.432500", "120933.432500", "120934.432500", "120935.432500", "120936.432500", "120937.432500", "120938.432500", "120939.432500", "120940.432500", "120941.432500", "120942.432500", "120943.432500", "120944.432500", "120945.432500", "120946.432500", "120947.432500", "120948.432500", "120949.432500", "120950.432500", "120951.432500", "120952.432500", "120953.432500", "120954.432500", "120955.432500", "120956.432500", "120957.432500", "120958.432500", "120959.432500", "121000.432500", "121001.432500", "121002.432500", "121003.432500", "121004.432500", "121005.432500", "121006.432500", "121007.432500", "121008.432500", "121009.432500", "121010.432500", "121011.432500", "121012.432500", "121013.432500", "121014.432500", "121015.432500", "121016.432500", "121017.432500", "121018.432500", "121019.432500", "121020.432500", "121021.432500", "121022.432500", "121023.432500", "121024.432500", "121025.432500", "121026.432500", "121027.432500", "121028.432500", "121029.432500", "121030.432500", "121031.432500", "121032.432500", "121033.432500", "121034.432500", "121035.432500", "121036.432500", "121037.432500", "121038.432500", "121039.432500", "121040.432500", "121041.432500", "121042.432500", "121043.432500", "121044.432500", "121045.432500", "121046.432500", "121047.432500", "121048.432500", "121049.432500", "121050.432500", "121051.432500", "121052.432500", "121053.432500", "121054.432500", "121055.432500", "121056.432500", "121057.432500", "121058.432500", "121059.432500", "121100.432500", "121101.432500", "121102.432500", "121103.432500", "121104.432500", "121105.432500", "121106.432500", "121107.432500", "121108.432500", "121109.432500", "121110.432500", "121111.432500", "121112.432500", "121113.432500", "121114.432500", "121115.432500", "121116.432500", "121117.432500", "121118.432500", "121119.432500", "121120.432500", "121121.432500", "121122.432500", "121123.432500", "121124.432500", "121125.432500", "121126.432500", "121127.432500", "121128.432500", "121129.432500", "121130.432500", "121131.432500", "121132.432500", "121133.432500", "121134.432500", "121135.432500", "121136.432500", "121137.432500", "121138.432500", "121139.432500", "121140.432500", "121141.432500", "121142.432500", "121143.432500", "121144.432500", "121145.432500", "121146.432500", "121147.432500", "121148.432500", "121149.432500", "121150.432500", "121151.432500", "121152.432500", "121153.432500", "121154.432500", "121155.432500", "121156.432500", "121157.432500", "121158.432500", "121159.432500", "121200.432500", "121201.432500", "121202.432500", "121203.432500", "121204.432500", "121205.432500", "121206.432500", "121207.432500", "121208.432500", "121209.432500", "121210.432500", "121211.432500", "121212.432500", "121213.432500", "121214.432500", "121215.432500", "121216.432500", "121217.432500", "121218.432500", "121219.432500", "121220.432500", "121221.432500", "121222.432500", "121223.432500", "121224.432500"],
      "ContentTime": ["120840.558000", "120840.562000", "120840.565000", "120840.568000", "120840.571000", "120840.574000", "120840.577000", "120840.580000", "120840.583000", "120840.586000", "120840.589000", "120840.592000", "120840.595000", "120840.598000", "120840.601000", "120840.604000", "120840.607000", "120840.611000", "120840.614000", "120840.617000", "120840.620000", "120840.623000", "120840.626000", "120840.629000", "120840.632000", "120840.646000", "120840.649000", "120840.652000", "120840.655000", "120840.658000", "120840.661000", "120840.677000", "120840.680000", "120840.683000", "120840.686000", "120900.522000", "120900.533000", "120900.536000", "120900.539000", "120900.542000", "120900.545000", "120900.548000", "120900.551000", "120900.554000", "120900.558000", "120900.561000", "120900.564000", "120900.568000", "120900.571000", "120900.573000", "120900.577000", "120900.579000", "120900.582000", "120900.585000", "120900.588000", "120900.591000", "120900.594000", "120900.597000", "120900.600000", "120900.613000", "120900.616000", "120900.619000", "120900.622000", "120920.523000", "120920.526000", "120920.529000", "120920.532000", "120920.535000", "120920.538000", "120920.541000", "120920.544000", "120920.547000", "120920.550000", "120920.553000", "120920.556000", "120920.560000", "120920.563000", "120920.566000", "120920.569000", "120920.572000", "120920.575000", "120920.588000", "120920.591000", "120920.594000", "120920.597000", "120920.600000", "120920.603000", "120920.606000", "120920.609000", "120920.612000", "120920.615000", "120920.618000", "120940.522000", "120940.525000", "120940.528000", "120940.531000", "120940.538000", "120940.541000", "120940.545000", "120940.548000", "120940.551000", "120940.554000", "120940.557000", "120940.560000", "120940.563000", "120940.566000", "120940.569000", "120940.572000", "120940.575000", "120940.578000", "120940.581000", "120940.584000", "120940.587000", "120940.590000", "120940.593000", "120940.596000", "120940.599000", "120940.602000", "120940.605000", "120940.608000", "121000.522000", "121000.525000", "121000.528000", "121000.531000", "121000.534000", "121000.537000", "121000.540000", "121000.543000", "121000.546000", "121000.549000", "121000.553000", "121000.556000", "121000.559000", "121000.562000", "121000.565000", "121000.568000", "121000.571000", "121000.574000", "121000.577000", "121000.580000", "121000.583000", "121000.586000", "121000.592000", "121000.595000", "121000.598000", "121000.601000", "121000.604000", "121000.607000", "121020.522000", "121020.525000", "121020.528000", "121020.531000", "121020.534000", "121020.537000", "121020.540000", "121020.543000", "121020.546000", "121020.550000", "121020.553000", "121020.556000", "121020.563000", "121020.566000", "121020.569000", "121020.572000", "121020.575000", "121020.578000", "121020.581000", "121020.584000", "121020.587000", "121020.590000", "121020.593000", "121020.596000", "121020.599000", "121020.602000", "121040.522000", "121040.525000", "121040.528000", "121040.531000", "121040.534000", "121040.537000", "121040.540000", "121040.543000", "121040.546000", "121040.549000", "121040.552000", "121040.555000", "121040.559000", "121040.562000", "121040.565000", "121040.568000", "121040.571000", "121040.574000", "121040.577000", "121040.580000", "121100.522000", "121100.533000", "121100.536000", "121100.539000", "121100.542000", "121100.545000", "121100.548000", "121100.551000", "121100.554000", "121100.557000", "121100.560000", "121100.564000", "121100.567000", "121100.570000", "121100.573000", "121100.576000", "121100.579000", "121100.582000", "121100.585000", "121100.588000", "121120.522000", "121120.525000", "121120.528000", "121120.531000", "121120.534000", "121120.537000", "121120.540000", "121120.543000", "121120.547000", "121120.549000", "121120.553000", "121120.556000", "121120.559000", "121120.562000", "121120.565000", "121120.568000", "121120.571000", "121120.574000", "121120.577000", "121120.580000", "121140.523000", "121140.526000", "121140.529000", "121140.532000", "121140.535000", "121140.538000", "121140.541000", "121140.544000", "121140.557000", "121140.561000", "121140.564000", "121140.567000", "121140.570000", "121140.573000", "121140.576000", "121140.579000", "121140.582000", "121140.585000", "121140.588000", "121140.591000", "121200.522000", "121200.525000", "121200.532000", "121200.535000", "121200.538000", "121200.541000", "121200.544000", "121200.547000", "121200.551000", "121200.554000", "121200.557000", "121200.560000", "121200.563000", "121200.566000", "121200.569000", "121200.572000", "121200.575000", "121200.578000", "121200.581000", "121200.584000", "121220.522000", "121220.525000", "121220.528000", "121220.531000", "121220.534000", "121220.537000", "121220.540000", "121220.543000", "121220.546000", "121220.549000", "121220.552000", "121220.555000", "121220.559000", "121220.562000", "121220.565000", "121220.568000", "121220.571000", "121220.574000", "121220.577000", "121220.580000", "121226.273000", "121226.276000", "121226.280000", "121226.283000", "121226.286000", "121226.289000"],
      "InstanceCreationTime": ["120840.558000", "120840.562000", "120840.565000", "120840.568000", "120840.571000", "120840.574000", "120840.577000", "120840.580000", "120840.583000", "120840.586000", "120840.589000", "120840.592000", "120840.595000", "120840.598000", "120840.601000", "120840.604000", "120840.607000", "120840.611000", "120840.614000", "120840.617000", "120840.620000", "120840.623000", "120840.626000", "120840.629000", "120840.632000", "120840.646000", "120840.649000", "120840.652000", "120840.655000", "120840.658000", "120840.661000", "120840.677000", "120840.680000", "120840.683000", "120840.686000", "120900.522000", "120900.533000", "120900.536000", "120900.539000", "120900.542000", "120900.545000", "120900.548000", "120900.551000", "120900.554000", "120900.558000", "120900.561000", "120900.564000", "120900.568000", "120900.571000", "120900.573000", "120900.577000", "120900.579000", "120900.582000", "120900.585000", "120900.588000", "120900.591000", "120900.594000", "120900.597000", "120900.600000", "120900.613000", "120900.616000", "120900.619000", "120900.622000", "120920.523000", "120920.526000", "120920.529000", "120920.532000", "120920.535000", "120920.538000", "120920.541000", "120920.544000", "120920.547000", "120920.550000", "120920.553000", "120920.556000", "120920.560000", "120920.563000", "120920.566000", "120920.569000", "120920.572000", "120920.575000", "120920.588000", "120920.591000", "120920.594000", "120920.597000", "120920.600000", "120920.603000", "120920.606000", "120920.609000", "120920.612000", "120920.615000", "120920.618000", "120940.522000", "120940.525000", "120940.528000", "120940.531000", "120940.538000", "120940.541000", "120940.545000", "120940.548000", "120940.551000", "120940.554000", "120940.557000", "120940.560000", "120940.563000", "120940.566000", "120940.569000", "120940.572000", "120940.575000", "120940.578000", "120940.581000", "120940.584000", "120940.587000", "120940.590000", "120940.593000", "120940.596000", "120940.599000", "120940.602000", "120940.605000", "120940.608000", "121000.522000", "121000.525000", "121000.528000", "121000.531000", "121000.534000", "121000.537000", "121000.540000", "121000.543000", "121000.546000", "121000.549000", "121000.553000", "121000.556000", "121000.559000", "121000.562000", "121000.565000", "121000.568000", "121000.571000", "121000.574000", "121000.577000", "121000.580000", "121000.583000", "121000.586000", "121000.592000", "121000.595000", "121000.598000", "121000.601000", "121000.604000", "121000.607000", "121020.522000", "121020.525000", "121020.528000", "121020.531000", "121020.534000", "121020.537000", "121020.540000", "121020.543000", "121020.546000", "121020.550000", "121020.553000", "121020.556000", "121020.563000", "121020.566000", "121020.569000", "121020.572000", "121020.575000", "121020.578000", "121020.581000", "121020.584000", "121020.587000", "121020.590000", "121020.593000", "121020.596000", "121020.599000", "121020.602000", "121040.522000", "121040.525000", "121040.528000", "121040.531000", "121040.534000", "121040.537000", "121040.540000", "121040.543000", "121040.546000", "121040.549000", "121040.552000", "121040.555000", "121040.559000", "121040.562000", "121040.565000", "121040.568000", "121040.571000", "121040.574000", "121040.577000", "121040.580000", "121100.522000", "121100.533000", "121100.536000", "121100.539000", "121100.542000", "121100.545000", "121100.548000", "121100.551000", "121100.554000", "121100.557000", "121100.560000", "121100.564000", "121100.567000", "121100.570000", "121100.573000", "121100.576000", "121100.579000", "121100.582000", "121100.585000", "121100.588000", "121120.522000", "121120.525000", "121120.528000", "121120.531000", "121120.534000", "121120.537000", "121120.540000", "121120.543000", "121120.547000", "121120.549000", "121120.553000", "121120.556000", "121120.559000", "121120.562000", "121120.565000", "121120.568000", "121120.571000", "121120.574000", "121120.577000", "121120.580000", "121140.523000", "121140.526000", "121140.529000", "121140.532000", "121140.535000", "121140.538000", "121140.541000", "121140.544000", "121140.557000", "121140.561000", "121140.564000", "121140.567000", "121140.570000", "121140.573000", "121140.576000", "121140.579000", "121140.582000", "121140.585000", "121140.588000", "121140.591000", "121200.522000", "121200.525000", "121200.532000", "121200.535000", "121200.538000", "121200.541000", "121200.544000", "121200.547000", "121200.551000", "121200.554000", "121200.557000", "121200.560000", "121200.563000", "121200.566000", "121200.569000", "121200.572000", "121200.575000", "121200.578000", "121200.581000", "121200.584000", "121220.522000", "121220.525000", "121220.528000", "121220.531000", "121220.534000", "121220.537000", "121220.540000", "121220.543000", "121220.546000", "121220.549000", "121220.552000", "121220.555000", "121220.559000", "121220.562000", "121220.565000", "121220.568000", "121220.571000", "121220.574000", "121220.577000", "121220.580000", "121226.273000", "121226.276000", "121226.280000", "121226.283000", "121226.286000", "121226.289000"],
      "InstanceNumber": [1, 2, 3, 4, 5, 6, 7, 8, 9, 10, 11, 12, 13, 14, 15, 16, 17, 18, 19, 20, 21, 22, 23, 24, 25, 26, 27, 28, 29, 30, 31, 32, 33, 34, 35, 36, 37, 38, 39, 40, 41, 42, 43, 44, 45, 46, 47, 48, 49, 50, 51, 52, 53, 54, 55, 56, 57, 58, 59, 60, 61, 62, 63, 64, 65, 66, 67, 68, 69, 70, 71, 72, 73, 74, 75, 76, 77, 78, 79, 80, 81, 82, 83, 84, 85, 86, 87, 88, 89, 90, 91, 92, 93, 94, 95, 96, 97, 98, 99, 100, 101, 102, 103, 104, 105, 106, 107, 108, 109, 110, 111, 112, 113, 114, 115, 116, 117, 118, 119, 120, 121, 122, 123, 124, 125, 126, 127, 128, 129, 130, 131, 132, 133, 134, 135, 136, 137, 138, 139, 140, 141, 142, 143, 144, 145, 146, 147, 148, 149, 150, 151, 152, 153, 154, 155, 156, 157, 158, 159, 160, 161, 162, 163, 164, 165, 166, 167, 168, 169, 170, 171, 172, 173, 174, 175, 176, 177, 178, 179, 180, 181, 182, 183, 184, 185, 186, 187, 188, 189, 190, 191, 192, 193, 194, 195, 196, 197, 198, 199, 200, 201, 202, 203, 204, 205, 206, 207, 208, 209, 210, 211, 212, 213, 214, 215, 216, 217, 218, 219, 220, 221, 222, 223, 224, 225, 226, 227, 228, 229, 230, 231, 232, 233, 234, 235, 236, 237, 238, 239, 240, 241, 242, 243, 244, 245, 246, 247, 248, 249, 250, 251, 252, 253, 254, 255, 256, 257, 258, 259, 260, 261, 262, 263, 264, 265, 266, 267, 268, 269, 270, 271, 272, 273, 274, 275, 276, 277, 278, 279, 280, 281, 282, 283, 284, 285, 286, 287, 288, 289, 290, 291, 292, 293, 294, 295, 296, 297, 298, 299, 300],
      "LargestImagePixelValue": [30071, 31471, 28502, 28293, 29179, 29661, 29223, 29420, 30239, 29024, 29538, 30718, 29905, 28738, 28020, 27868, 27813, 27889, 28811, 28612, 27917, 28584, 28864, 28073, 28344, 29382, 28544, 28235, 28913, 28510, 28499, 28643, 28817, 28548, 27848, 28755, 29305, 28629, 28396, 29363, 29360, 28107, 28128, 29037, 28818, 27818, 27942, 28940, 27801, 28119, 27934, 28416, 28548, 27558, 27661, 27377, 28477, 27879, 27473, 27979, 28760, 27768, 27765, 28807, 27634, 27315, 27876, 29384, 27869, 28142, 28442, 28984, 28388, 28045, 28992, 28937, 27874, 28242, 28910, 28317, 28547, 28701, 28905, 27850, 27904, 28639, 28415, 27834, 28144, 28790, 28177, 27681, 28616, 28493, 27712, 28683, 28908, 28309, 28348, 28921, 28825, 28131, 28798, 28435, 27805, 28092, 28794, 28453, 28401, 27934, 28130, 27663, 27932, 28440, 27990, 27977, 28711, 28536, 28069, 27856, 28566, 27991, 28046, 28878, 28263, 28160, 28620, 28053, 29487, 28697, 27935, 27662, 28797, 28251, 28209, 28601, 29075, 28958, 28035, 28554, 29059, 27715, 27736, 28545, 28235, 28248, 28790, 28477, 28152, 28154, 28620, 28425, 28599, 28755, 28841, 28032, 28393, 28506, 28114, 28076, 28840, 28529, 28321, 27895, 28965, 28237, 28080, 28690, 29126, 28465, 28313, 29147, 28997, 27919, 28434, 29633, 28750, 28264, 28696, 28599, 28489, 28268, 28283, 28501, 28216, 27914, 28910, 28365, 27921, 27822, 28383, 29289, 27993, 27590, 28411, 28006, 27625, 28214, 28664, 28432, 28161, 28758, 29293, 28238, 29266, 28340, 28086, 28543, 29288, 28571, 28465, 28513, 28640, 28036, 28085, 28519, 28108, 27878, 28361, 28731, 28180, 28174, 28871, 28407, 28022, 28767, 28592, 27934, 28569, 29275, 28792, 28373, 28762, 28805, 27893, 28691, 29393, 28732, 28329, 28761, 28863, 28032, 28178, 28938, 28422, 27747, 29120, 28800, 27970, 28864, 28699, 28150, 28152, 29112, 28756, 28582, 28844, 28361, 29004, 28753, 28465, 28903, 28977, 28354, 28402, 29245, 28227, 27969, 28426, 29238, 28398, 28158, 28801, 28837, 27631, 27467, 28314, 28183, 28006, 28580, 28485, 27602, 27698, 28353, 28310, 27962, 28009, 29009, 28003, 27564, 28175, 28285, 27983, 27943, 28252, 28389, 27704, 28284, 27881, 28631],
      "WindowCenter": [9288.0, 9301.0, 9264.0, 9265.0, 9283.0, 9273.0, 9260.0, 9271.0, 9273.0, 9255.0, 9261.0, 9285.0, 9259.0, 9241.0, 9200.0, 9210.0, 9211.0, 9221.0, 9238.0, 9241.0, 9238.0, 9258.0, 9259.0, 9245.0, 9254.0, 9272.0, 9255.0, 9257.0, 9258.0, 9242.0, 9243.0, 9238.0, 9239.0, 9250.0, 9248.0, 9266.0, 9263.0, 9253.0, 9153.0, 9250.0, 9256.0, 9217.0, 9217.0, 9239.0, 9242.0, 9248.0, 9242.0, 9252.0, 9241.0, 9246.0, 9240.0, 9243.0, 9240.0, 9231.0, 9233.0, 9223.0, 9230.0, 9221.0, 9222.0, 9228.0, 9238.0, 9219.0, 9218.0, 9230.0, 9213.0, 9197.0, 9209.0, 9224.0, 9207.0, 9207.0, 9212.0, 9215.0, 9220.0, 9222.0, 9242.0, 9231.0, 9228.0, 9226.0, 9222.0, 9217.0, 9224.0, 9238.0, 9228.0, 9211.0, 9217.0, 9230.0, 9231.0, 9220.0, 9224.0, 9228.0, 9232.0, 9218.0, 9222.0, 9220.0, 9208.0, 9227.0, 9228.0, 9222.0, 9223.0, 9235.0, 9237.0, 9225.0, 9237.0, 9230.0, 9221.0, 9225.0, 9235.0, 9229.0, 9241.0, 9197.0, 9213.0, 9218.0, 9224.0, 9230.0, 9217.0, 9201.0, 9218.0, 9222.0, 9215.0, 9209.0, 9219.0, 9209.0, 9214.0, 9226.0, 9220.0, 9225.0, 9242.0, 9236.0, 9243.0, 9223.0, 9202.0, 9193.0, 9206.0, 9199.0, 9209.0, 9223.0, 9234.0, 9233.0, 9227.0, 9223.0, 9220.0, 9203.0, 9201.0, 9221.0, 9217.0, 9218.0, 9237.0, 9225.0, 9226.0, 9218.0, 9224.0, 9215.0, 9214.0, 9208.0, 9200.0, 9204.0, 9211.0, 9211.0, 9207.0, 9208.0, 9217.0, 9205.0, 9204.0, 9190.0, 9206.0, 9196.0, 9197.0, 9211.0, 9215.0, 9211.0, 9206.0, 9217.0, 9227.0, 9220.0, 9232.0, 9248.0, 9227.0, 9223.0, 9235.0, 9223.0, 9239.0, 9232.0, 9222.0, 9214.0, 9215.0, 9208.0, 9226.0, 9229.0, 9218.0, 9221.0, 9241.0, 9250.0, 9225.0, 9202.0, 9218.0, 9212.0, 9193.0, 9205.0, 9217.0, 9214.0, 9217.0, 9228.0, 9239.0, 9214.0, 9234.0, 9238.0, 9232.0, 9232.0, 9241.0, 9223.0, 9229.0, 9221.0, 9218.0, 9216.0, 9214.0, 9218.0, 9220.0, 9217.0, 9228.0, 9221.0, 9214.0, 9205.0, 9216.0, 9221.0, 9222.0, 9236.0, 9222.0, 9227.0, 9240.0, 9244.0, 9248.0, 9242.0, 9238.0, 9229.0, 9212.0, 9229.0, 9241.0, 9231.0, 9222.0, 9227.0, 9210.0, 9202.0, 9205.0, 9216.0, 9222.0, 9218.0, 9240.0, 9228.0, 9208.0, 9219.0, 9220.0, 9217.0, 9224.0, 9233.0, 9211.0, 9221.0, 9246.0, 9243.0, 9237.0, 9220.0, 9204.0, 9191.0, 9193.0, 9200.0, 9211.0, 9224.0, 9213.0, 9217.0, 9221.0, 9219.0, 9216.0, 9208.0, 9217.0, 9211.0, 9201.0, 9200.0, 9205.0, 9216.0, 9217.0, 9219.0, 9228.0, 9203.0, 9200.0, 9212.0, 9212.0, 9207.0, 9204.0, 9205.0, 9195.0, 9191.0, 9202.0, 9196.0, 9198.0, 9197.0, 9194.0, 9194.0, 9197.0, 9202.0, 9188.0, 9204.0],
