{
  "AcquisitionMatrixPE": 104,
  "AcquisitionNumber": 1,
  "AcquisitionTime": "11:48:40.405000",
  "BandwidthPerPixelPhaseEncode": 16.297,
  "BaseResolution": 104,
  "BodyPartExamined": "BRAIN",
  "ConsistencyInfo": "N4_VE11C_LATEST_20160120",
  "ConversionSoftware": "dcm2niix",
  "ConversionSoftwareVersion": "v1.0.20210317",
  "DerivedVendorReportedEchoSpacing": 0.000590009,
  "DeviceSerialNumber": "166018",
  "DwellTime": 2.1e-06,
  "EchoTime": 0.0376,
  "EchoTrainLength": 104,
  "EffectiveEchoSpacing": 0.000590009,
  "FlipAngle": 68,
  "ImageComments": "Unaliased MB6/PE3/LB",
  "ImageOrientationPatientDICOM": [0.99905, 0.0435014, 0.00247662, -0.042746, 0.989544, -0.137751],
  "ImageType": [
    "ORIGINAL",
    "PRIMARY",
    "M",
    "MB",
    "ND",
    "MOSAIC"
],
  "ImagingFrequency": 123.197,
  "InPlanePhaseEncodingDirectionDICOM": "COL",
  "InstitutionAddress": "Washington Place 6,NYC,NYC,US,10003",
  "InstitutionName": "NYU - CBI",
  "InstitutionalDepartmentName": "Department",
  "MRAcquisitionType": "2D",
  "MagneticFieldStrength": 3,
  "Manufacturer": "Siemens",
  "ManufacturersModelName": "Prisma",
  "Modality": "MR",
  "MultibandAccelerationFactor": 6,
  "PartialFourier": 1,
  "PatientPosition": "HFS",
  "PercentPhaseFOV": 100,
  "PercentSampling": 100,
  "PhaseEncodingDirection": "j",
  "PhaseEncodingSteps": 104,
  "PhaseResolution": 1,
  "PixelBandwidth": 2290,
  "ProcedureStepDescription": "Investigators^Winawer",
  "ProtocolName": "cmrr_mbepi_s6_2mm_66sl_PA_task-bar1",
  "PulseSequenceDetails": "%CustomerSeq%\\cmrr_mbep2d_bold",
  "ReceiveCoilActiveElements": "HC1-7",
  "ReceiveCoilName": "HeadNeck_64",
  "ReconMatrixPE": 104,
  "RepetitionTime": 1,
  "SAR": 0.0848736,
  "ScanOptions": "FS",
  "ScanningSequence": "EP",
  "SequenceName": "epfid2d1_104",
  "SequenceVariant": "SK\\SS",
  "SeriesDescription": "cmrr_mbepi_s6_2mm_66sl_PA_task-bar1",
  "SeriesNumber": 8,
  "ShimSetting": [292, -12652, -8446, 297, 58, -221, 19, 55],
  "SliceThickness": 2,
  "SliceTiming": [0, 0.535, 0.09, 0.625, 0.18, 0.7125, 0.2675, 0.8025, 0.3575, 0.8925, 0.445, 0, 0.535, 0.09, 0.625, 0.18, 0.7125, 0.2675, 0.8025, 0.3575, 0.8925, 0.445, 0, 0.535, 0.09, 0.625, 0.18, 0.7125, 0.2675, 0.8025, 0.3575, 0.8925, 0.445, 0, 0.535, 0.09, 0.625, 0.18, 0.7125, 0.2675, 0.8025, 0.3575, 0.8925, 0.445, 0, 0.535, 0.09, 0.625, 0.18, 0.7125, 0.2675, 0.8025, 0.3575, 0.8925, 0.445, 0, 0.535, 0.09, 0.625, 0.18, 0.7125, 0.2675, 0.8025, 0.3575, 0.8925, 0.445],
  "SoftwareVersions": "syngo MR E11",
  "SpacingBetweenSlices": 2,
  "StationName": "AWP166018",
  "TaskName": "bar1",
  "TotalReadoutTime": 0.060771,
  "TxRefAmp": 243.634,
  "VendorReportedEchoSpacing": 0.00059,
  "WipMemBlock": "ee394d96-7498-4b6f-8e40-cc3034cf4f42||Sequence: R016 ve11c/master r/8780670; Nov 27 2017 15:05:12 by eja",
  "dcmmeta_affine": [
    [-1.9981006383895874, -0.08549196273088455, 0.016886195167899132, 113.2522964477539],
    [-0.08700278401374817, 1.9790880680084229, -0.27502933144569397, -73.0588150024414],
    [0.004953235387802124, 0.27550268173217773, 1.980927586555481, -56.49468994140625],
    [0.0, 0.0, 0.0, 1.0]
],
  "dcmmeta_reorient_transform": [
    [0.0, -1.0, 0.0, 103.0],
    [1.0, 0.0, 0.0, 0.0],
    [0.0, 0.0, 1.0, 0.0],
    [0.0, 0.0, 0.0, 1.0]
],
  "dcmmeta_shape": [104, 104, 66, 300],
  "dcmmeta_slice_dim": 2,
  "dcmmeta_version": 0.6,
  "global": {
    "const": {
      "AccessionNumber": "Lf9p0r65",
      "AcquisitionMatrix": [104, 0, 0, 104],
      "AngioFlag": "N",
      "BitsAllocated": 16,
      "BitsStored": 16,
      "BodyPartExamined": "BRAIN",
      "Columns": 936,
      "EchoNumbers": 1,
      "EchoTime": 37.6,
      "EchoTrainLength": 104,
      "FlipAngle": 68.0,
      "HighBit": 15,
      "ImageOrientationPatient": [0.99905029664286, 0.04350139241817, 0.00247661775242, -0.0427459808903, 0.98954401039518, -0.1377513434009],
      "ImagePositionPatient": [-900.09181397065, -990.28102765769, 84.430657916446],
      "ImageType": [
        "ORIGINAL",
        "PRIMARY",
        "M",
        "MB",
        "ND",
        "MOSAIC"
],
      "ImagedNucleus": "1H",
      "ImagingFrequency": 123.196773,
      "InPlanePhaseEncodingDirection": "COL",
      "MRAcquisitionType": "2D",
      "MagneticFieldStrength": 3.0,
      "Manufacturer": "SIEMENS",
      "ManufacturerModelName": "Prisma",
      "Modality": "MR",
      "NumberOfAverages": 1.0,
      "NumberOfPhaseEncodingSteps": 104,
      "PercentPhaseFieldOfView": 100.0,
      "PercentSampling": 100.0,
      "PerformedProcedureStepStartTime": "113326.785000",
      "PhotometricInterpretation": "MONOCHROME2",
      "PixelBandwidth": 2290.0,
      "PixelRepresentation": 0,
      "PixelSpacing": [2.0, 2.0],
      "ProtocolName": "cmrr_mbepi_s6_2mm_66sl_PA_task-bar1",
      "RepetitionTime": 1000.0,
      "Rows": 936,
      "SAR": 0.08487359318613,
      "SamplesPerPixel": 1,
      "ScanOptions": "FS",
      "ScanningSequence": "EP",
      "SequenceName": "epfid2d1_104",
      "SequenceVariant": [
        "SK",
        "SS"
],
      "SeriesDescription": "cmrr_mbepi_s6_2mm_66sl_PA_task-bar1",
      "SeriesNumber": 8,
      "SeriesTime": "115000.551000",
      "SliceLocation": -44.953085165728,
      "SliceThickness": 2.0,
      "SmallestImagePixelValue": 0,
      "SoftwareVersions": "syngo MR E11",
      "SpacingBetweenSlices": 2.000000076319,
      "SpecificCharacterSet": "ISO_IR 100",
      "StudyID": "1",
      "StudyTime": "113326.723000",
      "TransmitCoilName": "Body",
      "VariableFlipAngleFlag": "N",
      "WindowCenterWidthExplanation": "Algo1",
      "dBdt": 0.0},
    "slices": {}
  },
  "time": {
    "samples": {
      "AcquisitionNumber": [1, 2, 3, 4, 5, 6, 7, 8, 9, 10, 11, 12, 13, 14, 15, 16, 17, 18, 19, 20, 21, 22, 23, 24, 25, 26, 27, 28, 29, 30, 31, 32, 33, 34, 35, 36, 37, 38, 39, 40, 41, 42, 43, 44, 45, 46, 47, 48, 49, 50, 51, 52, 53, 54, 55, 56, 57, 58, 59, 60, 61, 62, 63, 64, 65, 66, 67, 68, 69, 70, 71, 72, 73, 74, 75, 76, 77, 78, 79, 80, 81, 82, 83, 84, 85, 86, 87, 88, 89, 90, 91, 92, 93, 94, 95, 96, 97, 98, 99, 100, 101, 102, 103, 104, 105, 106, 107, 108, 109, 110, 111, 112, 113, 114, 115, 116, 117, 118, 119, 120, 121, 122, 123, 124, 125, 126, 127, 128, 129, 130, 131, 132, 133, 134, 135, 136, 137, 138, 139, 140, 141, 142, 143, 144, 145, 146, 147, 148, 149, 150, 151, 152, 153, 154, 155, 156, 157, 158, 159, 160, 161, 162, 163, 164, 165, 166, 167, 168, 169, 170, 171, 172, 173, 174, 175, 176, 177, 178, 179, 180, 181, 182, 183, 184, 185, 186, 187, 188, 189, 190, 191, 192, 193, 194, 195, 196, 197, 198, 199, 200, 201, 202, 203, 204, 205, 206, 207, 208, 209, 210, 211, 212, 213, 214, 215, 216, 217, 218, 219, 220, 221, 222, 223, 224, 225, 226, 227, 228, 229, 230, 231, 232, 233, 234, 235, 236, 237, 238, 239, 240, 241, 242, 243, 244, 245, 246, 247, 248, 249, 250, 251, 252, 253, 254, 255, 256, 257, 258, 259, 260, 261, 262, 263, 264, 265, 266, 267, 268, 269, 270, 271, 272, 273, 274, 275, 276, 277, 278, 279, 280, 281, 282, 283, 284, 285, 286, 287, 288, 289, 290, 291, 292, 293, 294, 295, 296, 297, 298, 299, 300],
      "AcquisitionTime": ["114840.405000", "114841.405000", "114842.405000", "114843.405000", "114844.405000", "114845.405000", "114846.405000", "114847.405000", "114848.405000", "114849.405000", "114850.405000", "114851.405000", "114852.405000", "114853.405000", "114854.405000", "114855.405000", "114856.405000", "114857.405000", "114858.405000", "114859.405000", "114900.405000", "114901.405000", "114902.405000", "114903.405000", "114904.405000", "114905.405000", "114906.405000", "114907.405000", "114908.405000", "114909.405000", "114910.405000", "114911.405000", "114912.405000", "114913.405000", "114914.405000", "114915.405000", "114916.405000", "114917.405000", "114918.405000", "114919.405000", "114920.405000", "114921.405000", "114922.405000", "114923.405000", "114924.405000", "114925.405000", "114926.405000", "114927.405000", "114928.405000", "114929.405000", "114930.405000", "114931.405000", "114932.405000", "114933.405000", "114934.405000", "114935.405000", "114936.405000", "114937.405000", "114938.405000", "114939.405000", "114940.405000", "114941.405000", "114942.405000", "114943.405000", "114944.405000", "114945.405000", "114946.405000", "114947.405000", "114948.405000", "114949.405000", "114950.405000", "114951.405000", "114952.405000", "114953.405000", "114954.405000", "114955.405000", "114956.405000", "114957.405000", "114958.405000", "114959.405000", "115000.405000", "115001.405000", "115002.405000", "115003.405000", "115004.405000", "115005.405000", "115006.405000", "115007.405000", "115008.405000", "115009.405000", "115010.405000", "115011.405000", "115012.405000", "115013.405000", "115014.405000", "115015.405000", "115016.405000", "115017.405000", "115018.405000", "115019.405000", "115020.405000", "115021.405000", "115022.405000", "115023.405000", "115024.405000", "115025.405000", "115026.405000", "115027.405000", "115028.405000", "115029.405000", "115030.405000", "115031.405000", "115032.405000", "115033.405000", "115034.405000", "115035.405000", "115036.405000", "115037.405000", "115038.405000", "115039.405000", "115040.405000", "115041.405000", "115042.405000", "115043.405000", "115044.405000", "115045.405000", "115046.405000", "115047.405000", "115048.405000", "115049.405000", "115050.405000", "115051.405000", "115052.405000", "115053.405000", "115054.405000", "115055.405000", "115056.405000", "115057.405000", "115058.405000", "115059.405000", "115100.405000", "115101.405000", "115102.405000", "115103.405000", "115104.405000", "115105.405000", "115106.405000", "115107.405000", "115108.405000", "115109.405000", "115110.405000", "115111.405000", "115112.405000", "115113.405000", "115114.405000", "115115.405000", "115116.405000", "115117.405000", "115118.405000", "115119.405000", "115120.405000", "115121.405000", "115122.405000", "115123.405000", "115124.405000", "115125.405000", "115126.405000", "115127.405000", "115128.405000", "115129.405000", "115130.405000", "115131.405000", "115132.405000", "115133.405000", "115134.405000", "115135.405000", "115136.405000", "115137.405000", "115138.405000", "115139.405000", "115140.405000", "115141.405000", "115142.405000", "115143.405000", "115144.405000", "115145.405000", "115146.405000", "115147.405000", "115148.405000", "115149.405000", "115150.405000", "115151.405000", "115152.405000", "115153.405000", "115154.405000", "115155.405000", "115156.405000", "115157.405000", "115158.405000", "115159.405000", "115200.405000", "115201.405000", "115202.405000", "115203.405000", "115204.405000", "115205.405000", "115206.405000", "115207.405000", "115208.405000", "115209.405000", "115210.405000", "115211.405000", "115212.405000", "115213.405000", "115214.405000", "115215.405000", "115216.405000", "115217.405000", "115218.405000", "115219.405000", "115220.405000", "115221.405000", "115222.405000", "115223.405000", "115224.405000", "115225.405000", "115226.405000", "115227.405000", "115228.405000", "115229.405000", "115230.405000", "115231.405000", "115232.405000", "115233.405000", "115234.405000", "115235.405000", "115236.405000", "115237.405000", "115238.405000", "115239.405000", "115240.405000", "115241.405000", "115242.405000", "115243.405000", "115244.405000", "115245.405000", "115246.405000", "115247.405000", "115248.405000", "115249.405000", "115250.405000", "115251.405000", "115252.405000", "115253.405000", "115254.405000", "115255.405000", "115256.405000", "115257.405000", "115258.405000", "115259.405000", "115300.405000", "115301.405000", "115302.405000", "115303.405000", "115304.405000", "115305.405000", "115306.405000", "115307.405000", "115308.405000", "115309.405000", "115310.405000", "115311.405000", "115312.405000", "115313.405000", "115314.405000", "115315.405000", "115316.405000", "115317.405000", "115318.405000", "115319.405000", "115320.405000", "115321.405000", "115322.405000", "115323.405000", "115324.405000", "115325.405000", "115326.405000", "115327.405000", "115328.405000", "115329.405000", "115330.405000", "115331.405000", "115332.405000", "115333.405000", "115334.405000", "115335.405000", "115336.405000", "115337.405000", "115338.405000", "115339.405000"],
      "ContentTime": ["115000.554000", "115000.557000", "115000.560000", "115000.563000", "115000.566000", "115000.569000", "115000.572000", "115000.575000", "115000.578000", "115000.581000", "115000.584000", "115000.589000", "115000.592000", "115000.595000", "115000.598000", "115000.601000", "115000.604000", "115000.607000", "115000.610000", "115000.613000", "115000.616000", "115000.619000", "115000.622000", "115000.625000", "115000.628000", "115000.631000", "115000.634000", "115000.640000", "115000.643000", "115000.646000", "115000.649000", "115000.652000", "115000.655000", "115000.658000", "115000.661000", "115020.522000", "115020.525000", "115020.528000", "115020.531000", "115020.534000", "115020.537000", "115020.540000", "115020.543000", "115020.546000", "115020.549000", "115020.552000", "115020.555000", "115020.558000", "115020.561000", "115020.564000", "115020.567000", "115020.570000", "115020.573000", "115020.576000", "115020.579000", "115020.582000", "115020.585000", "115020.588000", "115020.591000", "115020.594000", "115020.597000", "115020.600000", "115020.603000", "115040.522000", "115040.525000", "115040.528000", "115040.531000", "115040.534000", "115040.537000", "115040.540000", "115040.543000", "115040.546000", "115040.549000", "115040.552000", "115040.555000", "115040.558000", "115040.561000", "115040.564000", "115040.567000", "115040.570000", "115040.573000", "115040.576000", "115040.579000", "115040.582000", "115040.585000", "115040.588000", "115040.600000", "115040.603000", "115040.606000", "115040.609000", "115040.612000", "115040.615000", "115100.523000", "115100.526000", "115100.529000", "115100.532000", "115100.535000", "115100.538000", "115100.541000", "115100.544000", "115100.547000", "115100.550000", "115100.553000", "115100.556000", "115100.559000", "115100.562000", "115100.565000", "115100.568000", "115100.571000", "115100.574000", "115100.577000", "115100.580000", "115100.583000", "115100.586000", "115100.589000", "115100.592000", "115100.595000", "115100.598000", "115100.601000", "115100.604000", "115120.537000", "115120.540000", "115120.543000", "115120.546000", "115120.549000", "115120.552000", "115120.555000", "115120.558000", "115120.561000", "115120.564000", "115120.567000", "115120.570000", "115120.573000", "115120.576000", "115120.579000", "115120.582000", "115120.585000", "115120.588000", "115120.591000", "115120.594000", "115120.605000", "115120.608000", "115120.611000", "115120.614000", "115120.617000", "115120.620000", "115120.623000", "115120.626000", "115140.522000", "115140.525000", "115140.528000", "115140.531000", "115140.534000", "115140.537000", "115140.540000", "115140.543000", "115140.546000", "115140.549000", "115140.552000", "115140.555000", "115140.558000", "115140.561000", "115140.564000", "115140.567000", "115140.570000", "115140.573000", "115140.576000", "115140.579000", "115140.582000", "115140.585000", "115140.588000", "115140.591000", "115140.594000", "115140.597000", "115140.600000", "115140.603000", "115140.606000", "115200.522000", "115200.525000", "115200.528000", "115200.531000", "115200.534000", "115200.537000", "115200.540000", "115200.543000", "115200.546000", "115200.549000", "115200.552000", "115200.555000", "115200.558000", "115200.561000", "115200.564000", "115200.567000", "115200.570000", "115200.573000", "115200.576000", "115200.579000", "115200.582000", "115200.585000", "115220.522000", "115220.525000", "115220.528000", "115220.531000", "115220.534000", "115220.537000", "115220.540000", "115220.543000", "115220.546000", "115220.549000", "115220.552000", "115220.555000", "115220.558000", "115220.561000", "115220.564000", "115220.567000", "115220.570000", "115220.573000", "115220.576000", "115220.579000", "115240.522000", "115240.525000", "115240.528000", "115240.531000", "115240.534000", "115240.537000", "115240.540000", "115240.543000", "115240.546000", "115240.549000", "115240.552000", "115240.555000", "115240.558000", "115240.561000", "115240.564000", "115240.567000", "115240.570000", "115240.573000", "115240.576000", "115240.579000", "115300.522000", "115300.525000", "115300.528000", "115300.531000", "115300.534000", "115300.537000", "115300.540000", "115300.543000", "115300.546000", "115300.549000", "115300.552000", "115300.555000", "115300.558000", "115300.561000", "115300.564000", "115300.567000", "115300.570000", "115300.573000", "115300.576000", "115300.579000", "115320.522000", "115320.525000", "115320.528000", "115320.531000", "115320.534000", "115320.537000", "115320.540000", "115320.543000", "115320.546000", "115320.549000", "115320.552000", "115320.555000", "115320.558000", "115320.561000", "115320.564000", "115320.567000", "115320.570000", "115320.573000", "115320.576000", "115320.579000", "115340.522000", "115340.525000", "115340.529000", "115340.532000", "115340.535000", "115340.538000", "115340.541000", "115340.544000", "115340.547000", "115340.550000", "115340.554000", "115340.572000", "115340.575000", "115340.578000", "115340.581000", "115340.584000", "115340.587000", "115340.590000", "115340.593000", "115340.596000", "115341.159000"],
      "InstanceCreationTime": ["115000.554000", "115000.557000", "115000.560000", "115000.563000", "115000.566000", "115000.569000", "115000.572000", "115000.575000", "115000.578000", "115000.581000", "115000.584000", "115000.589000", "115000.592000", "115000.595000", "115000.598000", "115000.601000", "115000.604000", "115000.607000", "115000.610000", "115000.613000", "115000.616000", "115000.619000", "115000.622000", "115000.625000", "115000.628000", "115000.631000", "115000.634000", "115000.640000", "115000.643000", "115000.646000", "115000.649000", "115000.652000", "115000.655000", "115000.658000", "115000.661000", "115020.522000", "115020.525000", "115020.528000", "115020.531000", "115020.534000", "115020.537000", "115020.540000", "115020.543000", "115020.546000", "115020.549000", "115020.552000", "115020.555000", "115020.558000", "115020.561000", "115020.564000", "115020.567000", "115020.570000", "115020.573000", "115020.576000", "115020.579000", "115020.582000", "115020.585000", "115020.588000", "115020.591000", "115020.594000", "115020.597000", "115020.600000", "115020.603000", "115040.522000", "115040.525000", "115040.528000", "115040.531000", "115040.534000", "115040.537000", "115040.540000", "115040.543000", "115040.546000", "115040.549000", "115040.552000", "115040.555000", "115040.558000", "115040.561000", "115040.564000", "115040.567000", "115040.570000", "115040.573000", "115040.576000", "115040.579000", "115040.582000", "115040.585000", "115040.588000", "115040.600000", "115040.603000", "115040.606000", "115040.609000", "115040.612000", "115040.615000", "115100.523000", "115100.526000", "115100.529000", "115100.532000", "115100.535000", "115100.538000", "115100.541000", "115100.544000", "115100.547000", "115100.550000", "115100.553000", "115100.556000", "115100.559000", "115100.562000", "115100.565000", "115100.568000", "115100.571000", "115100.574000", "115100.577000", "115100.580000", "115100.583000", "115100.586000", "115100.589000", "115100.592000", "115100.595000", "115100.598000", "115100.601000", "115100.604000", "115120.537000", "115120.540000", "115120.543000", "115120.546000", "115120.549000", "115120.552000", "115120.555000", "115120.558000", "115120.561000", "115120.564000", "115120.567000", "115120.570000", "115120.573000", "115120.576000", "115120.579000", "115120.582000", "115120.585000", "115120.588000", "115120.591000", "115120.594000", "115120.605000", "115120.608000", "115120.611000", "115120.614000", "115120.617000", "115120.620000", "115120.623000", "115120.626000", "115140.522000", "115140.525000", "115140.528000", "115140.531000", "115140.534000", "115140.537000", "115140.540000", "115140.543000", "115140.546000", "115140.549000", "115140.552000", "115140.555000", "115140.558000", "115140.561000", "115140.564000", "115140.567000", "115140.570000", "115140.573000", "115140.576000", "115140.579000", "115140.582000", "115140.585000", "115140.588000", "115140.591000", "115140.594000", "115140.597000", "115140.600000", "115140.603000", "115140.606000", "115200.522000", "115200.525000", "115200.528000", "115200.531000", "115200.534000", "115200.537000", "115200.540000", "115200.543000", "115200.546000", "115200.549000", "115200.552000", "115200.555000", "115200.558000", "115200.561000", "115200.564000", "115200.567000", "115200.570000", "115200.573000", "115200.576000", "115200.579000", "115200.582000", "115200.585000", "115220.522000", "115220.525000", "115220.528000", "115220.531000", "115220.534000", "115220.537000", "115220.540000", "115220.543000", "115220.546000", "115220.549000", "115220.552000", "115220.555000", "115220.558000", "115220.561000", "115220.564000", "115220.567000", "115220.570000", "115220.573000", "115220.576000", "115220.579000", "115240.522000", "115240.525000", "115240.528000", "115240.531000", "115240.534000", "115240.537000", "115240.540000", "115240.543000", "115240.546000", "115240.549000", "115240.552000", "115240.555000", "115240.558000", "115240.561000", "115240.564000", "115240.567000", "115240.570000", "115240.573000", "115240.576000", "115240.579000", "115300.522000", "115300.525000", "115300.528000", "115300.531000", "115300.534000", "115300.537000", "115300.540000", "115300.543000", "115300.546000", "115300.549000", "115300.552000", "115300.555000", "115300.558000", "115300.561000", "115300.564000", "115300.567000", "115300.570000", "115300.573000", "115300.576000", "115300.579000", "115320.522000", "115320.525000", "115320.528000", "115320.531000", "115320.534000", "115320.537000", "115320.540000", "115320.543000", "115320.546000", "115320.549000", "115320.552000", "115320.555000", "115320.558000", "115320.561000", "115320.564000", "115320.567000", "115320.570000", "115320.573000", "115320.576000", "115320.579000", "115340.522000", "115340.525000", "115340.529000", "115340.532000", "115340.535000", "115340.538000", "115340.541000", "115340.544000", "115340.547000", "115340.550000", "115340.554000", "115340.572000", "115340.575000", "115340.578000", "115340.581000", "115340.584000", "115340.587000", "115340.590000", "115340.593000", "115340.596000", "115341.159000"],
      "InstanceNumber": [1, 2, 3, 4, 5, 6, 7, 8, 9, 10, 11, 12, 13, 14, 15, 16, 17, 18, 19, 20, 21, 22, 23, 24, 25, 26, 27, 28, 29, 30, 31, 32, 33, 34, 35, 36, 37, 38, 39, 40, 41, 42, 43, 44, 45, 46, 47, 48, 49, 50, 51, 52, 53, 54, 55, 56, 57, 58, 59, 60, 61, 62, 63, 64, 65, 66, 67, 68, 69, 70, 71, 72, 73, 74, 75, 76, 77, 78, 79, 80, 81, 82, 83, 84, 85, 86, 87, 88, 89, 90, 91, 92, 93, 94, 95, 96, 97, 98, 99, 100, 101, 102, 103, 104, 105, 106, 107, 108, 109, 110, 111, 112, 113, 114, 115, 116, 117, 118, 119, 120, 121, 122, 123, 124, 125, 126, 127, 128, 129, 130, 131, 132, 133, 134, 135, 136, 137, 138, 139, 140, 141, 142, 143, 144, 145, 146, 147, 148, 149, 150, 151, 152, 153, 154, 155, 156, 157, 158, 159, 160, 161, 162, 163, 164, 165, 166, 167, 168, 169, 170, 171, 172, 173, 174, 175, 176, 177, 178, 179, 180, 181, 182, 183, 184, 185, 186, 187, 188, 189, 190, 191, 192, 193, 194, 195, 196, 197, 198, 199, 200, 201, 202, 203, 204, 205, 206, 207, 208, 209, 210, 211, 212, 213, 214, 215, 216, 217, 218, 219, 220, 221, 222, 223, 224, 225, 226, 227, 228, 229, 230, 231, 232, 233, 234, 235, 236, 237, 238, 239, 240, 241, 242, 243, 244, 245, 246, 247, 248, 249, 250, 251, 252, 253, 254, 255, 256, 257, 258, 259, 260, 261, 262, 263, 264, 265, 266, 267, 268, 269, 270, 271, 272, 273, 274, 275, 276, 277, 278, 279, 280, 281, 282, 283, 284, 285, 286, 287, 288, 289, 290, 291, 292, 293, 294, 295, 296, 297, 298, 299, 300],
      "LargestImagePixelValue": [31686, 31389, 30043, 30876, 31482, 30617, 30939, 30580, 30447, 31482, 30481, 31140, 30935, 30261, 31275, 31255, 30254, 30659, 30437, 30795, 31113, 29929, 30518, 31443, 30417, 30241, 31122, 30643, 30517, 31314, 30092, 31248, 30523, 30770, 31632, 30126, 30653, 31425, 30713, 31093, 30445, 29897, 30185, 30385, 31224, 30830, 30124, 30870, 31285, 30053, 29850, 31373, 31029, 30716, 31213, 31007, 30543, 30918, 30811, 30227, 30467, 30689, 29745, 30793, 30977, 30511, 31474, 30687, 30646, 30961, 29643, 30625, 30434, 30328, 31266, 30527, 30030, 30974, 31385, 30041, 30189, 31177, 30269, 30670, 30548, 29925, 31188, 30746, 29776, 31048, 29762, 29959, 30901, 29899, 30409, 31060, 30129, 30700, 31066, 30179, 30863, 32021, 30955, 29847, 30606, 30971, 30115, 30856, 30736, 30629, 30774, 30993, 30462, 30695, 30920, 30636, 29989, 30689, 30264, 30040, 31078, 30961, 29818, 30848, 31046, 29899, 30343, 31029, 30822, 30749, 31460, 30581, 30574, 31118, 31494, 30396, 30338, 31219, 30496, 30035, 30989, 30672, 29961, 31114, 30909, 30676, 29887, 30936, 30142, 30330, 31193, 30065, 29659, 31059, 30717, 30004, 30250, 30767, 30655, 30662, 31261, 30810, 30807, 30877, 31167, 30314, 30522, 30832, 30309, 30049, 30582, 30071, 30562, 31523, 30758, 30705, 31132, 31225, 30255, 30516, 30504, 31435, 30228, 30061, 30622, 30732, 29856, 30189, 30909, 30000, 30518, 31147, 30142, 30695, 31184, 30315, 31029, 30930, 30069, 30677, 30660, 30740, 31091, 31128, 30427, 30515, 31127, 30551, 30624, 30884, 30540, 30140, 30529, 29649, 29763, 30270, 31186, 30070, 30441, 31143, 30334, 30173, 30756, 30069, 30092, 30231, 30477, 31127, 30121, 30133, 30439, 29953, 29824, 30788, 29473, 29735, 31434, 30253, 30105, 31456, 30734, 30405, 31223, 30421, 30157, 30924, 30482, 29904, 30264, 30311, 30111, 30155, 30047, 30076, 30335, 30402, 29609, 30196, 30638, 29921, 30887, 30541, 29757, 30298, 30648, 29346, 29962, 30773, 29859, 30708, 31061, 30624, 30314, 30532, 30375, 29112, 29825, 29857, 28940, 30141, 30661, 29718, 30527, 29931, 29579, 30240, 29532, 29822, 29925, 29446, 29541, 30584, 29882, 29517, 30149, 29746, 29387, 30248, 29847, 29444],
      "WindowCenter": [9251.0, 9225.0, 9213.0, 9220.0, 9240.0, 9226.0, 9225.0, 9216.0, 9208.0, 9213.0, 9209.0, 9224.0, 9218.0, 9211.0, 9222.0, 9213.0, 9208.0, 9214.0, 9209.0, 9223.0, 9215.0, 9212.0, 9210.0, 9216.0, 9204.0, 9201.0, 9205.0, 9198.0, 9198.0, 9202.0, 9179.0, 9202.0, 9191.0, 9200.0, 9218.0, 9195.0, 9199.0, 9195.0, 9189.0, 9185.0, 9166.0, 9156.0, 9166.0, 9180.0, 9210.0, 9198.0, 9193.0, 9197.0, 9186.0, 9173.0, 9158.0, 9174.0, 9176.0, 9179.0, 9184.0, 9178.0, 9166.0, 9172.0, 9172.0, 9159.0, 9164.0, 9170.0, 9162.0, 9188.0, 9197.0, 9185.0, 9205.0, 9183.0, 9189.0, 9189.0, 9171.0, 9180.0, 9174.0, 9174.0, 9192.0, 9184.0, 9179.0, 9196.0, 9187.0, 9176.0, 9176.0, 9187.0, 9191.0, 9191.0, 9192.0, 9179.0, 9197.0, 9190.0, 9170.0, 9186.0, 9161.0, 9166.0, 9179.0, 9169.0, 9173.0, 9169.0, 9160.0, 9172.0, 9178.0, 9175.0, 9182.0, 9201.0, 9197.0, 9179.0, 9190.0, 9189.0, 9177.0, 9189.0, 9182.0, 9183.0, 9181.0, 9177.0, 9176.0, 9191.0, 9187.0, 9171.0, 9151.0, 9161.0, 9157.0, 9159.0, 9180.0, 9179.0, 9170.0, 9174.0, 9177.0, 9160.0, 9166.0, 9169.0, 9171.0, 9189.0, 9205.0, 9202.0, 9200.0, 9191.0, 9190.0, 9184.0, 9184.0, 9186.0, 9175.0, 9168.0, 9180.0, 9175.0, 9169.0, 9180.0, 9171.0, 9165.0, 9161.0, 9178.0, 9159.0, 9157.0, 9171.0, 9169.0, 9171.0, 9190.0, 9198.0, 9190.0, 9186.0, 9181.0, 9183.0, 9184.0, 9197.0, 9191.0, 9184.0, 9167.0, 9170.0, 9166.0, 9159.0, 9164.0, 9175.0, 9162.0, 9166.0, 9169.0, 9183.0, 9202.0, 9185.0, 9184.0, 9189.0, 9188.0, 9168.0, 9179.0, 9185.0, 9203.0, 9177.0, 9168.0, 9164.0, 9171.0, 9160.0, 9168.0, 9172.0, 9170.0, 9183.0, 9188.0, 9179.0, 9185.0, 9180.0, 9168.0, 9189.0, 9192.0, 9179.0, 9185.0, 9184.0, 9176.0, 9175.0, 9180.0, 9169.0, 9185.0, 9198.0, 9193.0, 9192.0, 9188.0, 9175.0, 9177.0, 9193.0, 9192.0, 9191.0, 9205.0, 9209.0, 9190.0, 9194.0, 9199.0, 9188.0, 9180.0, 9186.0, 9182.0, 9203.0, 9215.0, 9217.0, 9228.0, 9199.0, 9189.0, 9178.0, 9178.0, 9179.0, 9199.0, 9174.0, 9181.0, 9198.0, 9187.0, 9180.0, 9198.0, 9194.0, 9187.0, 9198.0, 9179.0, 9171.0, 9182.0, 9167.0, 9160.0, 9164.0, 9164.0, 9159.0, 9168.0, 9170.0, 9175.0, 9175.0, 9175.0, 9170.0, 9168.0, 9175.0, 9168.0, 9179.0, 9166.0, 9153.0, 9167.0, 9165.0, 9156.0, 9170.0, 9184.0, 9181.0, 9194.0, 9193.0, 9195.0, 9187.0, 9177.0, 9177.0, 9158.0, 9170.0, 9163.0, 9153.0, 9177.0, 9177.0, 9165.0, 9170.0, 9162.0, 9156.0, 9175.0, 9162.0, 9161.0, 9160.0, 9147.0, 9144.0, 9164.0, 9170.0, 9167.0, 9178.0, 9166.0, 9165.0, 9186.0, 9173.0, 9161.0],
