{
  "AcquisitionMatrixPE": 104,
  "AcquisitionNumber": 1,
  "AcquisitionTime": "11:26:30.115000",
  "BandwidthPerPixelPhaseEncode": 16.578,
  "BaseResolution": 104,
  "BodyPartExamined": "BRAIN",
  "ConsistencyInfo": "N4_VE11C_LATEST_20160120",
  "ConversionSoftware": "dcm2niix",
  "ConversionSoftwareVersion": "v1.0.20190902",
  "DerivedVendorReportedEchoSpacing": 0.000580009,
  "DeviceSerialNumber": "166018",
  "DwellTime": 2.1e-06,
  "EchoTime": 0.037,
  "EchoTrainLength": 104,
  "EffectiveEchoSpacing": 0.000580009,
  "FlipAngle": 68,
  "ImageComments": "Unaliased_MB6_PE3_LB",
  "ImageOrientationPatientDICOM": [0.994144, 0.0339182, 0.102598, -0.00451135, 0.961661, -0.274205],
  "ImageType": [
    "ORIGINAL",
    "PRIMARY",
    "M",
    "MB",
    "ND",
    "MOSAIC"
],
  "ImagingFrequency": 123.191,
  "InPlanePhaseEncodingDirectionDICOM": "COL",
  "InstitutionAddress": "Washington_Place_6_NYC_NYC_US_10003",
  "InstitutionName": "NYU_Center_for_Brain_Imaging",
  "InstitutionalDepartmentName": "Department",
  "MRAcquisitionType": "2D",
  "MagneticFieldStrength": 3,
  "Manufacturer": "Siemens",
  "ManufacturersModelName": "Prisma",
  "Modality": "MR",
  "MultibandAccelerationFactor": 6,
  "PartialFourier": 1,
  "PatientPosition": "HFS",
  "PercentPhaseFOV": 100,
  "PhaseEncodingDirection": "j",
  "PhaseEncodingSteps": 104,
  "PhaseResolution": 1,
  "PixelBandwidth": 2290,
  "ProcedureStepDescription": "Investigators_Winawer",
  "ProtocolName": "cmrr_mbepi_s6_2mm_66sl_PA_TR1.0",
  "PulseSequenceDetails": "%CustomerSeq%_cmrr_mbep2d_bold",
  "ReceiveCoilActiveElements": "HC1-7",
  "ReceiveCoilName": "HeadNeck_64",
  "ReconMatrixPE": 104,
  "RepetitionTime": 1,
  "SAR": 0.061389,
  "ScanOptions": "FS",
  "ScanningSequence": "EP",
  "SequenceName": "epfid2d1_104",
  "SequenceVariant": "SK_SS",
  "SeriesDescription": "cmrr_mbepi_s6_2mm_66sl_PA_TR1.0",
  "SeriesNumber": 29,
  "ShimSetting": [277, -12559, -8497, 408, 22, -254, -26, -22],
  "SliceThickness": 2,
  "SliceTiming": [0, 0.535, 0.09, 0.625, 0.18, 0.7125, 0.2675, 0.8025, 0.3575, 0.8925, 0.4475, 0, 0.535, 0.09, 0.625, 0.18, 0.7125, 0.2675, 0.8025, 0.3575, 0.8925, 0.4475, 0, 0.535, 0.09, 0.625, 0.18, 0.7125, 0.2675, 0.8025, 0.3575, 0.8925, 0.4475, 0, 0.535, 0.09, 0.625, 0.18, 0.7125, 0.2675, 0.8025, 0.3575, 0.8925, 0.4475, 0, 0.535, 0.09, 0.625, 0.18, 0.7125, 0.2675, 0.8025, 0.3575, 0.8925, 0.4475, 0, 0.535, 0.09, 0.625, 0.18, 0.7125, 0.2675, 0.8025, 0.3575, 0.8925, 0.4475],
  "SoftwareVersions": "syngo_MR_E11",
  "SpacingBetweenSlices": 2,
  "StationName": "AWP166018",
  "TaskName": "prf",
  "TotalReadoutTime": 0.0597409,
  "TxRefAmp": 233.532,
  "WipMemBlock": "87e05c5b-6cd6-40c5-9443-dbee7fe77bb9||Sequence: ve11c/master r/ab69a6c; Apr 19 2017 09:47:47 by eja",
  "dcmmeta_affine": [
    [-1.9882889986038208, -0.009022703394293785, 0.21592943370342255, 104.51261138916016],
    [-0.06783630698919296, 1.92332124710083, -0.5442732572555542, -63.26611328125],
    [0.20519542694091797, 0.5484102368354797, 1.9123653173446655, -95.48660278320312],
    [0.0, 0.0, 0.0, 1.0]
],
  "dcmmeta_reorient_transform": [
    [0.0, -1.0, 0.0, 103.0],
    [1.0, 0.0, 0.0, 0.0],
    [0.0, 0.0, 1.0, 0.0],
    [0.0, 0.0, 0.0, 1.0]
],
  "dcmmeta_shape": [104, 104, 66, 192],
  "dcmmeta_slice_dim": 2,
  "dcmmeta_version": 0.6,
  "global": {
    "const": {
      "AccessionNumber": "j94ds9yy",
      "AcquisitionMatrix": [104, 0, 0, 104],
      "AngioFlag": "N",
      "BitsAllocated": 16,
      "BitsStored": 16,
      "BodyPartExamined": "BRAIN",
      "Columns": 936,
      "EchoNumbers": 1,
      "EchoTime": 37.0,
      "EchoTrainLength": 104,
      "FlipAngle": 68.0,
      "HighBit": 15,
      "ImageOrientationPatient": [0.99414449035672, 0.03391815247823, 0.1025977155001, -0.0045113515335, 0.9616606512737, -0.2742051048015],
      "ImagePositionPatient": [-926.95804376744, -963.15754621574, 103.77699365049],
      "ImageType": [
        "ORIGINAL",
        "PRIMARY",
        "M",
        "MB",
        "ND",
        "MOSAIC"
],
      "ImagedNucleus": "1H",
      "ImagingFrequency": 123.191228,
      "InPlanePhaseEncodingDirection": "COL",
      "MRAcquisitionType": "2D",
      "MagneticFieldStrength": 3.0,
      "Manufacturer": "SIEMENS",
      "ManufacturerModelName": "Prisma",
      "Modality": "MR",
      "NumberOfAverages": 1.0,
      "NumberOfPhaseEncodingSteps": 104,
      "PercentPhaseFieldOfView": 100.0,
      "PercentSampling": 100.0,
      "PerformedProcedureStepStartTime": "101656.538000",
      "PhotometricInterpretation": "MONOCHROME2",
      "PixelBandwidth": 2290.0,
      "PixelRepresentation": 0,
      "PixelSpacing": [2.0, 2.0],
      "ProtocolName": "cmrr_mbepi_s6_2mm_66sl_PA_TR1.0",
      "RepetitionTime": 1000.0,
      "Rows": 936,
      "SAR": 0.06138899986298,
      "SamplesPerPixel": 1,
      "ScanOptions": "FS",
      "ScanningSequence": "EP",
      "SequenceName": "epfid2d1_104",
      "SequenceVariant": [
        "SK",
        "SS"
],
      "SeriesDescription": "cmrr_mbepi_s6_2mm_66sl_PA_TR1.0",
      "SeriesNumber": 29,
      "SeriesTime": "112740.010000",
      "SliceLocation": -62.801934570049,
      "SliceThickness": 2.0,
      "SmallestImagePixelValue": 0,
      "SoftwareVersions": "syngo MR E11",
      "SpacingBetweenSlices": 2.0000000112041,
      "SpecificCharacterSet": "ISO_IR 100",
      "StudyID": "1",
      "StudyTime": "101656.462000",
      "TransmitCoilName": "Body",
      "VariableFlipAngleFlag": "N",
      "WindowCenterWidthExplanation": "Algo1",
      "dBdt": 0.0},
    "slices": {}
  },
  "time": {
    "samples": {
      "AcquisitionNumber": [1, 2, 3, 4, 5, 6, 7, 8, 9, 10, 11, 12, 13, 14, 15, 16, 17, 18, 19, 20, 21, 22, 23, 24, 25, 26, 27, 28, 29, 30, 31, 32, 33, 34, 35, 36, 37, 38, 39, 40, 41, 42, 43, 44, 45, 46, 47, 48, 49, 50, 51, 52, 53, 54, 55, 56, 57, 58, 59, 60, 61, 62, 63, 64, 65, 66, 67, 68, 69, 70, 71, 72, 73, 74, 75, 76, 77, 78, 79, 80, 81, 82, 83, 84, 85, 86, 87, 88, 89, 90, 91, 92, 93, 94, 95, 96, 97, 98, 99, 100, 101, 102, 103, 104, 105, 106, 107, 108, 109, 110, 111, 112, 113, 114, 115, 116, 117, 118, 119, 120, 121, 122, 123, 124, 125, 126, 127, 128, 129, 130, 131, 132, 133, 134, 135, 136, 137, 138, 139, 140, 141, 142, 143, 144, 145, 146, 147, 148, 149, 150, 151, 152, 153, 154, 155, 156, 157, 158, 159, 160, 161, 162, 163, 164, 165, 166, 167, 168, 169, 170, 171, 172, 173, 174, 175, 176, 177, 178, 179, 180, 181, 182, 183, 184, 185, 186, 187, 188, 189, 190, 191, 192],
      "AcquisitionTime": ["112630.115000", "112631.115000", "112632.115000", "112633.115000", "112634.115000", "112635.115000", "112636.115000", "112637.115000", "112638.115000", "112639.115000", "112640.115000", "112641.115000", "112642.115000", "112643.115000", "112644.115000", "112645.115000", "112646.115000", "112647.115000", "112648.115000", "112649.115000", "112650.115000", "112651.115000", "112652.115000", "112653.115000", "112654.115000", "112655.115000", "112656.115000", "112657.115000", "112658.115000", "112659.115000", "112700.115000", "112701.115000", "112702.115000", "112703.115000", "112704.115000", "112705.115000", "112706.115000", "112707.115000", "112708.115000", "112709.115000", "112710.115000", "112711.115000", "112712.115000", "112713.115000", "112714.115000", "112715.115000", "112716.115000", "112717.115000", "112718.115000", "112719.115000", "112720.115000", "112721.115000", "112722.115000", "112723.115000", "112724.115000", "112725.115000", "112726.115000", "112727.115000", "112728.115000", "112729.115000", "112730.115000", "112731.115000", "112732.115000", "112733.115000", "112734.115000", "112735.115000", "112736.115000", "112737.115000", "112738.115000", "112739.115000", "112740.115000", "112741.115000", "112742.115000", "112743.115000", "112744.115000", "112745.115000", "112746.115000", "112747.115000", "112748.115000", "112749.115000", "112750.115000", "112751.115000", "112752.115000", "112753.115000", "112754.115000", "112755.115000", "112756.115000", "112757.115000", "112758.115000", "112759.115000", "112800.115000", "112801.115000", "112802.115000", "112803.115000", "112804.115000", "112805.115000", "112806.115000", "112807.115000", "112808.115000", "112809.115000", "112810.115000", "112811.115000", "112812.115000", "112813.115000", "112814.115000", "112815.115000", "112816.115000", "112817.115000", "112818.115000", "112819.115000", "112820.115000", "112821.115000", "112822.115000", "112823.115000", "112824.115000", "112825.115000", "112826.115000", "112827.115000", "112828.115000", "112829.115000", "112830.115000", "112831.115000", "112832.115000", "112833.115000", "112834.115000", "112835.115000", "112836.115000", "112837.115000", "112838.115000", "112839.115000", "112840.115000", "112841.115000", "112842.115000", "112843.115000", "112844.115000", "112845.115000", "112846.115000", "112847.115000", "112848.115000", "112849.115000", "112850.115000", "112851.115000", "112852.115000", "112853.115000", "112854.115000", "112855.115000", "112856.115000", "112857.115000", "112858.115000", "112859.115000", "112900.115000", "112901.115000", "112902.115000", "112903.115000", "112904.115000", "112905.115000", "112906.115000", "112907.115000", "112908.115000", "112909.115000", "112910.115000", "112911.115000", "112912.115000", "112913.115000", "112914.115000", "112915.115000", "112916.115000", "112917.115000", "112918.115000", "112919.115000", "112920.115000", "112921.115000", "112922.115000", "112923.115000", "112924.115000", "112925.115000", "112926.115000", "112927.115000", "112928.115000", "112929.115000", "112930.115000", "112931.115000", "112932.115000", "112933.115000", "112934.115000", "112935.115000", "112936.115000", "112937.115000", "112938.115000", "112939.115000", "112940.115000", "112941.115000"],
      "ContentTime": ["112740.013000", "112740.017000", "112740.020000", "112740.023000", "112740.026000", "112740.035000", "112740.038000", "112740.041000", "112740.044000", "112740.047000", "112740.050000", "112740.053000", "112740.056000", "112740.065000", "112740.068000", "112740.071000", "112740.074000", "112740.089000", "112740.092000", "112740.095000", "112740.098000", "112740.101000", "112740.104000", "112740.107000", "112740.110000", "112740.113000", "112740.116000", "112740.119000", "112759.979000", "112759.982000", "112759.985000", "112759.988000", "112759.991000", "112759.994000", "112759.997000", "112800.001000", "112800.004000", "112800.007000", "112800.010000", "112800.013000", "112800.016000", "112800.019000", "112800.021000", "112800.024000", "112800.033000", "112800.036000", "112800.039000", "112800.042000", "112800.045000", "112800.048000", "112800.051000", "112800.054000", "112800.057000", "112800.060000", "112800.063000", "112800.066000", "112819.979000", "112819.982000", "112819.985000", "112819.988000", "112819.991000", "112819.994000", "112819.997000", "112820.000000", "112820.003000", "112820.006000", "112820.009000", "112820.012000", "112820.015000", "112820.017000", "112820.020000", "112820.023000", "112820.026000", "112820.029000", "112820.032000", "112820.035000", "112820.038000", "112820.041000", "112820.044000", "112820.047000", "112820.056000", "112820.059000", "112820.062000", "112820.065000", "112839.979000", "112839.982000", "112839.985000", "112840.005000", "112840.014000", "112840.017000", "112840.020000", "112840.023000", "112840.026000", "112840.029000", "112840.032000", "112840.035000", "112840.038000", "112840.041000", "112840.044000", "112840.047000", "112840.050000", "112840.053000", "112840.056000", "112840.059000", "112840.062000", "112840.065000", "112840.068000", "112840.071000", "112840.074000", "112840.077000", "112840.080000", "112840.082000", "112840.085000", "112859.979000", "112859.982000", "112859.985000", "112859.988000", "112859.991000", "112859.994000", "112859.997000", "112900.001000", "112900.004000", "112900.007000", "112900.010000", "112900.013000", "112900.016000", "112900.019000", "112900.022000", "112900.025000", "112900.028000", "112900.031000", "112900.034000", "112900.037000", "112900.040000", "112900.043000", "112900.045000", "112900.048000", "112900.051000", "112900.054000", "112900.057000", "112900.060000", "112919.979000", "112919.982000", "112919.985000", "112919.988000", "112919.991000", "112919.994000", "112919.997000", "112920.001000", "112920.009000", "112920.012000", "112920.015000", "112920.018000", "112920.021000", "112920.024000", "112920.027000", "112920.030000", "112920.033000", "112920.036000", "112920.039000", "112920.042000", "112920.045000", "112920.048000", "112920.051000", "112920.054000", "112920.057000", "112920.060000", "112920.063000", "112920.066000", "112939.979000", "112939.982000", "112939.985000", "112939.988000", "112939.991000", "112939.994000", "112939.997000", "112940.001000", "112940.004000", "112940.007000", "112940.010000", "112940.013000", "112940.016000", "112940.019000", "112940.022000", "112940.025000", "112940.028000", "112940.031000", "112940.034000", "112940.037000", "112942.807000", "112942.811000", "112942.814000"],
      "InstanceCreationTime": ["112740.013000", "112740.017000", "112740.020000", "112740.023000", "112740.026000", "112740.035000", "112740.038000", "112740.041000", "112740.044000", "112740.047000", "112740.050000", "112740.053000", "112740.056000", "112740.065000", "112740.068000", "112740.071000", "112740.074000", "112740.089000", "112740.092000", "112740.095000", "112740.098000", "112740.101000", "112740.104000", "112740.107000", "112740.110000", "112740.113000", "112740.116000", "112740.119000", "112759.979000", "112759.982000", "112759.985000", "112759.988000", "112759.991000", "112759.994000", "112759.997000", "112800.001000", "112800.004000", "112800.007000", "112800.010000", "112800.013000", "112800.016000", "112800.019000", "112800.021000", "112800.024000", "112800.033000", "112800.036000", "112800.039000", "112800.042000", "112800.045000", "112800.048000", "112800.051000", "112800.054000", "112800.057000", "112800.060000", "112800.063000", "112800.066000", "112819.979000", "112819.982000", "112819.985000", "112819.988000", "112819.991000", "112819.994000", "112819.997000", "112820.000000", "112820.003000", "112820.006000", "112820.009000", "112820.012000", "112820.015000", "112820.017000", "112820.020000", "112820.023000", "112820.026000", "112820.029000", "112820.032000", "112820.035000", "112820.038000", "112820.041000", "112820.044000", "112820.047000", "112820.056000", "112820.059000", "112820.062000", "112820.065000", "112839.979000", "112839.982000", "112839.985000", "112840.005000", "112840.014000", "112840.017000", "112840.020000", "112840.023000", "112840.026000", "112840.029000", "112840.032000", "112840.035000", "112840.038000", "112840.041000", "112840.044000", "112840.047000", "112840.050000", "112840.053000", "112840.056000", "112840.059000", "112840.062000", "112840.065000", "112840.068000", "112840.071000", "112840.074000", "112840.077000", "112840.080000", "112840.082000", "112840.085000", "112859.979000", "112859.982000", "112859.985000", "112859.988000", "112859.991000", "112859.994000", "112859.997000", "112900.001000", "112900.004000", "112900.007000", "112900.010000", "112900.013000", "112900.016000", "112900.019000", "112900.022000", "112900.025000", "112900.028000", "112900.031000", "112900.034000", "112900.037000", "112900.040000", "112900.043000", "112900.045000", "112900.048000", "112900.051000", "112900.054000", "112900.057000", "112900.060000", "112919.979000", "112919.982000", "112919.985000", "112919.988000", "112919.991000", "112919.994000", "112919.997000", "112920.001000", "112920.009000", "112920.012000", "112920.015000", "112920.018000", "112920.021000", "112920.024000", "112920.027000", "112920.030000", "112920.033000", "112920.036000", "112920.039000", "112920.042000", "112920.045000", "112920.048000", "112920.051000", "112920.054000", "112920.057000", "112920.060000", "112920.063000", "112920.066000", "112939.979000", "112939.982000", "112939.985000", "112939.988000", "112939.991000", "112939.994000", "112939.997000", "112940.001000", "112940.004000", "112940.007000", "112940.010000", "112940.013000", "112940.016000", "112940.019000", "112940.022000", "112940.025000", "112940.028000", "112940.031000", "112940.034000", "112940.037000", "112942.807000", "112942.811000", "112942.814000"],
      "InstanceNumber": [1, 2, 3, 4, 5, 6, 7, 8, 9, 10, 11, 12, 13, 14, 15, 16, 17, 18, 19, 20, 21, 22, 23, 24, 25, 26, 27, 28, 29, 30, 31, 32, 33, 34, 35, 36, 37, 38, 39, 40, 41, 42, 43, 44, 45, 46, 47, 48, 49, 50, 51, 52, 53, 54, 55, 56, 57, 58, 59, 60, 61, 62, 63, 64, 65, 66, 67, 68, 69, 70, 71, 72, 73, 74, 75, 76, 77, 78, 79, 80, 81, 82, 83, 84, 85, 86, 87, 88, 89, 90, 91, 92, 93, 94, 95, 96, 97, 98, 99, 100, 101, 102, 103, 104, 105, 106, 107, 108, 109, 110, 111, 112, 113, 114, 115, 116, 117, 118, 119, 120, 121, 122, 123, 124, 125, 126, 127, 128, 129, 130, 131, 132, 133, 134, 135, 136, 137, 138, 139, 140, 141, 142, 143, 144, 145, 146, 147, 148, 149, 150, 151, 152, 153, 154, 155, 156, 157, 158, 159, 160, 161, 162, 163, 164, 165, 166, 167, 168, 169, 170, 171, 172, 173, 174, 175, 176, 177, 178, 179, 180, 181, 182, 183, 184, 185, 186, 187, 188, 189, 190, 191, 192],
      "LargestImagePixelValue": [34165, 34232, 34014, 33351, 33367, 33587, 32636, 34121, 33644, 33952, 34628, 34020, 33571, 33618, 34320, 35215, 34046, 34380, 34180, 34081, 33583, 33604, 34429, 34066, 34476, 34495, 33567, 34038, 33526, 33195, 33848, 34011, 35065, 33904, 33160, 34480, 33557, 33299, 33530, 33636, 33888, 33606, 33511, 33669, 33357, 34034, 33713, 34205, 33542, 32991, 32763, 33883, 33128, 33411, 33511, 34209, 33351, 33367, 33290, 33479, 33362, 33407, 32990, 33807, 33370, 33561, 33509, 33567, 33678, 33086, 33027, 33113, 33041, 33475, 35084, 33927, 33667, 32854, 32916, 33826, 33465, 33228, 33186, 33597, 32878, 35319, 32809, 33130, 33375, 33323, 33233, 33241, 32671, 33391, 33528, 33368, 33530, 35019, 32890, 32647, 32282, 33201, 33180, 32973, 33196, 33069, 33115, 33798, 33313, 33151, 33029, 33578, 34157, 34624, 33966, 32998, 34219, 34096, 33978, 34056, 34949, 33789, 34020, 34346, 33652, 33914, 34330, 33507, 34562, 33110, 33157, 33668, 34051, 33695, 33051, 33538, 33910, 34648, 34306, 34394, 34709, 34808, 35059, 34823, 35247, 35283, 35071, 34513, 35094, 35539, 35253, 34921, 35309, 35460, 35429, 35195, 34935, 35294, 35615, 35126, 34864, 35125, 35515, 34952, 35236, 35196, 35655, 34965, 35702, 35328, 35384, 35812, 35345, 37851, 33830, 34957, 34650, 34124, 34252, 33876, 33807, 33521, 34171, 33733, 33214, 33434, 34208, 34613, 33635, 33502, 34659, 34266],
      "WindowCenter": [9877.0, 9853.0, 9835.0, 9829.0, 9830.0, 9836.0, 9818.0, 9852.0, 9847.0, 9845.0, 9860.0, 9844.0, 9830.0, 9829.0, 9843.0, 9846.0, 9838.0, 9865.0, 9867.0, 9859.0, 9851.0, 9843.0, 9845.0, 9820.0, 9813.0, 9805.0, 9792.0, 9797.0, 9798.0, 9794.0, 9800.0, 9801.0, 9819.0, 9811.0, 9812.0, 9837.0, 9832.0, 9826.0, 9834.0, 9828.0, 9836.0, 9847.0, 9842.0, 9840.0, 9839.0, 9843.0, 9826.0, 9822.0, 9813.0, 9804.0, 9815.0, 9837.0, 9834.0, 9844.0, 9867.0, 9873.0, 9854.0, 9853.0, 9854.0, 9849.0, 9842.0, 9842.0, 9825.0, 9827.0, 9813.0, 9810.0, 9807.0, 9810.0, 9815.0, 9807.0, 9834.0, 9828.0, 9838.0, 9864.0, 9879.0, 9860.0, 9862.0, 9842.0, 9838.0, 9851.0, 9842.0, 9836.0, 9835.0, 9829.0, 9817.0, 9837.0, 9821.0, 9830.0, 9812.0, 9823.0, 9831.0, 9843.0, 9827.0, 9840.0, 9837.0, 9833.0, 9827.0, 9833.0, 9801.0, 9785.0, 9777.0, 9795.0, 9796.0, 9800.0, 9817.0, 9821.0, 9823.0, 9835.0, 9836.0, 9838.0, 9832.0, 9845.0, 9855.0, 9872.0, 9858.0, 9863.0, 9903.0, 9905.0, 9902.0, 9898.0, 9916.0, 9875.0, 9886.0, 9882.0, 9858.0, 9854.0, 9850.0, 9828.0, 9821.0, 9798.0, 9814.0, 9819.0, 9826.0, 9828.0, 9824.0, 9830.0, 9840.0, 9862.0, 9856.0, 9847.0, 9842.0, 9842.0, 9842.0, 9834.0, 9847.0, 9855.0, 9857.0, 9856.0, 9878.0, 9882.0, 9882.0, 9882.0, 9881.0, 9880.0, 9879.0, 9873.0, 9874.0, 9883.0, 9899.0, 9902.0, 9904.0, 9911.0, 9915.0, 9902.0, 9899.0, 9897.0, 9888.0, 9876.0, 9891.0, 9877.0, 9883.0, 9888.0, 9885.0, 9902.0, 9870.0, 9860.0, 9842.0, 9825.0, 9815.0, 9799.0, 9798.0, 9792.0, 9806.0, 9802.0, 9802.0, 9805.0, 9832.0, 9832.0, 9823.0, 9832.0, 9856.0, 9858.0],
      "WindowWidth": [20963.0, 20902.0, 20864.0, 20854.0, 20858.0, 20867.0, 20835.0, 20901.0, 20892.0, 20888.0, 20915.0, 20887.0, 20862.0, 20859.0, 20885.0, 20885.0, 20882.0, 20940.0, 20945.0, 20928.0, 20908.0, 20891.0, 20886.0, 20837.0, 20812.0, 20795.0, 20777.0, 20784.0, 20786.0, 20782.0, 20787.0, 20792.0, 20824.0, 20819.0, 20835.0, 20885.0, 20879.0, 20869.0, 20883.0, 20871.0, 20887.0, 20910.0, 20899.0, 20893.0, 20891.0, 20897.0, 20862.0, 20853.0, 20833.0, 20815.0, 20841.0, 20880.0, 20874.0, 20899.0, 20947.0, 20957.0, 20927.0, 20923.0, 20923.0, 20909.0, 20895.0, 20892.0, 20867.0, 20866.0, 20839.0, 20836.0, 20828.0, 20836.0, 20840.0, 20828.0, 20884.0, 20875.0, 20894.0, 20947.0, 20966.0, 20934.0, 20937.0, 20900.0, 20891.0, 20910.0, 20892.0, 20886.0, 20880.0, 20871.0, 20851.0, 20885.0, 20861.0, 20881.0, 20839.0, 20861.0, 20877.0, 20902.0, 20868.0, 20896.0, 20887.0, 20886.0, 20869.0, 20869.0, 20808.0, 20776.0, 20764.0, 20798.0, 20806.0, 20814.0, 20851.0, 20865.0, 20868.0, 20893.0, 20896.0, 20902.0, 20893.0, 20913.0, 20933.0, 20964.0, 20934.0, 20952.0, 21036.0, 21041.0, 21032.0, 21022.0, 21053.0, 20966.0, 20987.0, 20973.0, 20921.0, 20907.0, 20895.0, 20849.0, 20832.0, 20795.0, 20826.0, 20832.0, 20848.0, 20858.0, 20854.0, 20865.0, 20886.0, 20927.0, 20911.0, 20889.0, 20876.0, 20878.0, 20876.0, 20860.0, 20886.0, 20904.0, 20908.0, 20914.0, 20960.0, 20968.0, 20973.0, 20972.0, 20970.0, 20966.0, 20965.0, 20954.0, 20960.0, 20978.0, 21014.0, 21020.0, 21031.0, 21054.0, 21057.0, 21034.0, 21020.0, 21014.0, 20988.0, 20964.0, 20991.0, 20964.0, 20978.0, 20985.0, 20981.0, 21006.0, 20966.0, 20934.0, 20896.0, 20861.0, 20837.0, 20804.0, 20805.0, 20793.0, 20821.0, 20817.0, 20819.0, 20826.0, 20874.0, 20875.0, 20859.0, 20877.0, 20927.0, 20929.0]
    },
    "slices": {}
  },
  "NumberOfVolumes": 192
}