{
  "AcquisitionMatrixPE": 104,
  "AcquisitionNumber": 1,
  "AcquisitionTime": "11:18:56.155000",
  "BandwidthPerPixelPhaseEncode": 16.578,
  "BaseResolution": 104,
  "BodyPartExamined": "BRAIN",
  "ConsistencyInfo": "N4_VE11C_LATEST_20160120",
  "ConversionSoftware": "dcm2niix",
  "ConversionSoftwareVersion": "v1.0.20190902",
  "DerivedVendorReportedEchoSpacing": 0.000580009,
  "DeviceSerialNumber": "166018",
  "DwellTime": 2.1e-06,
  "EchoTime": 0.037,
  "EchoTrainLength": 104,
  "EffectiveEchoSpacing": 0.000580009,
  "FlipAngle": 68,
  "ImageComments": "Unaliased_MB6_PE3_LB",
  "ImageOrientationPatientDICOM": [0.994144, 0.0339182, 0.102598, -0.00451135, 0.961661, -0.274205],
  "ImageType": [
    "ORIGINAL",
    "PRIMARY",
    "M",
    "MB",
    "ND",
    "MOSAIC"
],
  "ImagingFrequency": 123.191,
  "InPlanePhaseEncodingDirectionDICOM": "COL",
  "InstitutionAddress": "Washington_Place_6_NYC_NYC_US_10003",
  "InstitutionName": "NYU_Center_for_Brain_Imaging",
  "InstitutionalDepartmentName": "Department",
  "MRAcquisitionType": "2D",
  "MagneticFieldStrength": 3,
  "Manufacturer": "Siemens",
  "ManufacturersModelName": "Prisma",
  "Modality": "MR",
  "MultibandAccelerationFactor": 6,
  "PartialFourier": 1,
  "PatientPosition": "HFS",
  "PercentPhaseFOV": 100,
  "PhaseEncodingDirection": "j",
  "PhaseEncodingSteps": 104,
  "PhaseResolution": 1,
  "PixelBandwidth": 2290,
  "ProcedureStepDescription": "Investigators_Winawer",
  "ProtocolName": "cmrr_mbepi_s6_2mm_66sl_PA_TR1.0",
  "PulseSequenceDetails": "%CustomerSeq%_cmrr_mbep2d_bold",
  "ReceiveCoilActiveElements": "HC1-7",
  "ReceiveCoilName": "HeadNeck_64",
  "ReconMatrixPE": 104,
  "RepetitionTime": 1,
  "SAR": 0.061389,
  "ScanOptions": "FS",
  "ScanningSequence": "EP",
  "SequenceName": "epfid2d1_104",
  "SequenceVariant": "SK_SS",
  "SeriesDescription": "cmrr_mbepi_s6_2mm_66sl_PA_TR1.0",
  "SeriesNumber": 25,
  "ShimSetting": [277, -12559, -8497, 408, 22, -254, -26, -22],
  "SliceThickness": 2,
  "SliceTiming": [0, 0.5325, 0.0875, 0.6225, 0.1775, 0.7125, 0.2675, 0.8, 0.355, 0.89, 0.445, 0, 0.5325, 0.0875, 0.6225, 0.1775, 0.7125, 0.2675, 0.8, 0.355, 0.89, 0.445, 0, 0.5325, 0.0875, 0.6225, 0.1775, 0.7125, 0.2675, 0.8, 0.355, 0.89, 0.445, 0, 0.5325, 0.0875, 0.6225, 0.1775, 0.7125, 0.2675, 0.8, 0.355, 0.89, 0.445, 0, 0.5325, 0.0875, 0.6225, 0.1775, 0.7125, 0.2675, 0.8, 0.355, 0.89, 0.445, 0, 0.5325, 0.0875, 0.6225, 0.1775, 0.7125, 0.2675, 0.8, 0.355, 0.89, 0.445],
  "SoftwareVersions": "syngo_MR_E11",
  "SpacingBetweenSlices": 2,
  "StationName": "AWP166018",
  "TaskName": "prf",
  "TotalReadoutTime": 0.0597409,
  "TxRefAmp": 233.532,
  "WipMemBlock": "73e6ab87-4905-4235-b002-9f253118a8ce||Sequence: ve11c/master r/ab69a6c; Apr 19 2017 09:47:47 by eja",
  "dcmmeta_affine": [
    [-1.9882889986038208, -0.009022703394293785, 0.21592943370342255, 104.51261138916016],
    [-0.06783630698919296, 1.92332124710083, -0.5442732572555542, -63.26611328125],
    [0.20519542694091797, 0.5484102368354797, 1.9123653173446655, -95.48660278320312],
    [0.0, 0.0, 0.0, 1.0]
],
  "dcmmeta_reorient_transform": [
    [0.0, -1.0, 0.0, 103.0],
    [1.0, 0.0, 0.0, 0.0],
    [0.0, 0.0, 1.0, 0.0],
    [0.0, 0.0, 0.0, 1.0]
],
  "dcmmeta_shape": [104, 104, 66, 192],
  "dcmmeta_slice_dim": 2,
  "dcmmeta_version": 0.6,
  "global": {
    "const": {
      "AccessionNumber": "j94ds9yy",
      "AcquisitionMatrix": [104, 0, 0, 104],
      "AngioFlag": "N",
      "BitsAllocated": 16,
      "BitsStored": 16,
      "BodyPartExamined": "BRAIN",
      "Columns": 936,
      "EchoNumbers": 1,
      "EchoTime": 37.0,
      "EchoTrainLength": 104,
      "FlipAngle": 68.0,
      "HighBit": 15,
      "ImageOrientationPatient": [0.99414449035672, 0.03391815247823, 0.1025977155001, -0.0045113515335, 0.9616606512737, -0.2742051048015],
      "ImagePositionPatient": [-926.95804376744, -963.15754621574, 103.77699365049],
      "ImageType": [
        "ORIGINAL",
        "PRIMARY",
        "M",
        "MB",
        "ND",
        "MOSAIC"
],
      "ImagedNucleus": "1H",
      "ImagingFrequency": 123.191223,
      "InPlanePhaseEncodingDirection": "COL",
      "MRAcquisitionType": "2D",
      "MagneticFieldStrength": 3.0,
      "Manufacturer": "SIEMENS",
      "ManufacturerModelName": "Prisma",
      "Modality": "MR",
      "NumberOfAverages": 1.0,
      "NumberOfPhaseEncodingSteps": 104,
      "PercentPhaseFieldOfView": 100.0,
      "PercentSampling": 100.0,
      "PerformedProcedureStepStartTime": "101656.538000",
      "PhotometricInterpretation": "MONOCHROME2",
      "PixelBandwidth": 2290.0,
      "PixelRepresentation": 0,
      "PixelSpacing": [2.0, 2.0],
      "ProtocolName": "cmrr_mbepi_s6_2mm_66sl_PA_TR1.0",
      "RepetitionTime": 1000.0,
      "Rows": 936,
      "SAR": 0.06138899986298,
      "SamplesPerPixel": 1,
      "ScanOptions": "FS",
      "ScanningSequence": "EP",
      "SequenceName": "epfid2d1_104",
      "SequenceVariant": [
        "SK",
        "SS"
],
      "SeriesDescription": "cmrr_mbepi_s6_2mm_66sl_PA_TR1.0",
      "SeriesNumber": 25,
      "SeriesTime": "112005.407000",
      "SliceLocation": -62.801934570049,
      "SliceThickness": 2.0,
      "SmallestImagePixelValue": 0,
      "SoftwareVersions": "syngo MR E11",
      "SpacingBetweenSlices": 2.0000000112041,
      "SpecificCharacterSet": "ISO_IR 100",
      "StudyID": "1",
      "StudyTime": "101656.462000",
      "TransmitCoilName": "Body",
      "VariableFlipAngleFlag": "N",
      "WindowCenterWidthExplanation": "Algo1",
      "dBdt": 0.0},
    "slices": {}
  },
  "time": {
    "samples": {
      "AcquisitionNumber": [1, 2, 3, 4, 5, 6, 7, 8, 9, 10, 11, 12, 13, 14, 15, 16, 17, 18, 19, 20, 21, 22, 23, 24, 25, 26, 27, 28, 29, 30, 31, 32, 33, 34, 35, 36, 37, 38, 39, 40, 41, 42, 43, 44, 45, 46, 47, 48, 49, 50, 51, 52, 53, 54, 55, 56, 57, 58, 59, 60, 61, 62, 63, 64, 65, 66, 67, 68, 69, 70, 71, 72, 73, 74, 75, 76, 77, 78, 79, 80, 81, 82, 83, 84, 85, 86, 87, 88, 89, 90, 91, 92, 93, 94, 95, 96, 97, 98, 99, 100, 101, 102, 103, 104, 105, 106, 107, 108, 109, 110, 111, 112, 113, 114, 115, 116, 117, 118, 119, 120, 121, 122, 123, 124, 125, 126, 127, 128, 129, 130, 131, 132, 133, 134, 135, 136, 137, 138, 139, 140, 141, 142, 143, 144, 145, 146, 147, 148, 149, 150, 151, 152, 153, 154, 155, 156, 157, 158, 159, 160, 161, 162, 163, 164, 165, 166, 167, 168, 169, 170, 171, 172, 173, 174, 175, 176, 177, 178, 179, 180, 181, 182, 183, 184, 185, 186, 187, 188, 189, 190, 191, 192],
      "AcquisitionTime": ["111856.155000", "111857.155000", "111858.155000", "111859.155000", "111900.155000", "111901.155000", "111902.155000", "111903.155000", "111904.155000", "111905.155000", "111906.155000", "111907.155000", "111908.155000", "111909.155000", "111910.155000", "111911.155000", "111912.155000", "111913.155000", "111914.155000", "111915.155000", "111916.155000", "111917.155000", "111918.155000", "111919.155000", "111920.155000", "111921.155000", "111922.155000", "111923.155000", "111924.155000", "111925.155000", "111926.155000", "111927.155000", "111928.155000", "111929.155000", "111930.155000", "111931.155000", "111932.155000", "111933.155000", "111934.155000", "111935.155000", "111936.155000", "111937.155000", "111938.155000", "111939.155000", "111940.155000", "111941.155000", "111942.155000", "111943.155000", "111944.155000", "111945.155000", "111946.155000", "111947.155000", "111948.155000", "111949.155000", "111950.155000", "111951.155000", "111952.155000", "111953.155000", "111954.155000", "111955.155000", "111956.155000", "111957.155000", "111958.155000", "111959.155000", "112000.155000", "112001.155000", "112002.155000", "112003.155000", "112004.155000", "112005.155000", "112006.155000", "112007.155000", "112008.155000", "112009.155000", "112010.155000", "112011.155000", "112012.155000", "112013.155000", "112014.155000", "112015.155000", "112016.155000", "112017.155000", "112018.155000", "112019.155000", "112020.155000", "112021.155000", "112022.155000", "112023.155000", "112024.155000", "112025.155000", "112026.155000", "112027.155000", "112028.155000", "112029.155000", "112030.155000", "112031.155000", "112032.155000", "112033.155000", "112034.155000", "112035.155000", "112036.155000", "112037.155000", "112038.155000", "112039.155000", "112040.155000", "112041.155000", "112042.155000", "112043.155000", "112044.155000", "112045.155000", "112046.155000", "112047.155000", "112048.155000", "112049.155000", "112050.155000", "112051.155000", "112052.155000", "112053.155000", "112054.155000", "112055.155000", "112056.155000", "112057.155000", "112058.155000", "112059.155000", "112100.155000", "112101.155000", "112102.155000", "112103.155000", "112104.155000", "112105.155000", "112106.155000", "112107.155000", "112108.155000", "112109.155000", "112110.155000", "112111.155000", "112112.155000", "112113.155000", "112114.155000", "112115.155000", "112116.155000", "112117.155000", "112118.155000", "112119.155000", "112120.155000", "112121.155000", "112122.155000", "112123.155000", "112124.155000", "112125.155000", "112126.155000", "112127.155000", "112128.155000", "112129.155000", "112130.155000", "112131.155000", "112132.155000", "112133.155000", "112134.155000", "112135.155000", "112136.155000", "112137.155000", "112138.155000", "112139.155000", "112140.155000", "112141.155000", "112142.155000", "112143.155000", "112144.155000", "112145.155000", "112146.155000", "112147.155000", "112148.155000", "112149.155000", "112150.155000", "112151.155000", "112152.155000", "112153.155000", "112154.155000", "112155.155000", "112156.155000", "112157.155000", "112158.155000", "112159.155000", "112200.155000", "112201.155000", "112202.155000", "112203.155000", "112204.155000", "112205.155000", "112206.155000", "112207.155000"],
      "ContentTime": ["112005.410000", "112005.414000", "112005.417000", "112005.424000", "112005.434000", "112005.437000", "112005.440000", "112005.443000", "112005.446000", "112005.449000", "112005.452000", "112005.462000", "112005.465000", "112005.468000", "112005.471000", "112005.474000", "112005.477000", "112005.480000", "112005.483000", "112005.486000", "112005.489000", "112005.492000", "112005.495000", "112005.498000", "112005.501000", "112005.504000", "112025.372000", "112025.375000", "112025.378000", "112025.381000", "112025.384000", "112025.387000", "112025.390000", "112025.393000", "112025.395000", "112025.398000", "112025.401000", "112025.404000", "112025.407000", "112025.410000", "112025.413000", "112025.416000", "112025.419000", "112025.422000", "112025.425000", "112025.428000", "112025.431000", "112025.434000", "112025.437000", "112025.440000", "112025.443000", "112025.445000", "112025.448000", "112025.451000", "112025.454000", "112045.373000", "112045.376000", "112045.379000", "112045.382000", "112045.385000", "112045.388000", "112045.391000", "112045.394000", "112045.397000", "112045.400000", "112045.403000", "112045.406000", "112045.409000", "112045.411000", "112045.414000", "112045.417000", "112045.420000", "112045.423000", "112045.426000", "112045.434000", "112045.437000", "112045.440000", "112045.443000", "112045.446000", "112045.449000", "112045.452000", "112045.455000", "112045.458000", "112105.373000", "112105.376000", "112105.379000", "112105.382000", "112105.385000", "112105.388000", "112105.399000", "112105.402000", "112105.406000", "112105.409000", "112105.412000", "112105.415000", "112105.420000", "112105.423000", "112105.426000", "112105.429000", "112105.431000", "112105.434000", "112105.437000", "112105.440000", "112105.443000", "112105.446000", "112105.449000", "112105.452000", "112105.455000", "112105.458000", "112105.461000", "112105.464000", "112125.373000", "112125.376000", "112125.379000", "112125.382000", "112125.385000", "112125.388000", "112125.391000", "112125.394000", "112125.397000", "112125.400000", "112125.403000", "112125.406000", "112125.409000", "112125.412000", "112125.415000", "112125.418000", "112125.421000", "112125.424000", "112125.426000", "112125.429000", "112125.432000", "112125.435000", "112125.438000", "112125.441000", "112125.444000", "112125.447000", "112125.450000", "112125.453000", "112125.456000", "112145.372000", "112145.375000", "112145.378000", "112145.381000", "112145.389000", "112145.392000", "112145.395000", "112145.398000", "112145.401000", "112145.404000", "112145.407000", "112145.410000", "112145.413000", "112145.416000", "112145.419000", "112145.422000", "112145.425000", "112145.428000", "112145.431000", "112145.434000", "112145.437000", "112145.440000", "112145.443000", "112145.446000", "112145.448000", "112145.451000", "112145.459000", "112145.462000", "112205.372000", "112205.375000", "112205.378000", "112205.381000", "112205.384000", "112205.387000", "112205.390000", "112205.393000", "112205.396000", "112205.399000", "112205.402000", "112205.405000", "112205.408000", "112205.411000", "112205.414000", "112205.417000", "112205.420000", "112205.423000", "112205.426000", "112205.429000", "112209.174000", "112209.178000", "112209.181000", "112209.184000"],
      "InstanceCreationTime": ["112005.410000", "112005.414000", "112005.417000", "112005.424000", "112005.434000", "112005.437000", "112005.440000", "112005.443000", "112005.446000", "112005.449000", "112005.452000", "112005.462000", "112005.465000", "112005.468000", "112005.471000", "112005.474000", "112005.477000", "112005.480000", "112005.483000", "112005.486000", "112005.489000", "112005.492000", "112005.495000", "112005.498000", "112005.501000", "112005.504000", "112025.372000", "112025.375000", "112025.378000", "112025.381000", "112025.384000", "112025.387000", "112025.390000", "112025.393000", "112025.395000", "112025.398000", "112025.401000", "112025.404000", "112025.407000", "112025.410000", "112025.413000", "112025.416000", "112025.419000", "112025.422000", "112025.425000", "112025.428000", "112025.431000", "112025.434000", "112025.437000", "112025.440000", "112025.443000", "112025.445000", "112025.448000", "112025.451000", "112025.454000", "112045.373000", "112045.376000", "112045.379000", "112045.382000", "112045.385000", "112045.388000", "112045.391000", "112045.394000", "112045.397000", "112045.400000", "112045.403000", "112045.406000", "112045.409000", "112045.411000", "112045.414000", "112045.417000", "112045.420000", "112045.423000", "112045.426000", "112045.434000", "112045.437000", "112045.440000", "112045.443000", "112045.446000", "112045.449000", "112045.452000", "112045.455000", "112045.458000", "112105.373000", "112105.376000", "112105.379000", "112105.382000", "112105.385000", "112105.388000", "112105.399000", "112105.402000", "112105.406000", "112105.409000", "112105.412000", "112105.415000", "112105.420000", "112105.423000", "112105.426000", "112105.429000", "112105.431000", "112105.434000", "112105.437000", "112105.440000", "112105.443000", "112105.446000", "112105.449000", "112105.452000", "112105.455000", "112105.458000", "112105.461000", "112105.464000", "112125.373000", "112125.376000", "112125.379000", "112125.382000", "112125.385000", "112125.388000", "112125.391000", "112125.394000", "112125.397000", "112125.400000", "112125.403000", "112125.406000", "112125.409000", "112125.412000", "112125.415000", "112125.418000", "112125.421000", "112125.424000", "112125.426000", "112125.429000", "112125.432000", "112125.435000", "112125.438000", "112125.441000", "112125.444000", "112125.447000", "112125.450000", "112125.453000", "112125.456000", "112145.372000", "112145.375000", "112145.378000", "112145.381000", "112145.389000", "112145.392000", "112145.395000", "112145.398000", "112145.401000", "112145.404000", "112145.407000", "112145.410000", "112145.413000", "112145.416000", "112145.419000", "112145.422000", "112145.425000", "112145.428000", "112145.431000", "112145.434000", "112145.437000", "112145.440000", "112145.443000", "112145.446000", "112145.448000", "112145.451000", "112145.459000", "112145.462000", "112205.372000", "112205.375000", "112205.378000", "112205.381000", "112205.384000", "112205.387000", "112205.390000", "112205.393000", "112205.396000", "112205.399000", "112205.402000", "112205.405000", "112205.408000", "112205.411000", "112205.414000", "112205.417000", "112205.420000", "112205.423000", "112205.426000", "112205.429000", "112209.174000", "112209.178000", "112209.181000", "112209.184000"],
      "InstanceNumber": [1, 2, 3, 4, 5, 6, 7, 8, 9, 10, 11, 12, 13, 14, 15, 16, 17, 18, 19, 20, 21, 22, 23, 24, 25, 26, 27, 28, 29, 30, 31, 32, 33, 34, 35, 36, 37, 38, 39, 40, 41, 42, 43, 44, 45, 46, 47, 48, 49, 50, 51, 52, 53, 54, 55, 56, 57, 58, 59, 60, 61, 62, 63, 64, 65, 66, 67, 68, 69, 70, 71, 72, 73, 74, 75, 76, 77, 78, 79, 80, 81, 82, 83, 84, 85, 86, 87, 88, 89, 90, 91, 92, 93, 94, 95, 96, 97, 98, 99, 100, 101, 102, 103, 104, 105, 106, 107, 108, 109, 110, 111, 112, 113, 114, 115, 116, 117, 118, 119, 120, 121, 122, 123, 124, 125, 126, 127, 128, 129, 130, 131, 132, 133, 134, 135, 136, 137, 138, 139, 140, 141, 142, 143, 144, 145, 146, 147, 148, 149, 150, 151, 152, 153, 154, 155, 156, 157, 158, 159, 160, 161, 162, 163, 164, 165, 166, 167, 168, 169, 170, 171, 172, 173, 174, 175, 176, 177, 178, 179, 180, 181, 182, 183, 184, 185, 186, 187, 188, 189, 190, 191, 192],
      "LargestImagePixelValue": [33628, 33386, 33255, 33054, 33109, 32723, 32612, 32976, 32925, 32742, 32466, 32755, 33095, 33292, 33000, 32909, 33370, 33545, 33266, 32937, 32945, 32756, 32688, 33034, 32378, 32586, 32753, 33324, 33349, 33403, 32329, 32902, 33151, 33696, 33051, 32700, 32756, 33486, 33615, 33474, 33826, 33860, 32623, 32691, 33124, 32864, 32924, 32889, 33093, 32944, 33184, 33336, 32641, 32677, 32036, 32789, 32943, 33196, 32885, 33357, 32772, 33222, 32895, 33018, 33069, 33758, 33428, 33365, 32716, 32896, 32390, 35044, 33447, 33790, 33405, 33002, 33123, 33754, 32636, 33218, 33237, 33035, 34046, 33362, 33328, 34260, 34085, 34108, 34061, 34122, 33199, 33412, 33223, 33965, 33956, 33881, 33630, 33841, 33042, 33548, 33292, 33690, 33340, 33689, 33142, 32943, 33608, 33403, 33702, 33864, 33915, 34004, 33022, 33715, 34195, 34165, 33912, 33369, 33226, 33230, 33443, 33372, 33662, 32997, 33285, 33208, 33382, 33609, 33110, 33431, 33794, 34889, 34067, 33578, 34272, 33605, 33362, 33691, 34046, 33736, 34319, 33619, 32794, 33504, 33814, 33777, 34067, 34355, 34318, 34182, 34651, 35444, 35458, 34954, 34874, 35294, 35962, 35353, 36022, 35777, 35339, 34056, 34051, 34240, 34090, 33742, 34183, 34519, 34521, 34295, 33744, 33716, 33607, 34265, 34838, 34282, 32942, 34622, 34453, 34687, 34066, 34514, 34926, 34144, 33610, 34964, 34316, 33312, 34080, 34006, 33828, 34813],
      "WindowCenter": [9932.0, 9893.0, 9864.0, 9853.0, 9835.0, 9818.0, 9827.0, 9823.0, 9831.0, 9834.0, 9823.0, 9828.0, 9844.0, 9834.0, 9836.0, 9846.0, 9854.0, 9870.0, 9872.0, 9874.0, 9875.0, 9883.0, 9877.0, 9875.0, 9870.0, 9868.0, 9866.0, 9882.0, 9872.0, 9872.0, 9862.0, 9867.0, 9879.0, 9883.0, 9875.0, 9877.0, 9887.0, 9891.0, 9901.0, 9910.0, 9906.0, 9895.0, 9868.0, 9850.0, 9851.0, 9846.0, 9853.0, 9861.0, 9864.0, 9871.0, 9880.0, 9881.0, 9866.0, 9873.0, 9852.0, 9857.0, 9862.0, 9862.0, 9854.0, 9860.0, 9847.0, 9860.0, 9856.0, 9863.0, 9864.0, 9878.0, 9874.0, 9881.0, 9871.0, 9891.0, 9857.0, 9907.0, 9885.0, 9884.0, 9878.0, 9881.0, 9880.0, 9878.0, 9875.0, 9883.0, 9891.0, 9906.0, 9916.0, 9911.0, 9914.0, 9918.0, 9916.0, 9925.0, 9909.0, 9907.0, 9895.0, 9884.0, 9885.0, 9889.0, 9890.0, 9888.0, 9883.0, 9874.0, 9859.0, 9879.0, 9866.0, 9881.0, 9885.0, 9892.0, 9885.0, 9881.0, 9884.0, 9869.0, 9873.0, 9871.0, 9867.0, 9861.0, 9858.0, 9864.0, 9875.0, 9870.0, 9879.0, 9876.0, 9882.0, 9885.0, 9900.0, 9903.0, 9900.0, 9896.0, 9913.0, 9918.0, 9905.0, 9910.0, 9905.0, 9890.0, 9886.0, 9888.0, 9881.0, 9870.0, 9877.0, 9876.0, 9875.0, 9882.0, 9890.0, 9883.0, 9895.0, 9892.0, 9881.0, 9893.0, 9901.0, 9892.0, 9904.0, 9894.0, 9885.0, 9875.0, 9879.0, 9883.0, 9877.0, 9873.0, 9875.0, 9869.0, 9881.0, 9877.0, 9886.0, 9879.0, 9873.0, 9854.0, 9854.0, 9864.0, 9876.0, 9873.0, 9892.0, 9909.0, 9914.0, 9898.0, 9890.0, 9890.0, 9874.0, 9876.0, 9883.0, 9877.0, 9865.0, 9882.0, 9888.0, 9890.0, 9868.0, 9861.0, 9867.0, 9877.0, 9863.0, 9872.0, 9869.0, 9862.0, 9868.0, 9878.0, 9884.0, 9894.0],
      "WindowWidth": [21093.0, 21006.0, 20939.0, 20911.0, 20870.0, 20837.0, 20853.0, 20844.0, 20860.0, 20868.0, 20850.0, 20859.0, 20889.0, 20869.0, 20876.0, 20901.0, 20915.0, 20950.0, 20955.0, 20961.0, 20965.0, 20979.0, 20968.0, 20961.0, 20954.0, 20946.0, 20943.0, 20973.0, 20954.0, 20955.0, 20939.0, 20948.0, 20967.0, 20979.0, 20965.0, 20970.0, 20991.0, 20998.0, 21022.0, 21039.0, 21030.0, 21002.0, 20945.0, 20907.0, 20902.0, 20893.0, 20910.0, 20926.0, 20934.0, 20950.0, 20966.0, 20970.0, 20942.0, 20953.0, 20915.0, 20922.0, 20930.0, 20934.0, 20915.0, 20925.0, 20905.0, 20928.0, 20921.0, 20938.0, 20942.0, 20970.0, 20966.0, 20981.0, 20961.0, 20994.0, 20925.0, 21033.0, 20980.0, 20972.0, 20962.0, 20971.0, 20965.0, 20959.0, 20961.0, 20978.0, 20996.0, 21031.0, 21046.0, 21040.0, 21047.0, 21054.0, 21049.0, 21065.0, 21037.0, 21029.0, 21006.0, 20985.0, 20987.0, 20993.0, 20998.0, 20992.0, 20982.0, 20960.0, 20933.0, 20968.0, 20942.0, 20974.0, 20984.0, 20994.0, 20985.0, 20981.0, 20981.0, 20953.0, 20957.0, 20951.0, 20945.0, 20934.0, 20930.0, 20943.0, 20964.0, 20954.0, 20971.0, 20966.0, 20979.0, 20989.0, 21018.0, 21025.0, 21018.0, 21017.0, 21052.0, 21061.0, 21037.0, 21040.0, 21030.0, 20997.0, 20990.0, 20986.0, 20973.0, 20951.0, 20964.0, 20969.0, 20969.0, 20981.0, 20998.0, 20983.0, 21001.0, 20999.0, 20985.0, 21005.0, 21020.0, 21003.0, 21025.0, 21000.0, 20977.0, 20958.0, 20963.0, 20966.0, 20959.0, 20966.0, 20963.0, 20948.0, 20974.0, 20978.0, 20990.0, 20978.0, 20966.0, 20932.0, 20929.0, 20945.0, 20969.0, 20962.0, 21002.0, 21038.0, 21045.0, 21015.0, 20999.0, 20998.0, 20965.0, 20965.0, 20977.0, 20969.0, 20947.0, 20979.0, 20992.0, 20994.0, 20953.0, 20946.0, 20949.0, 20968.0, 20941.0, 20954.0, 20950.0, 20938.0, 20946.0, 20968.0, 20986.0, 21014.0]
    },
    "slices": {}
  },
  "NumberOfVolumes": 192
}