{
  "AcquisitionMatrixPE": 104,
  "AcquisitionNumber": 1,
  "AcquisitionTime": "10:42:16.500000",
  "BandwidthPerPixelPhaseEncode": 16.297,
  "BaseResolution": 104,
  "BodyPartExamined": "BRAIN",
  "ConsistencyInfo": "N4_VE11C_LATEST_20160120",
  "ConversionSoftware": "dcm2niix",
  "ConversionSoftwareVersion": "v1.0.20190902",
  "DerivedVendorReportedEchoSpacing": 0.000590009,
  "DeviceSerialNumber": "166018",
  "DwellTime": 2.1e-06,
  "EchoTime": 0.0376,
  "EchoTrainLength": 104,
  "EffectiveEchoSpacing": 0.000590009,
  "FlipAngle": 68,
  "ImageComments": "Unaliased_MB6_PE3_LB",
  "ImageOrientationPatientDICOM": [0.99959, 0.0276268, -0.00754753, -0.0286195, 0.953801, -0.299074],
  "ImageType": [
    "ORIGINAL",
    "PRIMARY",
    "M",
    "MB",
    "ND",
    "MOSAIC"
],
  "ImagingFrequency": 123.191,
  "InPlanePhaseEncodingDirectionDICOM": "COL",
  "InstitutionAddress": "Washington_Place_6_NYC_NYC_US_10003",
  "InstitutionName": "NYU_-_CBI",
  "InstitutionalDepartmentName": "Department",
  "MRAcquisitionType": "2D",
  "MagneticFieldStrength": 3,
  "Manufacturer": "Siemens",
  "ManufacturersModelName": "Prisma",
  "Modality": "MR",
  "MultibandAccelerationFactor": 6,
  "PartialFourier": 1,
  "PatientPosition": "HFS",
  "PercentPhaseFOV": 100,
  "PhaseEncodingDirection": "j",
  "PhaseEncodingSteps": 104,
  "PhaseResolution": 1,
  "PixelBandwidth": 2290,
  "ProcedureStepDescription": "Investigators_Winawer",
  "ProtocolName": "cmrr_mbepi_s6_2mm_66sl_PA_task-prf",
  "PulseSequenceDetails": "%CustomerSeq%_cmrr_mbep2d_bold",
  "ReceiveCoilActiveElements": "HC1-7",
  "ReceiveCoilName": "HeadNeck_64",
  "ReconMatrixPE": 104,
  "RepetitionTime": 1,
  "SAR": 0.0770409,
  "ScanOptions": "FS",
  "ScanningSequence": "EP",
  "SequenceName": "epfid2d1_104",
  "SequenceVariant": "SK_SS",
  "SeriesDescription": "cmrr_mbepi_s6_2mm_66sl_PA_task-prf",
  "SeriesNumber": 20,
  "ShimSetting": [243, -12633, -8407, 369, -62, -56, -32, 25],
  "SliceThickness": 2,
  "SliceTiming": [0, 0.535, 0.09, 0.625, 0.18, 0.715, 0.2675, 0.8025, 0.3575, 0.8925, 0.4475, 0, 0.535, 0.09, 0.625, 0.18, 0.715, 0.2675, 0.8025, 0.3575, 0.8925, 0.4475, 0, 0.535, 0.09, 0.625, 0.18, 0.715, 0.2675, 0.8025, 0.3575, 0.8925, 0.4475, 0, 0.535, 0.09, 0.625, 0.18, 0.715, 0.2675, 0.8025, 0.3575, 0.8925, 0.4475, 0, 0.535, 0.09, 0.625, 0.18, 0.715, 0.2675, 0.8025, 0.3575, 0.8925, 0.4475, 0, 0.535, 0.09, 0.625, 0.18, 0.715, 0.2675, 0.8025, 0.3575, 0.8925, 0.4475],
  "SoftwareVersions": "syngo_MR_E11",
  "SpacingBetweenSlices": 2,
  "StationName": "AWP166018",
  "TaskName": "prf",
  "TotalReadoutTime": 0.060771,
  "TxRefAmp": 250.2,
  "VendorReportedEchoSpacing": 0.00059,
  "WipMemBlock": "82846f46-eacb-4cb0-82aa-2b8f0320f5be||Sequence: R016 ve11c/master r/8780670; Nov 27 2017 15:05:12 by eja",
  "dcmmeta_affine": [
    [-1.9991796016693115, -0.05723899230360985, 0.0021272660233080387, 110.66590118408203],
    [-0.055253658443689346, 1.907601237297058, -0.5983348488807678, -54.574100494384766],
    [-0.015095056034624577, 0.5981482267379761, 1.908400058746338, -64.30183410644531],
    [0.0, 0.0, 0.0, 1.0]
],
  "dcmmeta_reorient_transform": [
    [0.0, -1.0, 0.0, 103.0],
    [1.0, 0.0, 0.0, 0.0],
    [0.0, 0.0, 1.0, 0.0],
    [0.0, 0.0, 0.0, 1.0]
],
  "dcmmeta_shape": [104, 104, 66, 192],
  "dcmmeta_slice_dim": 2,
  "dcmmeta_version": 0.6,
  "global": {
    "const": {
      "AccessionNumber": "kh24bw9s",
      "AcquisitionMatrix": [104, 0, 0, 104],
      "AngioFlag": "N",
      "BitsAllocated": 16,
      "BitsStored": 16,
      "BodyPartExamined": "BRAIN",
      "Columns": 936,
      "EchoNumbers": 1,
      "EchoTime": 37.6,
      "EchoTrainLength": 104,
      "FlipAngle": 68.0,
      "HighBit": 15,
      "ImageOrientationPatient": [0.99958981242134, 0.02762682984351, -0.0075475278247, -0.0286194966467, 0.95380060780716, -0.2990741128188],
      "ImagePositionPatient": [-912.61758991655, -958.45645181925, 252.41663692289],
      "ImageType": [
        "ORIGINAL",
        "PRIMARY",
        "M",
        "MB",
        "ND",
        "MOSAIC"
],
      "ImagedNucleus": "1H",
      "ImagingFrequency": 123.190601,
      "InPlanePhaseEncodingDirection": "COL",
      "MRAcquisitionType": "2D",
      "MagneticFieldStrength": 3.0,
      "Manufacturer": "SIEMENS",
      "ManufacturerModelName": "Prisma",
      "Modality": "MR",
      "NumberOfAverages": 1.0,
      "NumberOfPhaseEncodingSteps": 104,
      "PercentPhaseFieldOfView": 100.0,
      "PercentSampling": 100.0,
      "PerformedProcedureStepStartTime": "095314.554000",
      "PhotometricInterpretation": "MONOCHROME2",
      "PixelBandwidth": 2290.0,
      "PixelRepresentation": 0,
      "PixelSpacing": [2.0, 2.0],
      "ProtocolName": "cmrr_mbepi_s6_2mm_66sl_PA_task-prf",
      "RepetitionTime": 1000.0,
      "Rows": 936,
      "SAR": 0.07704093856587,
      "SamplesPerPixel": 1,
      "ScanOptions": "FS",
      "ScanningSequence": "EP",
      "SequenceName": "epfid2d1_104",
      "SequenceVariant": [
        "SK",
        "SS"
],
      "SeriesDescription": "cmrr_mbepi_s6_2mm_66sl_PA_task-prf",
      "SeriesNumber": 20,
      "SeriesTime": "104326.177000",
      "SliceLocation": -44.912311330147,
      "SliceThickness": 2.0,
      "SmallestImagePixelValue": 0,
      "SoftwareVersions": "syngo MR E11",
      "SpacingBetweenSlices": 1.9999999410325,
      "SpecificCharacterSet": "ISO_IR 100",
      "StudyID": "1",
      "StudyTime": "095314.453000",
      "TransmitCoilName": "Body",
      "VariableFlipAngleFlag": "N",
      "WindowCenterWidthExplanation": "Algo1",
      "dBdt": 0.0},
    "slices": {}
  },
  "time": {
    "samples": {
      "AcquisitionNumber": [1, 2, 3, 4, 5, 6, 7, 8, 9, 10, 11, 12, 13, 14, 15, 16, 17, 18, 19, 20, 21, 22, 23, 24, 25, 26, 27, 28, 29, 30, 31, 32, 33, 34, 35, 36, 37, 38, 39, 40, 41, 42, 43, 44, 45, 46, 47, 48, 49, 50, 51, 52, 53, 54, 55, 56, 57, 58, 59, 60, 61, 62, 63, 64, 65, 66, 67, 68, 69, 70, 71, 72, 73, 74, 75, 76, 77, 78, 79, 80, 81, 82, 83, 84, 85, 86, 87, 88, 89, 90, 91, 92, 93, 94, 95, 96, 97, 98, 99, 100, 101, 102, 103, 104, 105, 106, 107, 108, 109, 110, 111, 112, 113, 114, 115, 116, 117, 118, 119, 120, 121, 122, 123, 124, 125, 126, 127, 128, 129, 130, 131, 132, 133, 134, 135, 136, 137, 138, 139, 140, 141, 142, 143, 144, 145, 146, 147, 148, 149, 150, 151, 152, 153, 154, 155, 156, 157, 158, 159, 160, 161, 162, 163, 164, 165, 166, 167, 168, 169, 170, 171, 172, 173, 174, 175, 176, 177, 178, 179, 180, 181, 182, 183, 184, 185, 186, 187, 188, 189, 190, 191, 192],
      "AcquisitionTime": ["104216.500000", "104217.500000", "104218.500000", "104219.500000", "104220.500000", "104221.500000", "104222.500000", "104223.500000", "104224.500000", "104225.500000", "104226.500000", "104227.500000", "104228.500000", "104229.500000", "104230.500000", "104231.500000", "104232.500000", "104233.500000", "104234.500000", "104235.500000", "104236.500000", "104237.500000", "104238.500000", "104239.500000", "104240.500000", "104241.500000", "104242.500000", "104243.500000", "104244.500000", "104245.500000", "104246.500000", "104247.500000", "104248.500000", "104249.500000", "104250.500000", "104251.500000", "104252.500000", "104253.500000", "104254.500000", "104255.500000", "104256.500000", "104257.500000", "104258.500000", "104259.500000", "104300.500000", "104301.500000", "104302.500000", "104303.500000", "104304.500000", "104305.500000", "104306.500000", "104307.500000", "104308.500000", "104309.500000", "104310.500000", "104311.500000", "104312.500000", "104313.500000", "104314.500000", "104315.500000", "104316.500000", "104317.500000", "104318.500000", "104319.500000", "104320.500000", "104321.500000", "104322.500000", "104323.500000", "104324.500000", "104325.500000", "104326.500000", "104327.500000", "104328.500000", "104329.500000", "104330.500000", "104331.500000", "104332.500000", "104333.500000", "104334.500000", "104335.500000", "104336.500000", "104337.500000", "104338.500000", "104339.500000", "104340.500000", "104341.500000", "104342.500000", "104343.500000", "104344.500000", "104345.500000", "104346.500000", "104347.500000", "104348.500000", "104349.500000", "104350.500000", "104351.500000", "104352.500000", "104353.500000", "104354.500000", "104355.500000", "104356.500000", "104357.500000", "104358.500000", "104359.500000", "104400.500000", "104401.500000", "104402.500000", "104403.500000", "104404.500000", "104405.500000", "104406.500000", "104407.500000", "104408.500000", "104409.500000", "104410.500000", "104411.500000", "104412.500000", "104413.500000", "104414.500000", "104415.500000", "104416.500000", "104417.500000", "104418.500000", "104419.500000", "104420.500000", "104421.500000", "104422.500000", "104423.500000", "104424.500000", "104425.500000", "104426.500000", "104427.500000", "104428.500000", "104429.500000", "104430.500000", "104431.500000", "104432.500000", "104433.500000", "104434.500000", "104435.500000", "104436.500000", "104437.500000", "104438.500000", "104439.500000", "104440.500000", "104441.500000", "104442.500000", "104443.500000", "104444.500000", "104445.500000", "104446.500000", "104447.500000", "104448.500000", "104449.500000", "104450.500000", "104451.500000", "104452.500000", "104453.500000", "104454.500000", "104455.500000", "104456.500000", "104457.500000", "104458.500000", "104459.500000", "104500.500000", "104501.500000", "104502.500000", "104503.500000", "104504.500000", "104505.500000", "104506.500000", "104507.500000", "104508.500000", "104509.500000", "104510.500000", "104511.500000", "104512.500000", "104513.500000", "104514.500000", "104515.500000", "104516.500000", "104517.500000", "104518.500000", "104519.500000", "104520.500000", "104521.500000", "104522.500000", "104523.500000", "104524.500000", "104525.500000", "104526.500000", "104527.500000"],
      "ContentTime": ["104326.180000", "104326.188000", "104326.192000", "104326.195000", "104326.205000", "104326.208000", "104326.211000", "104326.214000", "104326.217000", "104326.220000", "104326.223000", "104326.226000", "104326.229000", "104326.232000", "104326.234000", "104326.237000", "104326.240000", "104326.250000", "104326.253000", "104326.255000", "104326.258000", "104326.261000", "104326.264000", "104326.267000", "104326.270000", "104326.273000", "104326.276000", "104346.142000", "104346.145000", "104346.148000", "104346.151000", "104346.154000", "104346.157000", "104346.160000", "104346.163000", "104346.166000", "104346.169000", "104346.172000", "104346.175000", "104346.178000", "104346.181000", "104346.183000", "104346.186000", "104346.189000", "104346.192000", "104346.195000", "104346.198000", "104346.201000", "104346.204000", "104346.207000", "104346.216000", "104346.219000", "104346.222000", "104346.225000", "104346.228000", "104346.231000", "104406.142000", "104406.145000", "104406.148000", "104406.151000", "104406.154000", "104406.157000", "104406.160000", "104406.163000", "104406.166000", "104406.169000", "104406.172000", "104406.175000", "104406.177000", "104406.180000", "104406.183000", "104406.186000", "104406.189000", "104406.192000", "104406.195000", "104406.198000", "104406.201000", "104406.204000", "104406.207000", "104406.210000", "104406.213000", "104406.216000", "104406.219000", "104406.229000", "104426.141000", "104426.144000", "104426.147000", "104426.150000", "104426.153000", "104426.156000", "104426.159000", "104426.162000", "104426.165000", "104426.168000", "104426.171000", "104426.174000", "104426.177000", "104426.179000", "104426.182000", "104426.185000", "104426.188000", "104426.199000", "104426.202000", "104426.205000", "104426.208000", "104426.211000", "104426.214000", "104426.217000", "104426.220000", "104426.223000", "104426.225000", "104426.228000", "104446.141000", "104446.144000", "104446.147000", "104446.150000", "104446.153000", "104446.156000", "104446.159000", "104446.161000", "104446.170000", "104446.173000", "104446.176000", "104446.179000", "104446.182000", "104446.185000", "104446.188000", "104446.191000", "104446.194000", "104446.196000", "104446.199000", "104446.202000", "104446.205000", "104446.208000", "104446.211000", "104446.214000", "104446.217000", "104446.220000", "104446.223000", "104446.226000", "104446.229000", "104506.141000", "104506.144000", "104506.147000", "104506.150000", "104506.153000", "104506.156000", "104506.159000", "104506.162000", "104506.165000", "104506.168000", "104506.171000", "104506.174000", "104506.177000", "104506.179000", "104506.182000", "104506.185000", "104506.188000", "104506.191000", "104506.194000", "104506.197000", "104506.200000", "104506.203000", "104506.206000", "104506.209000", "104506.219000", "104506.222000", "104506.225000", "104506.228000", "104526.153000", "104526.156000", "104526.159000", "104526.162000", "104526.165000", "104526.168000", "104526.171000", "104526.174000", "104526.177000", "104526.180000", "104526.183000", "104526.186000", "104526.189000", "104526.192000", "104526.195000", "104526.198000", "104526.201000", "104526.204000", "104526.206000", "104526.209000", "104528.959000", "104528.963000", "104528.966000"],
      "InstanceCreationTime": ["104326.180000", "104326.188000", "104326.192000", "104326.195000", "104326.205000", "104326.208000", "104326.211000", "104326.214000", "104326.217000", "104326.220000", "104326.223000", "104326.226000", "104326.229000", "104326.232000", "104326.234000", "104326.237000", "104326.240000", "104326.250000", "104326.253000", "104326.255000", "104326.258000", "104326.261000", "104326.264000", "104326.267000", "104326.270000", "104326.273000", "104326.276000", "104346.142000", "104346.145000", "104346.148000", "104346.151000", "104346.154000", "104346.157000", "104346.160000", "104346.163000", "104346.166000", "104346.169000", "104346.172000", "104346.175000", "104346.178000", "104346.181000", "104346.183000", "104346.186000", "104346.189000", "104346.192000", "104346.195000", "104346.198000", "104346.201000", "104346.204000", "104346.207000", "104346.216000", "104346.219000", "104346.222000", "104346.225000", "104346.228000", "104346.231000", "104406.142000", "104406.145000", "104406.148000", "104406.151000", "104406.154000", "104406.157000", "104406.160000", "104406.163000", "104406.166000", "104406.169000", "104406.172000", "104406.175000", "104406.177000", "104406.180000", "104406.183000", "104406.186000", "104406.189000", "104406.192000", "104406.195000", "104406.198000", "104406.201000", "104406.204000", "104406.207000", "104406.210000", "104406.213000", "104406.216000", "104406.219000", "104406.229000", "104426.141000", "104426.144000", "104426.147000", "104426.150000", "104426.153000", "104426.156000", "104426.159000", "104426.162000", "104426.165000", "104426.168000", "104426.171000", "104426.174000", "104426.177000", "104426.179000", "104426.182000", "104426.185000", "104426.188000", "104426.199000", "104426.202000", "104426.205000", "104426.208000", "104426.211000", "104426.214000", "104426.217000", "104426.220000", "104426.223000", "104426.225000", "104426.228000", "104446.141000", "104446.144000", "104446.147000", "104446.150000", "104446.153000", "104446.156000", "104446.159000", "104446.161000", "104446.170000", "104446.173000", "104446.176000", "104446.179000", "104446.182000", "104446.185000", "104446.188000", "104446.191000", "104446.194000", "104446.196000", "104446.199000", "104446.202000", "104446.205000", "104446.208000", "104446.211000", "104446.214000", "104446.217000", "104446.220000", "104446.223000", "104446.226000", "104446.229000", "104506.141000", "104506.144000", "104506.147000", "104506.150000", "104506.153000", "104506.156000", "104506.159000", "104506.162000", "104506.165000", "104506.168000", "104506.171000", "104506.174000", "104506.177000", "104506.179000", "104506.182000", "104506.185000", "104506.188000", "104506.191000", "104506.194000", "104506.197000", "104506.200000", "104506.203000", "104506.206000", "104506.209000", "104506.219000", "104506.222000", "104506.225000", "104506.228000", "104526.153000", "104526.156000", "104526.159000", "104526.162000", "104526.165000", "104526.168000", "104526.171000", "104526.174000", "104526.177000", "104526.180000", "104526.183000", "104526.186000", "104526.189000", "104526.192000", "104526.195000", "104526.198000", "104526.201000", "104526.204000", "104526.206000", "104526.209000", "104528.959000", "104528.963000", "104528.966000"],
      "InstanceNumber": [1, 2, 3, 4, 5, 6, 7, 8, 9, 10, 11, 12, 13, 14, 15, 16, 17, 18, 19, 20, 21, 22, 23, 24, 25, 26, 27, 28, 29, 30, 31, 32, 33, 34, 35, 36, 37, 38, 39, 40, 41, 42, 43, 44, 45, 46, 47, 48, 49, 50, 51, 52, 53, 54, 55, 56, 57, 58, 59, 60, 61, 62, 63, 64, 65, 66, 67, 68, 69, 70, 71, 72, 73, 74, 75, 76, 77, 78, 79, 80, 81, 82, 83, 84, 85, 86, 87, 88, 89, 90, 91, 92, 93, 94, 95, 96, 97, 98, 99, 100, 101, 102, 103, 104, 105, 106, 107, 108, 109, 110, 111, 112, 113, 114, 115, 116, 117, 118, 119, 120, 121, 122, 123, 124, 125, 126, 127, 128, 129, 130, 131, 132, 133, 134, 135, 136, 137, 138, 139, 140, 141, 142, 143, 144, 145, 146, 147, 148, 149, 150, 151, 152, 153, 154, 155, 156, 157, 158, 159, 160, 161, 162, 163, 164, 165, 166, 167, 168, 169, 170, 171, 172, 173, 174, 175, 176, 177, 178, 179, 180, 181, 182, 183, 184, 185, 186, 187, 188, 189, 190, 191, 192],
      "LargestImagePixelValue": [35710, 35417, 34848, 34381, 34211, 33834, 34778, 34021, 34477, 34314, 34168, 34335, 34235, 34134, 34851, 33936, 34180, 34068, 34262, 34166, 33940, 34511, 34565, 34263, 34048, 33999, 34364, 33957, 33952, 34295, 33915, 34174, 34013, 33753, 33905, 33812, 33961, 34000, 33982, 34230, 33852, 34323, 34152, 34235, 34576, 34194, 34186, 34227, 33796, 34418, 33627, 34286, 34286, 34327, 34094, 34033, 34365, 34212, 34292, 34027, 34099, 34149, 34307, 34665, 34083, 34350, 34361, 34694, 34225, 34077, 34630, 34410, 33861, 34307, 34262, 34309, 34012, 34537, 34146, 34157, 34534, 33982, 34533, 34341, 33950, 34319, 34194, 34391, 34346, 34387, 34234, 33963, 34442, 33917, 34455, 34175, 34053, 34283, 34107, 34062, 34302, 34081, 34536, 34350, 33984, 34188, 34055, 34074, 34001, 33963, 34001, 33545, 33966, 34002, 34363, 34581, 34557, 33940, 34188, 34079, 34003, 33993, 34537, 34260, 34277, 34456, 34117, 34620, 34363, 34802, 34317, 34148, 34785, 34082, 34590, 34137, 34615, 34189, 34382, 34325, 34514, 34531, 34396, 34037, 34163, 34341, 34169, 34491, 33965, 34458, 34172, 34180, 34470, 34296, 34455, 34102, 33966, 34579, 34159, 34303, 34165, 34342, 34297, 34163, 33744, 34264, 34314, 33839, 34534, 33966, 34159, 34025, 33951, 34400, 34292, 34234, 34513, 34310, 34139, 34189, 34250, 34043, 34150, 33944, 33893, 34177, 34163, 34091, 34522, 34015, 34932, 34628],
      "WindowCenter": [9275.0, 9254.0, 9236.0, 9228.0, 9227.0, 9221.0, 9231.0, 9205.0, 9210.0, 9211.0, 9211.0, 9218.0, 9216.0, 9211.0, 9223.0, 9219.0, 9220.0, 9212.0, 9219.0, 9218.0, 9218.0, 9217.0, 9215.0, 9210.0, 9211.0, 9211.0, 9217.0, 9210.0, 9205.0, 9211.0, 9211.0, 9217.0, 9211.0, 9206.0, 9204.0, 9196.0, 9202.0, 9204.0, 9218.0, 9225.0, 9213.0, 9219.0, 9217.0, 9209.0, 9207.0, 9201.0, 9208.0, 9216.0, 9210.0, 9215.0, 9197.0, 9202.0, 9209.0, 9217.0, 9218.0, 9212.0, 9216.0, 9211.0, 9217.0, 9204.0, 9211.0, 9210.0, 9217.0, 9222.0, 9217.0, 9217.0, 9210.0, 9215.0, 9201.0, 9202.0, 9214.0, 9215.0, 9211.0, 9211.0, 9218.0, 9218.0, 9211.0, 9216.0, 9202.0, 9208.0, 9214.0, 9204.0, 9215.0, 9208.0, 9197.0, 9210.0, 9209.0, 9211.0, 9211.0, 9211.0, 9218.0, 9212.0, 9217.0, 9203.0, 9208.0, 9209.0, 9210.0, 9210.0, 9211.0, 9212.0, 9210.0, 9208.0, 9208.0, 9201.0, 9195.0, 9201.0, 9200.0, 9202.0, 9202.0, 9210.0, 9204.0, 9202.0, 9197.0, 9211.0, 9219.0, 9225.0, 9225.0, 9214.0, 9213.0, 9204.0, 9199.0, 9197.0, 9209.0, 9210.0, 9218.0, 9219.0, 9213.0, 9218.0, 9219.0, 9225.0, 9220.0, 9214.0, 9225.0, 9220.0, 9226.0, 9227.0, 9229.0, 9221.0, 9214.0, 9213.0, 9218.0, 9218.0, 9211.0, 9206.0, 9212.0, 9211.0, 9211.0, 9218.0, 9205.0, 9218.0, 9211.0, 9212.0, 9218.0, 9204.0, 9211.0, 9212.0, 9214.0, 9228.0, 9221.0, 9228.0, 9222.0, 9229.0, 9228.0, 9221.0, 9203.0, 9211.0, 9212.0, 9207.0, 9220.0, 9215.0, 9221.0, 9215.0, 9209.0, 9221.0, 9215.0, 9215.0, 9212.0, 9211.0, 9205.0, 9212.0, 9212.0, 9207.0, 9221.0, 9213.0, 9215.0, 9222.0, 9221.0, 9221.0, 9220.0, 9213.0, 9219.0, 9218.0],
      "WindowWidth": [19740.0, 19673.0, 19625.0, 19602.0, 19599.0, 19588.0, 19599.0, 19548.0, 19557.0, 19560.0, 19562.0, 19574.0, 19568.0, 19560.0, 19581.0, 19579.0, 19581.0, 19565.0, 19577.0, 19574.0, 19575.0, 19568.0, 19564.0, 19556.0, 19559.0, 19562.0, 19571.0, 19560.0, 19550.0, 19562.0, 19564.0, 19572.0, 19564.0, 19555.0, 19546.0, 19532.0, 19541.0, 19549.0, 19577.0, 19589.0, 19569.0, 19577.0, 19571.0, 19555.0, 19546.0, 19536.0, 19551.0, 19569.0, 19562.0, 19566.0, 19534.0, 19540.0, 19556.0, 19576.0, 19576.0, 19566.0, 19569.0, 19560.0, 19570.0, 19548.0, 19559.0, 19557.0, 19571.0, 19581.0, 19572.0, 19571.0, 19559.0, 19566.0, 19539.0, 19542.0, 19563.0, 19568.0, 19563.0, 19562.0, 19574.0, 19574.0, 19562.0, 19566.0, 19539.0, 19550.0, 19562.0, 19547.0, 19563.0, 19551.0, 19535.0, 19559.0, 19557.0, 19561.0, 19563.0, 19564.0, 19577.0, 19569.0, 19572.0, 19546.0, 19552.0, 19554.0, 19559.0, 19557.0, 19559.0, 19563.0, 19555.0, 19549.0, 19548.0, 19537.0, 19526.0, 19536.0, 19535.0, 19538.0, 19541.0, 19555.0, 19545.0, 19542.0, 19531.0, 19558.0, 19577.0, 19588.0, 19588.0, 19569.0, 19565.0, 19546.0, 19535.0, 19530.0, 19552.0, 19556.0, 19574.0, 19577.0, 19566.0, 19573.0, 19576.0, 19587.0, 19577.0, 19566.0, 19583.0, 19578.0, 19591.0, 19595.0, 19596.0, 19580.0, 19568.0, 19564.0, 19573.0, 19571.0, 19559.0, 19552.0, 19560.0, 19558.0, 19559.0, 19570.0, 19548.0, 19569.0, 19560.0, 19562.0, 19573.0, 19547.0, 19557.0, 19563.0, 19569.0, 19596.0, 19586.0, 19598.0, 19587.0, 19598.0, 19597.0, 19583.0, 19547.0, 19557.0, 19558.0, 19553.0, 19577.0, 19569.0, 19583.0, 19571.0, 19562.0, 19582.0, 19571.0, 19569.0, 19559.0, 19556.0, 19546.0, 19561.0, 19564.0, 19557.0, 19580.0, 19566.0, 19571.0, 19584.0, 19580.0, 19580.0, 19579.0, 19566.0, 19575.0, 19574.0]
    },
    "slices": {}
  },
  "NumberOfVolumes": 192
}