{
  "AcquisitionMatrixPE": 104,
  "AcquisitionNumber": 1,
  "AcquisitionTime": "15:07:52.480000",
  "BandwidthPerPixelPhaseEncode": 16.297,
  "BaseResolution": 104,
  "BodyPartExamined": "BRAIN",
  "ConsistencyInfo": "N4_VE11C_LATEST_20160120",
  "ConversionSoftware": "dcm2niix",
  "ConversionSoftwareVersion": "v1.0.20190902",
  "DerivedVendorReportedEchoSpacing": 0.000590009,
  "DeviceSerialNumber": "166018",
  "DwellTime": 2.1e-06,
  "EchoTime": 0.0376,
  "EchoTrainLength": 104,
  "EffectiveEchoSpacing": 0.000590009,
  "FlipAngle": 68,
  "ImageComments": "Unaliased_MB6_PE3_LB",
  "ImageOrientationPatientDICOM": [0.99836, 0.0559172, -0.012309, -0.0566909, 0.935266, -0.349375],
  "ImageType": [
    "ORIGINAL",
    "PRIMARY",
    "M",
    "MB",
    "ND",
    "MOSAIC"
],
  "ImagingFrequency": 123.191,
  "InPlanePhaseEncodingDirectionDICOM": "COL",
  "InstitutionAddress": "Washington_Place_6_NYC_NYC_US_10003",
  "InstitutionName": "NYU_-_CBI",
  "InstitutionalDepartmentName": "Department",
  "MRAcquisitionType": "2D",
  "MagneticFieldStrength": 3,
  "Manufacturer": "Siemens",
  "ManufacturersModelName": "Prisma",
  "Modality": "MR",
  "MultibandAccelerationFactor": 6,
  "PartialFourier": 1,
  "PatientPosition": "HFS",
  "PercentPhaseFOV": 100,
  "PhaseEncodingDirection": "j",
  "PhaseEncodingSteps": 104,
  "PhaseResolution": 1,
  "PixelBandwidth": 2290,
  "ProcedureStepDescription": "Investigators_Winawer",
  "ProtocolName": "cmrr_mbepi_s6_2mm_66sl_PA_task-prf",
  "PulseSequenceDetails": "%CustomerSeq%_cmrr_mbep2d_bold",
  "ReceiveCoilActiveElements": "HC1-7",
  "ReceiveCoilName": "HeadNeck_64",
  "ReconMatrixPE": 104,
  "RepetitionTime": 1,
  "SAR": 0.0804201,
  "ScanOptions": "FS",
  "ScanningSequence": "EP",
  "SequenceName": "epfid2d1_104",
  "SequenceVariant": "SK_SS",
  "SeriesDescription": "cmrr_mbepi_s6_2mm_66sl_PA_task-prf",
  "SeriesNumber": 18,
  "ShimSetting": [249, -12614, -8470, 335, -60, 1, -170, 15],
  "SliceThickness": 2,
  "SliceTiming": [0, 0.535, 0.09, 0.6225, 0.1775, 0.7125, 0.2675, 0.8025, 0.3575, 0.89, 0.445, 0, 0.535, 0.09, 0.6225, 0.1775, 0.7125, 0.2675, 0.8025, 0.3575, 0.89, 0.445, 0, 0.535, 0.09, 0.6225, 0.1775, 0.7125, 0.2675, 0.8025, 0.3575, 0.89, 0.445, 0, 0.535, 0.09, 0.6225, 0.1775, 0.7125, 0.2675, 0.8025, 0.3575, 0.89, 0.445, 0, 0.535, 0.09, 0.6225, 0.1775, 0.7125, 0.2675, 0.8025, 0.3575, 0.89, 0.445, 0, 0.535, 0.09, 0.6225, 0.1775, 0.7125, 0.2675, 0.8025, 0.3575, 0.89, 0.445],
  "SoftwareVersions": "syngo_MR_E11",
  "SpacingBetweenSlices": 2,
  "StationName": "AWP166018",
  "TaskName": "prf",
  "TotalReadoutTime": 0.060771,
  "TxRefAmp": 220.127,
  "VendorReportedEchoSpacing": 0.00059,
  "WipMemBlock": "06bd8f8f-d9f1-47b1-9ba1-3d34c31d127a||Sequence: R016 ve11c/master r/8780670; Nov 27 2017 15:05:12 by eja",
  "dcmmeta_affine": [
    [-1.9967191219329834, -0.11338188499212265, 0.0160477627068758, 112.6077651977539],
    [-0.11183441430330276, 1.8705328702926636, -0.6989991664886475, -52.648216247558594],
    [-0.024617986753582954, 0.698749840259552, 1.8738043308258057, -79.51685333251953],
    [0.0, 0.0, 0.0, 1.0]
],
  "dcmmeta_reorient_transform": [
    [0.0, -1.0, 0.0, 103.0],
    [1.0, 0.0, 0.0, 0.0],
    [0.0, 0.0, 1.0, 0.0],
    [0.0, 0.0, 0.0, 1.0]
],
  "dcmmeta_shape": [104, 104, 66, 192],
  "dcmmeta_slice_dim": 2,
  "dcmmeta_version": 0.6,
  "global": {
    "const": {
      "AccessionNumber": "kgzydrd5",
      "AcquisitionMatrix": [104, 0, 0, 104],
      "AngioFlag": "N",
      "BitsAllocated": 16,
      "BitsStored": 16,
      "BodyPartExamined": "BRAIN",
      "Columns": 936,
      "EchoNumbers": 1,
      "EchoTime": 37.6,
      "EchoTrainLength": 104,
      "FlipAngle": 68.0,
      "HighBit": 15,
      "ImageOrientationPatient": [0.99835953165049, 0.0559172087559, -0.0123089937674, -0.0566909418883, 0.93526643619879, -0.3493749138502],
      "ImagePositionPatient": [-884.39769588002, -964.68146253941, 293.37539381673],
      "ImageType": [
        "ORIGINAL",
        "PRIMARY",
        "M",
        "MB",
        "ND",
        "MOSAIC"
],
      "ImagedNucleus": "1H",
      "ImagingFrequency": 123.190656,
      "InPlanePhaseEncodingDirection": "COL",
      "MRAcquisitionType": "2D",
      "MagneticFieldStrength": 3.0,
      "Manufacturer": "SIEMENS",
      "ManufacturerModelName": "Prisma",
      "Modality": "MR",
      "NumberOfAverages": 1.0,
      "NumberOfPhaseEncodingSteps": 104,
      "PercentPhaseFieldOfView": 100.0,
      "PercentSampling": 100.0,
      "PerformedProcedureStepStartTime": "144050.199000",
      "PhotometricInterpretation": "MONOCHROME2",
      "PixelBandwidth": 2290.0,
      "PixelRepresentation": 0,
      "PixelSpacing": [2.0, 2.0],
      "ProtocolName": "cmrr_mbepi_s6_2mm_66sl_PA_task-prf",
      "RepetitionTime": 1000.0,
      "Rows": 936,
      "SAR": 0.08042010759944,
      "SamplesPerPixel": 1,
      "ScanOptions": "FS",
      "ScanningSequence": "EP",
      "SequenceName": "epfid2d1_104",
      "SequenceVariant": [
        "SK",
        "SS"
],
      "SeriesDescription": "cmrr_mbepi_s6_2mm_66sl_PA_task-prf",
      "SeriesNumber": 18,
      "SeriesTime": "150905.264000",
      "SliceLocation": -55.195427284566,
      "SliceThickness": 2.0,
      "SmallestImagePixelValue": 0,
      "SoftwareVersions": "syngo MR E11",
      "SpacingBetweenSlices": 1.9999999791008,
      "SpecificCharacterSet": "ISO_IR 100",
      "StudyID": "1",
      "StudyTime": "144050.137000",
      "TransmitCoilName": "Body",
      "VariableFlipAngleFlag": "N",
      "WindowCenterWidthExplanation": "Algo1",
      "dBdt": 0.0},
    "slices": {}
  },
  "time": {
    "samples": {
      "AcquisitionNumber": [1, 2, 3, 4, 5, 6, 7, 8, 9, 10, 11, 12, 13, 14, 15, 16, 17, 18, 19, 20, 21, 22, 23, 24, 25, 26, 27, 28, 29, 30, 31, 32, 33, 34, 35, 36, 37, 38, 39, 40, 41, 42, 43, 44, 45, 46, 47, 48, 49, 50, 51, 52, 53, 54, 55, 56, 57, 58, 59, 60, 61, 62, 63, 64, 65, 66, 67, 68, 69, 70, 71, 72, 73, 74, 75, 76, 77, 78, 79, 80, 81, 82, 83, 84, 85, 86, 87, 88, 89, 90, 91, 92, 93, 94, 95, 96, 97, 98, 99, 100, 101, 102, 103, 104, 105, 106, 107, 108, 109, 110, 111, 112, 113, 114, 115, 116, 117, 118, 119, 120, 121, 122, 123, 124, 125, 126, 127, 128, 129, 130, 131, 132, 133, 134, 135, 136, 137, 138, 139, 140, 141, 142, 143, 144, 145, 146, 147, 148, 149, 150, 151, 152, 153, 154, 155, 156, 157, 158, 159, 160, 161, 162, 163, 164, 165, 166, 167, 168, 169, 170, 171, 172, 173, 174, 175, 176, 177, 178, 179, 180, 181, 182, 183, 184, 185, 186, 187, 188, 189, 190, 191, 192],
      "AcquisitionTime": ["150752.480000", "150753.480000", "150754.480000", "150755.480000", "150756.480000", "150757.480000", "150758.480000", "150759.480000", "150800.480000", "150801.480000", "150802.480000", "150803.480000", "150804.480000", "150805.480000", "150806.480000", "150807.480000", "150808.480000", "150809.480000", "150810.480000", "150811.480000", "150812.480000", "150813.480000", "150814.480000", "150815.480000", "150816.480000", "150817.480000", "150818.480000", "150819.480000", "150820.480000", "150821.480000", "150822.480000", "150823.480000", "150824.480000", "150825.480000", "150826.480000", "150827.480000", "150828.480000", "150829.480000", "150830.480000", "150831.480000", "150832.480000", "150833.480000", "150834.480000", "150835.480000", "150836.480000", "150837.480000", "150838.480000", "150839.480000", "150840.480000", "150841.480000", "150842.480000", "150843.480000", "150844.480000", "150845.480000", "150846.480000", "150847.480000", "150848.480000", "150849.480000", "150850.480000", "150851.480000", "150852.480000", "150853.480000", "150854.480000", "150855.480000", "150856.480000", "150857.480000", "150858.480000", "150859.480000", "150900.480000", "150901.480000", "150902.480000", "150903.480000", "150904.480000", "150905.480000", "150906.480000", "150907.480000", "150908.480000", "150909.480000", "150910.480000", "150911.480000", "150912.480000", "150913.480000", "150914.480000", "150915.480000", "150916.480000", "150917.480000", "150918.480000", "150919.480000", "150920.480000", "150921.480000", "150922.480000", "150923.480000", "150924.480000", "150925.480000", "150926.480000", "150927.480000", "150928.480000", "150929.480000", "150930.480000", "150931.480000", "150932.480000", "150933.480000", "150934.480000", "150935.480000", "150936.480000", "150937.480000", "150938.480000", "150939.480000", "150940.480000", "150941.480000", "150942.480000", "150943.480000", "150944.480000", "150945.480000", "150946.480000", "150947.480000", "150948.480000", "150949.480000", "150950.480000", "150951.480000", "150952.480000", "150953.480000", "150954.480000", "150955.480000", "150956.480000", "150957.480000", "150958.480000", "150959.480000", "151000.480000", "151001.480000", "151002.480000", "151003.480000", "151004.480000", "151005.480000", "151006.480000", "151007.480000", "151008.480000", "151009.480000", "151010.480000", "151011.480000", "151012.480000", "151013.480000", "151014.480000", "151015.480000", "151016.480000", "151017.480000", "151018.480000", "151019.480000", "151020.480000", "151021.480000", "151022.480000", "151023.480000", "151024.480000", "151025.480000", "151026.480000", "151027.480000", "151028.480000", "151029.480000", "151030.480000", "151031.480000", "151032.480000", "151033.480000", "151034.480000", "151035.480000", "151036.480000", "151037.480000", "151038.480000", "151039.480000", "151040.480000", "151041.480000", "151042.480000", "151043.480000", "151044.480000", "151045.480000", "151046.480000", "151047.480000", "151048.480000", "151049.480000", "151050.480000", "151051.480000", "151052.480000", "151053.480000", "151054.480000", "151055.480000", "151056.480000", "151057.480000", "151058.480000", "151059.480000", "151100.480000", "151101.480000", "151102.480000", "151103.480000"],
      "ContentTime": ["150905.267000", "150905.271000", "150905.274000", "150905.277000", "150905.280000", "150905.283000", "150905.286000", "150905.288000", "150905.291000", "150905.294000", "150905.297000", "150905.300000", "150905.303000", "150905.306000", "150905.309000", "150905.312000", "150905.315000", "150905.317000", "150905.320000", "150905.323000", "150905.326000", "150905.329000", "150905.332000", "150905.343000", "150905.346000", "150905.349000", "150905.352000", "150905.355000", "150905.358000", "150905.361000", "150905.364000", "150925.240000", "150925.243000", "150925.246000", "150925.249000", "150925.252000", "150925.255000", "150925.257000", "150925.260000", "150925.263000", "150925.266000", "150925.269000", "150925.272000", "150925.275000", "150925.280000", "150925.283000", "150925.285000", "150925.299000", "150925.302000", "150925.305000", "150925.308000", "150925.311000", "150925.313000", "150925.316000", "150925.319000", "150925.322000", "150925.325000", "150925.328000", "150925.331000", "150945.241000", "150945.244000", "150945.247000", "150945.249000", "150945.252000", "150945.255000", "150945.258000", "150945.261000", "150945.264000", "150945.267000", "150945.269000", "150945.272000", "150945.275000", "150945.278000", "150945.281000", "150945.284000", "150945.287000", "150945.290000", "150945.293000", "150945.296000", "150945.298000", "150945.301000", "150945.304000", "150945.313000", "150945.316000", "150945.319000", "150945.322000", "150945.325000", "150945.327000", "151005.241000", "151005.244000", "151005.247000", "151005.250000", "151005.252000", "151005.255000", "151005.258000", "151005.261000", "151005.264000", "151005.267000", "151005.270000", "151005.273000", "151005.276000", "151005.279000", "151005.281000", "151005.284000", "151005.287000", "151005.290000", "151005.293000", "151005.296000", "151005.299000", "151005.302000", "151005.305000", "151005.307000", "151005.310000", "151005.313000", "151005.316000", "151005.319000", "151025.240000", "151025.243000", "151025.246000", "151025.249000", "151025.252000", "151025.255000", "151025.257000", "151025.260000", "151025.263000", "151025.266000", "151025.269000", "151025.272000", "151025.275000", "151025.277000", "151025.280000", "151025.283000", "151025.286000", "151025.289000", "151025.292000", "151025.295000", "151025.298000", "151025.301000", "151025.304000", "151025.306000", "151025.309000", "151025.312000", "151025.315000", "151025.318000", "151045.240000", "151045.243000", "151045.246000", "151045.249000", "151045.252000", "151045.254000", "151045.257000", "151045.260000", "151045.263000", "151045.266000", "151045.269000", "151045.272000", "151045.275000", "151045.278000", "151045.280000", "151045.283000", "151045.286000", "151045.289000", "151045.292000", "151045.295000", "151045.298000", "151045.301000", "151045.303000", "151045.306000", "151045.309000", "151045.312000", "151045.315000", "151045.318000", "151104.681000", "151104.684000", "151104.687000", "151104.690000", "151104.693000", "151104.696000", "151104.699000", "151104.702000", "151104.705000", "151104.708000", "151104.711000", "151104.714000", "151104.716000", "151104.719000", "151104.722000", "151104.725000", "151104.728000", "151104.731000", "151104.734000", "151104.737000"],
      "InstanceCreationTime": ["150905.267000", "150905.271000", "150905.274000", "150905.277000", "150905.280000", "150905.283000", "150905.286000", "150905.288000", "150905.291000", "150905.294000", "150905.297000", "150905.300000", "150905.303000", "150905.306000", "150905.309000", "150905.312000", "150905.315000", "150905.317000", "150905.320000", "150905.323000", "150905.326000", "150905.329000", "150905.332000", "150905.343000", "150905.346000", "150905.349000", "150905.352000", "150905.355000", "150905.358000", "150905.361000", "150905.364000", "150925.240000", "150925.243000", "150925.246000", "150925.249000", "150925.252000", "150925.255000", "150925.257000", "150925.260000", "150925.263000", "150925.266000", "150925.269000", "150925.272000", "150925.275000", "150925.280000", "150925.283000", "150925.285000", "150925.299000", "150925.302000", "150925.305000", "150925.308000", "150925.311000", "150925.313000", "150925.316000", "150925.319000", "150925.322000", "150925.325000", "150925.328000", "150925.331000", "150945.241000", "150945.244000", "150945.247000", "150945.249000", "150945.252000", "150945.255000", "150945.258000", "150945.261000", "150945.264000", "150945.267000", "150945.269000", "150945.272000", "150945.275000", "150945.278000", "150945.281000", "150945.284000", "150945.287000", "150945.290000", "150945.293000", "150945.296000", "150945.298000", "150945.301000", "150945.304000", "150945.313000", "150945.316000", "150945.319000", "150945.322000", "150945.325000", "150945.327000", "151005.241000", "151005.244000", "151005.247000", "151005.250000", "151005.252000", "151005.255000", "151005.258000", "151005.261000", "151005.264000", "151005.267000", "151005.270000", "151005.273000", "151005.276000", "151005.279000", "151005.281000", "151005.284000", "151005.287000", "151005.290000", "151005.293000", "151005.296000", "151005.299000", "151005.302000", "151005.305000", "151005.307000", "151005.310000", "151005.313000", "151005.316000", "151005.319000", "151025.240000", "151025.243000", "151025.246000", "151025.249000", "151025.252000", "151025.255000", "151025.257000", "151025.260000", "151025.263000", "151025.266000", "151025.269000", "151025.272000", "151025.275000", "151025.277000", "151025.280000", "151025.283000", "151025.286000", "151025.289000", "151025.292000", "151025.295000", "151025.298000", "151025.301000", "151025.304000", "151025.306000", "151025.309000", "151025.312000", "151025.315000", "151025.318000", "151045.240000", "151045.243000", "151045.246000", "151045.249000", "151045.252000", "151045.254000", "151045.257000", "151045.260000", "151045.263000", "151045.266000", "151045.269000", "151045.272000", "151045.275000", "151045.278000", "151045.280000", "151045.283000", "151045.286000", "151045.289000", "151045.292000", "151045.295000", "151045.298000", "151045.301000", "151045.303000", "151045.306000", "151045.309000", "151045.312000", "151045.315000", "151045.318000", "151104.681000", "151104.684000", "151104.687000", "151104.690000", "151104.693000", "151104.696000", "151104.699000", "151104.702000", "151104.705000", "151104.708000", "151104.711000", "151104.714000", "151104.716000", "151104.719000", "151104.722000", "151104.725000", "151104.728000", "151104.731000", "151104.734000", "151104.737000"],
      "InstanceNumber": [1, 2, 3, 4, 5, 6, 7, 8, 9, 10, 11, 12, 13, 14, 15, 16, 17, 18, 19, 20, 21, 22, 23, 24, 25, 26, 27, 28, 29, 30, 31, 32, 33, 34, 35, 36, 37, 38, 39, 40, 41, 42, 43, 44, 45, 46, 47, 48, 49, 50, 51, 52, 53, 54, 55, 56, 57, 58, 59, 60, 61, 62, 63, 64, 65, 66, 67, 68, 69, 70, 71, 72, 73, 74, 75, 76, 77, 78, 79, 80, 81, 82, 83, 84, 85, 86, 87, 88, 89, 90, 91, 92, 93, 94, 95, 96, 97, 98, 99, 100, 101, 102, 103, 104, 105, 106, 107, 108, 109, 110, 111, 112, 113, 114, 115, 116, 117, 118, 119, 120, 121, 122, 123, 124, 125, 126, 127, 128, 129, 130, 131, 132, 133, 134, 135, 136, 137, 138, 139, 140, 141, 142, 143, 144, 145, 146, 147, 148, 149, 150, 151, 152, 153, 154, 155, 156, 157, 158, 159, 160, 161, 162, 163, 164, 165, 166, 167, 168, 169, 170, 171, 172, 173, 174, 175, 176, 177, 178, 179, 180, 181, 182, 183, 184, 185, 186, 187, 188, 189, 190, 191, 192],
      "LargestImagePixelValue": [33910, 33015, 31192, 30689, 31653, 31169, 30779, 30352, 31003, 30365, 31995, 30254, 30538, 30743, 30891, 30735, 30873, 31393, 30362, 30134, 30867, 30510, 30531, 31350, 30827, 30407, 31167, 31032, 30804, 31477, 31410, 31731, 31087, 31676, 31602, 31517, 31150, 31317, 31118, 30528, 30684, 30269, 31274, 30701, 30826, 30798, 31092, 30857, 31212, 31887, 31656, 30171, 30703, 30725, 30632, 31877, 31959, 31511, 31356, 30616, 30344, 30087, 30591, 30330, 30307, 30727, 30746, 30550, 30339, 30825, 31179, 31353, 30428, 31023, 31290, 31771, 31041, 31016, 31267, 31687, 31049, 31223, 31563, 31474, 31202, 30960, 31632, 31578, 31455, 31396, 31645, 31793, 31321, 31693, 31997, 31238, 31730, 32229, 31487, 31640, 31750, 31773, 31364, 31195, 31700, 31566, 31644, 31806, 31702, 31977, 32494, 32474, 31883, 32222, 32491, 32129, 32440, 32273, 32431, 31828, 31580, 32337, 32219, 31725, 31478, 31882, 31744, 32260, 32294, 31713, 30928, 29676, 30960, 31451, 31522, 30297, 31169, 31670, 30955, 30703, 31418, 30968, 30785, 31315, 30875, 31824, 32002, 31556, 31057, 31141, 31438, 31714, 31689, 32258, 32430, 33008, 32253, 32215, 31688, 31131, 30712, 31927, 32179, 31954, 31281, 32153, 31913, 31225, 31185, 31313, 31341, 31911, 31884, 31265, 32008, 32391, 31883, 31402, 31270, 31241, 30630, 30928, 30861, 30283, 30662, 30306, 30554, 30529, 30464, 30280, 30235, 30743],
      "WindowCenter": [9873.0, 9835.0, 9788.0, 9757.0, 9778.0, 9774.0, 9772.0, 9753.0, 9767.0, 9763.0, 9782.0, 9748.0, 9747.0, 9744.0, 9740.0, 9743.0, 9750.0, 9756.0, 9746.0, 9741.0, 9753.0, 9745.0, 9747.0, 9760.0, 9741.0, 9736.0, 9766.0, 9771.0, 9781.0, 9802.0, 9804.0, 9800.0, 9781.0, 9787.0, 9786.0, 9766.0, 9767.0, 9764.0, 9759.0, 9736.0, 9733.0, 9736.0, 9737.0, 9725.0, 9717.0, 9716.0, 9721.0, 9715.0, 9733.0, 9746.0, 9732.0, 9710.0, 9713.0, 9711.0, 9710.0, 9734.0, 9730.0, 9722.0, 9714.0, 9687.0, 9672.0, 9657.0, 9676.0, 9687.0, 9694.0, 9708.0, 9720.0, 9729.0, 9749.0, 9766.0, 9781.0, 9783.0, 9768.0, 9777.0, 9767.0, 9765.0, 9759.0, 9761.0, 9774.0, 9774.0, 9772.0, 9792.0, 9793.0, 9786.0, 9777.0, 9778.0, 9783.0, 9785.0, 9782.0, 9792.0, 9807.0, 9801.0, 9792.0, 9793.0, 9790.0, 9778.0, 9776.0, 9786.0, 9778.0, 9782.0, 9791.0, 9799.0, 9778.0, 9771.0, 9781.0, 9782.0, 9767.0, 9775.0, 9782.0, 9788.0, 9808.0, 9801.0, 9789.0, 9785.0, 9791.0, 9785.0, 9783.0, 9792.0, 9800.0, 9793.0, 9782.0, 9791.0, 9784.0, 9765.0, 9757.0, 9762.0, 9766.0, 9776.0, 9775.0, 9773.0, 9727.0, 9716.0, 9742.0, 9749.0, 9751.0, 9739.0, 9735.0, 9736.0, 9725.0, 9726.0, 9741.0, 9748.0, 9743.0, 9756.0, 9742.0, 9748.0, 9761.0, 9747.0, 9749.0, 9743.0, 9723.0, 9720.0, 9726.0, 9747.0, 9756.0, 9770.0, 9773.0, 9781.0, 9773.0, 9763.0, 9767.0, 9791.0, 9800.0, 9784.0, 9787.0, 9790.0, 9782.0, 9765.0, 9759.0, 9763.0, 9770.0, 9791.0, 9800.0, 9781.0, 9794.0, 9788.0, 9774.0, 9754.0, 9761.0, 9762.0, 9744.0, 9756.0, 9759.0, 9744.0, 9751.0, 9752.0, 9746.0, 9739.0, 9721.0, 9720.0, 9724.0, 9719.0],
      "WindowWidth": [21022.0, 20922.0, 20826.0, 20752.0, 20787.0, 20784.0, 20784.0, 20738.0, 20765.0, 20761.0, 20793.0, 20727.0, 20721.0, 20717.0, 20703.0, 20712.0, 20727.0, 20741.0, 20726.0, 20716.0, 20743.0, 20724.0, 20730.0, 20747.0, 20710.0, 20700.0, 20765.0, 20773.0, 20799.0, 20845.0, 20849.0, 20838.0, 20799.0, 20809.0, 20805.0, 20765.0, 20766.0, 20759.0, 20750.0, 20701.0, 20692.0, 20699.0, 20697.0, 20670.0, 20653.0, 20650.0, 20662.0, 20650.0, 20683.0, 20711.0, 20681.0, 20648.0, 20645.0, 20639.0, 20631.0, 20676.0, 20669.0, 20656.0, 20636.0, 20579.0, 20546.0, 20514.0, 20556.0, 20582.0, 20600.0, 20629.0, 20658.0, 20681.0, 20729.0, 20764.0, 20797.0, 20793.0, 20765.0, 20779.0, 20755.0, 20747.0, 20740.0, 20747.0, 20774.0, 20775.0, 20773.0, 20815.0, 20816.0, 20806.0, 20782.0, 20784.0, 20792.0, 20801.0, 20793.0, 20817.0, 20847.0, 20837.0, 20815.0, 20816.0, 20808.0, 20784.0, 20778.0, 20794.0, 20790.0, 20794.0, 20813.0, 20834.0, 20789.0, 20774.0, 20792.0, 20793.0, 20761.0, 20779.0, 20793.0, 20804.0, 20847.0, 20831.0, 20806.0, 20794.0, 20804.0, 20798.0, 20790.0, 20814.0, 20831.0, 20826.0, 20793.0, 20806.0, 20791.0, 20755.0, 20736.0, 20746.0, 20758.0, 20776.0, 20773.0, 20777.0, 20677.0, 20654.0, 20703.0, 20720.0, 20720.0, 20702.0, 20689.0, 20686.0, 20667.0, 20674.0, 20707.0, 20724.0, 20712.0, 20738.0, 20709.0, 20716.0, 20746.0, 20715.0, 20722.0, 20709.0, 20662.0, 20652.0, 20662.0, 20710.0, 20730.0, 20761.0, 20768.0, 20786.0, 20778.0, 20753.0, 20766.0, 20813.0, 20836.0, 20797.0, 20803.0, 20807.0, 20790.0, 20757.0, 20746.0, 20754.0, 20767.0, 20813.0, 20835.0, 20798.0, 20820.0, 20802.0, 20777.0, 20734.0, 20749.0, 20753.0, 20718.0, 20739.0, 20753.0, 20717.0, 20734.0, 20737.0, 20726.0, 20712.0, 20670.0, 20665.0, 20677.0, 20660.0]
    },
    "slices": {}
  },
  "NumberOfVolumes": 192
}