{
  "AcquisitionMatrixPE": 104,
  "AcquisitionNumber": 1,
  "AcquisitionTime": "14:54:52.445000",
  "BandwidthPerPixelPhaseEncode": 16.297,
  "BaseResolution": 104,
  "BodyPartExamined": "BRAIN",
  "ConsistencyInfo": "N4_VE11C_LATEST_20160120",
  "ConversionSoftware": "dcm2niix",
  "ConversionSoftwareVersion": "v1.0.20190902",
  "DerivedVendorReportedEchoSpacing": 0.000590009,
  "DeviceSerialNumber": "166018",
  "DwellTime": 2.1e-06,
  "EchoTime": 0.0376,
  "EchoTrainLength": 104,
  "EffectiveEchoSpacing": 0.000590009,
  "FlipAngle": 68,
  "ImageComments": "Unaliased_MB6_PE3_LB",
  "ImageOrientationPatientDICOM": [0.99836, 0.0559172, -0.012309, -0.0566909, 0.935266, -0.349375],
  "ImageType": [
    "ORIGINAL",
    "PRIMARY",
    "M",
    "MB",
    "ND",
    "MOSAIC"
],
  "ImagingFrequency": 123.191,
  "InPlanePhaseEncodingDirectionDICOM": "COL",
  "InstitutionAddress": "Washington_Place_6_NYC_NYC_US_10003",
  "InstitutionName": "NYU_-_CBI",
  "InstitutionalDepartmentName": "Department",
  "MRAcquisitionType": "2D",
  "MagneticFieldStrength": 3,
  "Manufacturer": "Siemens",
  "ManufacturersModelName": "Prisma",
  "Modality": "MR",
  "MultibandAccelerationFactor": 6,
  "PartialFourier": 1,
  "PatientPosition": "HFS",
  "PercentPhaseFOV": 100,
  "PhaseEncodingDirection": "j",
  "PhaseEncodingSteps": 104,
  "PhaseResolution": 1,
  "PixelBandwidth": 2290,
  "ProcedureStepDescription": "Investigators_Winawer",
  "ProtocolName": "cmrr_mbepi_s6_2mm_66sl_PA_task-prf",
  "PulseSequenceDetails": "%CustomerSeq%_cmrr_mbep2d_bold",
  "ReceiveCoilActiveElements": "HC1-7",
  "ReceiveCoilName": "HeadNeck_64",
  "ReconMatrixPE": 104,
  "RepetitionTime": 1,
  "SAR": 0.0804201,
  "ScanOptions": "FS",
  "ScanningSequence": "EP",
  "SequenceName": "epfid2d1_104",
  "SequenceVariant": "SK_SS",
  "SeriesDescription": "cmrr_mbepi_s6_2mm_66sl_PA_task-prf",
  "SeriesNumber": 12,
  "ShimSetting": [249, -12614, -8470, 335, -60, 1, -170, 15],
  "SliceThickness": 2,
  "SliceTiming": [0, 0.535, 0.09, 0.6225, 0.1775, 0.7125, 0.2675, 0.8025, 0.3575, 0.89, 0.445, 0, 0.535, 0.09, 0.6225, 0.1775, 0.7125, 0.2675, 0.8025, 0.3575, 0.89, 0.445, 0, 0.535, 0.09, 0.6225, 0.1775, 0.7125, 0.2675, 0.8025, 0.3575, 0.89, 0.445, 0, 0.535, 0.09, 0.6225, 0.1775, 0.7125, 0.2675, 0.8025, 0.3575, 0.89, 0.445, 0, 0.535, 0.09, 0.6225, 0.1775, 0.7125, 0.2675, 0.8025, 0.3575, 0.89, 0.445, 0, 0.535, 0.09, 0.6225, 0.1775, 0.7125, 0.2675, 0.8025, 0.3575, 0.89, 0.445],
  "SoftwareVersions": "syngo_MR_E11",
  "SpacingBetweenSlices": 2,
  "StationName": "AWP166018",
  "TaskName": "prf",
  "TotalReadoutTime": 0.060771,
  "TxRefAmp": 220.127,
  "VendorReportedEchoSpacing": 0.00059,
  "WipMemBlock": "06bd8f8f-d9f1-47b1-9ba1-3d34c31d127a||Sequence: R016 ve11c/master r/8780670; Nov 27 2017 15:05:12 by eja",
  "dcmmeta_affine": [
    [-1.9967191219329834, -0.11338188499212265, 0.0160477627068758, 112.6077651977539],
    [-0.11183441430330276, 1.8705328702926636, -0.6989991664886475, -52.648216247558594],
    [-0.024617986753582954, 0.698749840259552, 1.8738043308258057, -79.51685333251953],
    [0.0, 0.0, 0.0, 1.0]
],
  "dcmmeta_reorient_transform": [
    [0.0, -1.0, 0.0, 103.0],
    [1.0, 0.0, 0.0, 0.0],
    [0.0, 0.0, 1.0, 0.0],
    [0.0, 0.0, 0.0, 1.0]
],
  "dcmmeta_shape": [104, 104, 66, 192],
  "dcmmeta_slice_dim": 2,
  "dcmmeta_version": 0.6,
  "global": {
    "const": {
      "AccessionNumber": "kgzydrd5",
      "AcquisitionMatrix": [104, 0, 0, 104],
      "AngioFlag": "N",
      "BitsAllocated": 16,
      "BitsStored": 16,
      "BodyPartExamined": "BRAIN",
      "Columns": 936,
      "EchoNumbers": 1,
      "EchoTime": 37.6,
      "EchoTrainLength": 104,
      "FlipAngle": 68.0,
      "HighBit": 15,
      "ImageOrientationPatient": [0.99835953165049, 0.0559172087559, -0.0123089937674, -0.0566909418883, 0.93526643619879, -0.3493749138502],
      "ImagePositionPatient": [-884.39769588002, -964.68146253941, 293.37539381673],
      "ImageType": [
        "ORIGINAL",
        "PRIMARY",
        "M",
        "MB",
        "ND",
        "MOSAIC"
],
      "ImagedNucleus": "1H",
      "ImagingFrequency": 123.190656,
      "InPlanePhaseEncodingDirection": "COL",
      "MRAcquisitionType": "2D",
      "MagneticFieldStrength": 3.0,
      "Manufacturer": "SIEMENS",
      "ManufacturerModelName": "Prisma",
      "Modality": "MR",
      "NumberOfAverages": 1.0,
      "NumberOfPhaseEncodingSteps": 104,
      "PercentPhaseFieldOfView": 100.0,
      "PercentSampling": 100.0,
      "PerformedProcedureStepStartTime": "144050.199000",
      "PhotometricInterpretation": "MONOCHROME2",
      "PixelBandwidth": 2290.0,
      "PixelRepresentation": 0,
      "PixelSpacing": [2.0, 2.0],
      "ProtocolName": "cmrr_mbepi_s6_2mm_66sl_PA_task-prf",
      "RepetitionTime": 1000.0,
      "Rows": 936,
      "SAR": 0.08042010759944,
      "SamplesPerPixel": 1,
      "ScanOptions": "FS",
      "ScanningSequence": "EP",
      "SequenceName": "epfid2d1_104",
      "SequenceVariant": [
        "SK",
        "SS"
],
      "SeriesDescription": "cmrr_mbepi_s6_2mm_66sl_PA_task-prf",
      "SeriesNumber": 12,
      "SeriesTime": "145605.269000",
      "SliceLocation": -55.195427284566,
      "SliceThickness": 2.0,
      "SmallestImagePixelValue": 0,
      "SoftwareVersions": "syngo MR E11",
      "SpacingBetweenSlices": 1.9999999791008,
      "SpecificCharacterSet": "ISO_IR 100",
      "StudyID": "1",
      "StudyTime": "144050.137000",
      "TransmitCoilName": "Body",
      "VariableFlipAngleFlag": "N",
      "WindowCenterWidthExplanation": "Algo1",
      "dBdt": 0.0},
    "slices": {}
  },
  "time": {
    "samples": {
      "AcquisitionNumber": [1, 2, 3, 4, 5, 6, 7, 8, 9, 10, 11, 12, 13, 14, 15, 16, 17, 18, 19, 20, 21, 22, 23, 24, 25, 26, 27, 28, 29, 30, 31, 32, 33, 34, 35, 36, 37, 38, 39, 40, 41, 42, 43, 44, 45, 46, 47, 48, 49, 50, 51, 52, 53, 54, 55, 56, 57, 58, 59, 60, 61, 62, 63, 64, 65, 66, 67, 68, 69, 70, 71, 72, 73, 74, 75, 76, 77, 78, 79, 80, 81, 82, 83, 84, 85, 86, 87, 88, 89, 90, 91, 92, 93, 94, 95, 96, 97, 98, 99, 100, 101, 102, 103, 104, 105, 106, 107, 108, 109, 110, 111, 112, 113, 114, 115, 116, 117, 118, 119, 120, 121, 122, 123, 124, 125, 126, 127, 128, 129, 130, 131, 132, 133, 134, 135, 136, 137, 138, 139, 140, 141, 142, 143, 144, 145, 146, 147, 148, 149, 150, 151, 152, 153, 154, 155, 156, 157, 158, 159, 160, 161, 162, 163, 164, 165, 166, 167, 168, 169, 170, 171, 172, 173, 174, 175, 176, 177, 178, 179, 180, 181, 182, 183, 184, 185, 186, 187, 188, 189, 190, 191, 192],
      "AcquisitionTime": ["145452.445000", "145453.445000", "145454.445000", "145455.445000", "145456.445000", "145457.445000", "145458.445000", "145459.445000", "145500.445000", "145501.445000", "145502.445000", "145503.445000", "145504.445000", "145505.445000", "145506.445000", "145507.445000", "145508.445000", "145509.445000", "145510.445000", "145511.445000", "145512.445000", "145513.445000", "145514.445000", "145515.445000", "145516.445000", "145517.445000", "145518.445000", "145519.445000", "145520.445000", "145521.445000", "145522.445000", "145523.445000", "145524.445000", "145525.445000", "145526.445000", "145527.445000", "145528.445000", "145529.445000", "145530.445000", "145531.445000", "145532.445000", "145533.445000", "145534.445000", "145535.445000", "145536.445000", "145537.445000", "145538.445000", "145539.445000", "145540.445000", "145541.445000", "145542.445000", "145543.445000", "145544.445000", "145545.445000", "145546.445000", "145547.445000", "145548.445000", "145549.445000", "145550.445000", "145551.445000", "145552.445000", "145553.445000", "145554.445000", "145555.445000", "145556.445000", "145557.445000", "145558.445000", "145559.445000", "145600.445000", "145601.445000", "145602.445000", "145603.445000", "145604.445000", "145605.445000", "145606.445000", "145607.445000", "145608.445000", "145609.445000", "145610.445000", "145611.445000", "145612.445000", "145613.445000", "145614.445000", "145615.445000", "145616.445000", "145617.445000", "145618.445000", "145619.445000", "145620.445000", "145621.445000", "145622.445000", "145623.445000", "145624.445000", "145625.445000", "145626.445000", "145627.445000", "145628.445000", "145629.445000", "145630.445000", "145631.445000", "145632.445000", "145633.445000", "145634.445000", "145635.445000", "145636.445000", "145637.445000", "145638.445000", "145639.445000", "145640.445000", "145641.445000", "145642.445000", "145643.445000", "145644.445000", "145645.445000", "145646.445000", "145647.445000", "145648.445000", "145649.445000", "145650.445000", "145651.445000", "145652.445000", "145653.445000", "145654.445000", "145655.445000", "145656.445000", "145657.445000", "145658.445000", "145659.445000", "145700.445000", "145701.445000", "145702.445000", "145703.445000", "145704.445000", "145705.445000", "145706.445000", "145707.445000", "145708.445000", "145709.445000", "145710.445000", "145711.445000", "145712.445000", "145713.445000", "145714.445000", "145715.445000", "145716.445000", "145717.445000", "145718.445000", "145719.445000", "145720.445000", "145721.445000", "145722.445000", "145723.445000", "145724.445000", "145725.445000", "145726.445000", "145727.445000", "145728.445000", "145729.445000", "145730.445000", "145731.445000", "145732.445000", "145733.445000", "145734.445000", "145735.445000", "145736.445000", "145737.445000", "145738.445000", "145739.445000", "145740.445000", "145741.445000", "145742.445000", "145743.445000", "145744.445000", "145745.445000", "145746.445000", "145747.445000", "145748.445000", "145749.445000", "145750.445000", "145751.445000", "145752.445000", "145753.445000", "145754.445000", "145755.445000", "145756.445000", "145757.445000", "145758.445000", "145759.445000", "145800.445000", "145801.445000", "145802.445000", "145803.445000"],
      "ContentTime": ["145605.271000", "145605.275000", "145605.278000", "145605.281000", "145605.284000", "145605.286000", "145605.289000", "145605.292000", "145605.295000", "145605.298000", "145605.301000", "145605.304000", "145605.307000", "145605.310000", "145605.312000", "145605.315000", "145605.318000", "145605.321000", "145605.324000", "145605.327000", "145605.330000", "145605.333000", "145605.335000", "145605.338000", "145605.341000", "145605.344000", "145605.347000", "145605.350000", "145605.353000", "145605.356000", "145605.358000", "145605.440000", "145605.443000", "145625.240000", "145625.243000", "145625.246000", "145625.268000", "145625.270000", "145625.273000", "145625.276000", "145625.279000", "145625.282000", "145625.285000", "145625.288000", "145625.291000", "145625.293000", "145625.296000", "145625.299000", "145625.302000", "145625.305000", "145625.308000", "145625.311000", "145625.314000", "145625.317000", "145625.319000", "145625.322000", "145625.325000", "145625.328000", "145625.331000", "145625.334000", "145625.337000", "145645.240000", "145645.243000", "145645.246000", "145645.249000", "145645.251000", "145645.254000", "145645.257000", "145645.260000", "145645.263000", "145645.266000", "145645.269000", "145645.272000", "145645.274000", "145645.277000", "145645.280000", "145645.283000", "145645.286000", "145645.289000", "145645.296000", "145645.299000", "145645.302000", "145645.305000", "145645.308000", "145645.322000", "145645.325000", "145645.328000", "145645.331000", "145645.334000", "145705.240000", "145705.243000", "145705.246000", "145705.248000", "145705.251000", "145705.254000", "145705.257000", "145705.260000", "145705.263000", "145705.266000", "145705.269000", "145705.272000", "145705.275000", "145705.278000", "145705.281000", "145705.283000", "145705.286000", "145705.289000", "145705.292000", "145705.295000", "145705.298000", "145705.301000", "145705.304000", "145705.307000", "145705.310000", "145705.313000", "145705.316000", "145705.318000", "145705.321000", "145725.240000", "145725.243000", "145725.246000", "145725.249000", "145725.252000", "145725.255000", "145725.257000", "145725.260000", "145725.263000", "145725.266000", "145725.269000", "145725.272000", "145725.275000", "145725.278000", "145725.281000", "145725.284000", "145725.286000", "145725.289000", "145725.292000", "145725.295000", "145725.298000", "145725.301000", "145725.304000", "145725.307000", "145725.310000", "145725.312000", "145725.315000", "145725.318000", "145745.240000", "145745.243000", "145745.246000", "145745.249000", "145745.252000", "145745.254000", "145745.257000", "145745.260000", "145745.263000", "145745.266000", "145745.269000", "145745.272000", "145745.275000", "145745.278000", "145745.281000", "145745.284000", "145745.286000", "145745.289000", "145745.292000", "145745.295000", "145745.298000", "145745.301000", "145745.304000", "145745.307000", "145745.309000", "145745.312000", "145804.673000", "145804.676000", "145804.679000", "145804.682000", "145804.685000", "145804.688000", "145804.691000", "145804.694000", "145804.697000", "145804.700000", "145804.703000", "145804.706000", "145804.708000", "145804.711000", "145804.714000", "145804.717000", "145804.720000", "145804.723000", "145804.726000", "145804.729000"],
      "InstanceCreationTime": ["145605.271000", "145605.275000", "145605.278000", "145605.281000", "145605.284000", "145605.286000", "145605.289000", "145605.292000", "145605.295000", "145605.298000", "145605.301000", "145605.304000", "145605.307000", "145605.310000", "145605.312000", "145605.315000", "145605.318000", "145605.321000", "145605.324000", "145605.327000", "145605.330000", "145605.333000", "145605.335000", "145605.338000", "145605.341000", "145605.344000", "145605.347000", "145605.350000", "145605.353000", "145605.356000", "145605.358000", "145605.440000", "145605.443000", "145625.240000", "145625.243000", "145625.246000", "145625.268000", "145625.270000", "145625.273000", "145625.276000", "145625.279000", "145625.282000", "145625.285000", "145625.288000", "145625.291000", "145625.293000", "145625.296000", "145625.299000", "145625.302000", "145625.305000", "145625.308000", "145625.311000", "145625.314000", "145625.317000", "145625.319000", "145625.322000", "145625.325000", "145625.328000", "145625.331000", "145625.334000", "145625.337000", "145645.240000", "145645.243000", "145645.246000", "145645.249000", "145645.251000", "145645.254000", "145645.257000", "145645.260000", "145645.263000", "145645.266000", "145645.269000", "145645.272000", "145645.274000", "145645.277000", "145645.280000", "145645.283000", "145645.286000", "145645.289000", "145645.296000", "145645.299000", "145645.302000", "145645.305000", "145645.308000", "145645.322000", "145645.325000", "145645.328000", "145645.331000", "145645.334000", "145705.240000", "145705.243000", "145705.246000", "145705.248000", "145705.251000", "145705.254000", "145705.257000", "145705.260000", "145705.263000", "145705.266000", "145705.269000", "145705.272000", "145705.275000", "145705.278000", "145705.281000", "145705.283000", "145705.286000", "145705.289000", "145705.292000", "145705.295000", "145705.298000", "145705.301000", "145705.304000", "145705.307000", "145705.310000", "145705.313000", "145705.316000", "145705.318000", "145705.321000", "145725.240000", "145725.243000", "145725.246000", "145725.249000", "145725.252000", "145725.255000", "145725.257000", "145725.260000", "145725.263000", "145725.266000", "145725.269000", "145725.272000", "145725.275000", "145725.278000", "145725.281000", "145725.284000", "145725.286000", "145725.289000", "145725.292000", "145725.295000", "145725.298000", "145725.301000", "145725.304000", "145725.307000", "145725.310000", "145725.312000", "145725.315000", "145725.318000", "145745.240000", "145745.243000", "145745.246000", "145745.249000", "145745.252000", "145745.254000", "145745.257000", "145745.260000", "145745.263000", "145745.266000", "145745.269000", "145745.272000", "145745.275000", "145745.278000", "145745.281000", "145745.284000", "145745.286000", "145745.289000", "145745.292000", "145745.295000", "145745.298000", "145745.301000", "145745.304000", "145745.307000", "145745.309000", "145745.312000", "145804.673000", "145804.676000", "145804.679000", "145804.682000", "145804.685000", "145804.688000", "145804.691000", "145804.694000", "145804.697000", "145804.700000", "145804.703000", "145804.706000", "145804.708000", "145804.711000", "145804.714000", "145804.717000", "145804.720000", "145804.723000", "145804.726000", "145804.729000"],
      "InstanceNumber": [1, 2, 3, 4, 5, 6, 7, 8, 9, 10, 11, 12, 13, 14, 15, 16, 17, 18, 19, 20, 21, 22, 23, 24, 25, 26, 27, 28, 29, 30, 31, 32, 33, 34, 35, 36, 37, 38, 39, 40, 41, 42, 43, 44, 45, 46, 47, 48, 49, 50, 51, 52, 53, 54, 55, 56, 57, 58, 59, 60, 61, 62, 63, 64, 65, 66, 67, 68, 69, 70, 71, 72, 73, 74, 75, 76, 77, 78, 79, 80, 81, 82, 83, 84, 85, 86, 87, 88, 89, 90, 91, 92, 93, 94, 95, 96, 97, 98, 99, 100, 101, 102, 103, 104, 105, 106, 107, 108, 109, 110, 111, 112, 113, 114, 115, 116, 117, 118, 119, 120, 121, 122, 123, 124, 125, 126, 127, 128, 129, 130, 131, 132, 133, 134, 135, 136, 137, 138, 139, 140, 141, 142, 143, 144, 145, 146, 147, 148, 149, 150, 151, 152, 153, 154, 155, 156, 157, 158, 159, 160, 161, 162, 163, 164, 165, 166, 167, 168, 169, 170, 171, 172, 173, 174, 175, 176, 177, 178, 179, 180, 181, 182, 183, 184, 185, 186, 187, 188, 189, 190, 191, 192],
      "LargestImagePixelValue": [33178, 32027, 32143, 31538, 31713, 31132, 31293, 31246, 30894, 31378, 31367, 31205, 31527, 31127, 30867, 31769, 31564, 31323, 31550, 31229, 30929, 31188, 31113, 31170, 31216, 31936, 31502, 31388, 31168, 31339, 31017, 30991, 31488, 31240, 31365, 31210, 31057, 31379, 31083, 31342, 31432, 31440, 31191, 30874, 31121, 31236, 31066, 31173, 31494, 31051, 31132, 31432, 31162, 31056, 31542, 30948, 31043, 30978, 31422, 30739, 30888, 31672, 31203, 31243, 31259, 31103, 31130, 31469, 31222, 31221, 31580, 31384, 31007, 31017, 31519, 31388, 32427, 31214, 30917, 31015, 31200, 31424, 30770, 30771, 32001, 30842, 30703, 31159, 31130, 30679, 31380, 30919, 31210, 31522, 31512, 30782, 31291, 31756, 31627, 32093, 32229, 31753, 32828, 33189, 33385, 31946, 32890, 33199, 32153, 31694, 32955, 32993, 32316, 33019, 33188, 32958, 32180, 32874, 32434, 31473, 31900, 32435, 32276, 31603, 31683, 31761, 33236, 31741, 31629, 31699, 30836, 30224, 30997, 30890, 30588, 31073, 31539, 30415, 30993, 30983, 30712, 31576, 31577, 30671, 30783, 31860, 31300, 31021, 31657, 31330, 31326, 31957, 31052, 31271, 31596, 30700, 31497, 31823, 31236, 31634, 31931, 31708, 31848, 31897, 31796, 30301, 30178, 30197, 29894, 29900, 31763, 30500, 31066, 30814, 31605, 29372, 29663, 30258, 30302, 29594, 30820, 31111, 30568, 31007, 31335, 30252, 30641, 31231, 29802, 30529, 30827, 30176],
      "WindowCenter": [9888.0, 9834.0, 9821.0, 9821.0, 9812.0, 9795.0, 9806.0, 9798.0, 9785.0, 9797.0, 9792.0, 9792.0, 9812.0, 9796.0, 9792.0, 9815.0, 9809.0, 9817.0, 9829.0, 9818.0, 9812.0, 9820.0, 9813.0, 9815.0, 9827.0, 9839.0, 9821.0, 9827.0, 9826.0, 9815.0, 9804.0, 9803.0, 9807.0, 9807.0, 9807.0, 9808.0, 9808.0, 9823.0, 9811.0, 9815.0, 9841.0, 9824.0, 9817.0, 9813.0, 9817.0, 9801.0, 9800.0, 9802.0, 9799.0, 9793.0, 9800.0, 9804.0, 9792.0, 9793.0, 9803.0, 9785.0, 9790.0, 9793.0, 9791.0, 9788.0, 9803.0, 9812.0, 9813.0, 9823.0, 9822.0, 9817.0, 9818.0, 9817.0, 9808.0, 9810.0, 9821.0, 9814.0, 9802.0, 9806.0, 9811.0, 9777.0, 9850.0, 9783.0, 9784.0, 9782.0, 9778.0, 9779.0, 9777.0, 9783.0, 9798.0, 9777.0, 9786.0, 9792.0, 9784.0, 9784.0, 9794.0, 9782.0, 9787.0, 9794.0, 9781.0, 9770.0, 9781.0, 9786.0, 9793.0, 9799.0, 9814.0, 9801.0, 9835.0, 9851.0, 9852.0, 9839.0, 9856.0, 9859.0, 9829.0, 9813.0, 9831.0, 9837.0, 9844.0, 9856.0, 9863.0, 9856.0, 9845.0, 9861.0, 9836.0, 9825.0, 9830.0, 9834.0, 9821.0, 9809.0, 9813.0, 9806.0, 9834.0, 9806.0, 9796.0, 9788.0, 9762.0, 9757.0, 9775.0, 9781.0, 9787.0, 9806.0, 9810.0, 9790.0, 9801.0, 9792.0, 9793.0, 9810.0, 9802.0, 9783.0, 9782.0, 9807.0, 9788.0, 9784.0, 9809.0, 9804.0, 9805.0, 9817.0, 9800.0, 9797.0, 9795.0, 9770.0, 9788.0, 9801.0, 9804.0, 9811.0, 9810.0, 9808.0, 9815.0, 9827.0, 9819.0, 9795.0, 9774.0, 9754.0, 9723.0, 9721.0, 9756.0, 9757.0, 9780.0, 9776.0, 9785.0, 9730.0, 9732.0, 9742.0, 9734.0, 9717.0, 9741.0, 9761.0, 9756.0, 9762.0, 9775.0, 9756.0, 9773.0, 9779.0, 9751.0, 9763.0, 9774.0, 9758.0],
      "WindowWidth": [21064.0, 20930.0, 20888.0, 20889.0, 20860.0, 20829.0, 20849.0, 20826.0, 20799.0, 20826.0, 20814.0, 20815.0, 20860.0, 20830.0, 20823.0, 20871.0, 20856.0, 20876.0, 20901.0, 20878.0, 20865.0, 20887.0, 20870.0, 20878.0, 20902.0, 20924.0, 20888.0, 20897.0, 20897.0, 20867.0, 20846.0, 20847.0, 20852.0, 20852.0, 20854.0, 20856.0, 20861.0, 20894.0, 20868.0, 20874.0, 20935.0, 20893.0, 20880.0, 20872.0, 20879.0, 20841.0, 20840.0, 20845.0, 20835.0, 20824.0, 20838.0, 20845.0, 20822.0, 20826.0, 20842.0, 20804.0, 20815.0, 20824.0, 20817.0, 20815.0, 20850.0, 20862.0, 20868.0, 20894.0, 20889.0, 20882.0, 20885.0, 20879.0, 20858.0, 20866.0, 20885.0, 20869.0, 20846.0, 20853.0, 20862.0, 20785.0, 20953.0, 20796.0, 20797.0, 20794.0, 20784.0, 20786.0, 20789.0, 20800.0, 20825.0, 20788.0, 20807.0, 20818.0, 20800.0, 20798.0, 20819.0, 20793.0, 20800.0, 20820.0, 20790.0, 20772.0, 20793.0, 20801.0, 20816.0, 20830.0, 20864.0, 20837.0, 20904.0, 20942.0, 20944.0, 20922.0, 20953.0, 20955.0, 20897.0, 20864.0, 20900.0, 20909.0, 20931.0, 20955.0, 20972.0, 20956.0, 20932.0, 20966.0, 20915.0, 20893.0, 20900.0, 20909.0, 20880.0, 20856.0, 20861.0, 20851.0, 20904.0, 20847.0, 20822.0, 20807.0, 20754.0, 20744.0, 20783.0, 20795.0, 20811.0, 20852.0, 20856.0, 20820.0, 20841.0, 20819.0, 20821.0, 20855.0, 20837.0, 20798.0, 20796.0, 20846.0, 20808.0, 20803.0, 20852.0, 20845.0, 20850.0, 20871.0, 20839.0, 20830.0, 20824.0, 20774.0, 20809.0, 20838.0, 20845.0, 20861.0, 20855.0, 20852.0, 20867.0, 20897.0, 20881.0, 20837.0, 20791.0, 20740.0, 20673.0, 20667.0, 20736.0, 20745.0, 20796.0, 20787.0, 20796.0, 20691.0, 20691.0, 20708.0, 20692.0, 20665.0, 20710.0, 20749.0, 20738.0, 20751.0, 20778.0, 20745.0, 20780.0, 20789.0, 20739.0, 20763.0, 20783.0, 20753.0]
    },
    "slices": {}
  },
  "NumberOfVolumes": 192
}