{
  "AcquisitionMatrixPE": 104,
  "AcquisitionNumber": 1,
  "AcquisitionTime": "14:46:8.510000",
  "BandwidthPerPixelPhaseEncode": 16.297,
  "BaseResolution": 104,
  "BodyPartExamined": "BRAIN",
  "ConsistencyInfo": "N4_VE11C_LATEST_20160120",
  "ConversionSoftware": "dcm2niix",
  "ConversionSoftwareVersion": "v1.0.20190902",
  "DerivedVendorReportedEchoSpacing": 0.000590009,
  "DeviceSerialNumber": "166018",
  "DwellTime": 2.1e-06,
  "EchoTime": 0.0376,
  "EchoTrainLength": 104,
  "EffectiveEchoSpacing": 0.000590009,
  "FlipAngle": 68,
  "ImageComments": "Unaliased_MB6_PE3_LB",
  "ImageOrientationPatientDICOM": [0.99836, 0.0559172, -0.012309, -0.0566909, 0.935266, -0.349375],
  "ImageType": [
    "ORIGINAL",
    "PRIMARY",
    "M",
    "MB",
    "ND",
    "MOSAIC"
],
  "ImagingFrequency": 123.191,
  "InPlanePhaseEncodingDirectionDICOM": "COL",
  "InstitutionAddress": "Washington_Place_6_NYC_NYC_US_10003",
  "InstitutionName": "NYU_-_CBI",
  "InstitutionalDepartmentName": "Department",
  "MRAcquisitionType": "2D",
  "MagneticFieldStrength": 3,
  "Manufacturer": "Siemens",
  "ManufacturersModelName": "Prisma",
  "Modality": "MR",
  "MultibandAccelerationFactor": 6,
  "PartialFourier": 1,
  "PatientPosition": "HFS",
  "PercentPhaseFOV": 100,
  "PhaseEncodingDirection": "j",
  "PhaseEncodingSteps": 104,
  "PhaseResolution": 1,
  "PixelBandwidth": 2290,
  "ProcedureStepDescription": "Investigators_Winawer",
  "ProtocolName": "cmrr_mbepi_s6_2mm_66sl_PA_task-prf",
  "PulseSequenceDetails": "%CustomerSeq%_cmrr_mbep2d_bold",
  "ReceiveCoilActiveElements": "HC1-7",
  "ReceiveCoilName": "HeadNeck_64",
  "ReconMatrixPE": 104,
  "RepetitionTime": 1,
  "SAR": 0.0804201,
  "ScanOptions": "FS",
  "ScanningSequence": "EP",
  "SequenceName": "epfid2d1_104",
  "SequenceVariant": "SK_SS",
  "SeriesDescription": "cmrr_mbepi_s6_2mm_66sl_PA_task-prf",
  "SeriesNumber": 8,
  "ShimSetting": [249, -12614, -8470, 335, -60, 1, -170, 15],
  "SliceThickness": 2,
  "SliceTiming": [0, 0.5325, 0.0875, 0.6225, 0.1775, 0.7125, 0.265, 0.8, 0.355, 0.89, 0.445, 0, 0.5325, 0.0875, 0.6225, 0.1775, 0.7125, 0.265, 0.8, 0.355, 0.89, 0.445, 0, 0.5325, 0.0875, 0.6225, 0.1775, 0.7125, 0.265, 0.8, 0.355, 0.89, 0.445, 0, 0.5325, 0.0875, 0.6225, 0.1775, 0.7125, 0.265, 0.8, 0.355, 0.89, 0.445, 0, 0.5325, 0.0875, 0.6225, 0.1775, 0.7125, 0.265, 0.8, 0.355, 0.89, 0.445, 0, 0.5325, 0.0875, 0.6225, 0.1775, 0.7125, 0.265, 0.8, 0.355, 0.89, 0.445],
  "SoftwareVersions": "syngo_MR_E11",
  "SpacingBetweenSlices": 2,
  "StationName": "AWP166018",
  "TaskName": "prf",
  "TotalReadoutTime": 0.060771,
  "TxRefAmp": 220.127,
  "VendorReportedEchoSpacing": 0.00059,
  "WipMemBlock": "06bd8f8f-d9f1-47b1-9ba1-3d34c31d127a||Sequence: R016 ve11c/master r/8780670; Nov 27 2017 15:05:12 by eja",
  "dcmmeta_affine": [
    [-1.9967191219329834, -0.11338188499212265, 0.0160477627068758, 112.6077651977539],
    [-0.11183441430330276, 1.8705328702926636, -0.6989991664886475, -52.648216247558594],
    [-0.024617986753582954, 0.698749840259552, 1.8738043308258057, -79.51685333251953],
    [0.0, 0.0, 0.0, 1.0]
],
  "dcmmeta_reorient_transform": [
    [0.0, -1.0, 0.0, 103.0],
    [1.0, 0.0, 0.0, 0.0],
    [0.0, 0.0, 1.0, 0.0],
    [0.0, 0.0, 0.0, 1.0]
],
  "dcmmeta_shape": [104, 104, 66, 192],
  "dcmmeta_slice_dim": 2,
  "dcmmeta_version": 0.6,
  "global": {
    "const": {
      "AccessionNumber": "kgzydrd5",
      "AcquisitionMatrix": [104, 0, 0, 104],
      "AngioFlag": "N",
      "BitsAllocated": 16,
      "BitsStored": 16,
      "BodyPartExamined": "BRAIN",
      "Columns": 936,
      "EchoNumbers": 1,
      "EchoTime": 37.6,
      "EchoTrainLength": 104,
      "FlipAngle": 68.0,
      "HighBit": 15,
      "ImageOrientationPatient": [0.99835953165049, 0.0559172087559, -0.0123089937674, -0.0566909418883, 0.93526643619879, -0.3493749138502],
      "ImagePositionPatient": [-884.39769588002, -964.68146253941, 293.37539381673],
      "ImageType": [
        "ORIGINAL",
        "PRIMARY",
        "M",
        "MB",
        "ND",
        "MOSAIC"
],
      "ImagedNucleus": "1H",
      "ImagingFrequency": 123.190656,
      "InPlanePhaseEncodingDirection": "COL",
      "MRAcquisitionType": "2D",
      "MagneticFieldStrength": 3.0,
      "Manufacturer": "SIEMENS",
      "ManufacturerModelName": "Prisma",
      "Modality": "MR",
      "NumberOfAverages": 1.0,
      "NumberOfPhaseEncodingSteps": 104,
      "PercentPhaseFieldOfView": 100.0,
      "PercentSampling": 100.0,
      "PerformedProcedureStepStartTime": "144050.199000",
      "PhotometricInterpretation": "MONOCHROME2",
      "PixelBandwidth": 2290.0,
      "PixelRepresentation": 0,
      "PixelSpacing": [2.0, 2.0],
      "ProtocolName": "cmrr_mbepi_s6_2mm_66sl_PA_task-prf",
      "RepetitionTime": 1000.0,
      "Rows": 936,
      "SAR": 0.08042010759944,
      "SamplesPerPixel": 1,
      "ScanOptions": "FS",
      "ScanningSequence": "EP",
      "SequenceName": "epfid2d1_104",
      "SequenceVariant": [
        "SK",
        "SS"
],
      "SeriesDescription": "cmrr_mbepi_s6_2mm_66sl_PA_task-prf",
      "SeriesNumber": 8,
      "SeriesTime": "144725.123000",
      "SliceLocation": -55.195427284566,
      "SliceThickness": 2.0,
      "SmallestImagePixelValue": 0,
      "SoftwareVersions": "syngo MR E11",
      "SpacingBetweenSlices": 1.9999999791008,
      "SpecificCharacterSet": "ISO_IR 100",
      "StudyID": "1",
      "StudyTime": "144050.137000",
      "TransmitCoilName": "Body",
      "VariableFlipAngleFlag": "N",
      "WindowCenterWidthExplanation": "Algo1",
      "dBdt": 0.0},
    "slices": {}
  },
  "time": {
    "samples": {
      "AcquisitionNumber": [1, 2, 3, 4, 5, 6, 7, 8, 9, 10, 11, 12, 13, 14, 15, 16, 17, 18, 19, 20, 21, 22, 23, 24, 25, 26, 27, 28, 29, 30, 31, 32, 33, 34, 35, 36, 37, 38, 39, 40, 41, 42, 43, 44, 45, 46, 47, 48, 49, 50, 51, 52, 53, 54, 55, 56, 57, 58, 59, 60, 61, 62, 63, 64, 65, 66, 67, 68, 69, 70, 71, 72, 73, 74, 75, 76, 77, 78, 79, 80, 81, 82, 83, 84, 85, 86, 87, 88, 89, 90, 91, 92, 93, 94, 95, 96, 97, 98, 99, 100, 101, 102, 103, 104, 105, 106, 107, 108, 109, 110, 111, 112, 113, 114, 115, 116, 117, 118, 119, 120, 121, 122, 123, 124, 125, 126, 127, 128, 129, 130, 131, 132, 133, 134, 135, 136, 137, 138, 139, 140, 141, 142, 143, 144, 145, 146, 147, 148, 149, 150, 151, 152, 153, 154, 155, 156, 157, 158, 159, 160, 161, 162, 163, 164, 165, 166, 167, 168, 169, 170, 171, 172, 173, 174, 175, 176, 177, 178, 179, 180, 181, 182, 183, 184, 185, 186, 187, 188, 189, 190, 191, 192],
      "AcquisitionTime": ["144608.510000", "144609.510000", "144610.510000", "144611.510000", "144612.510000", "144613.510000", "144614.510000", "144615.510000", "144616.510000", "144617.510000", "144618.510000", "144619.510000", "144620.510000", "144621.510000", "144622.510000", "144623.510000", "144624.510000", "144625.510000", "144626.510000", "144627.510000", "144628.510000", "144629.510000", "144630.510000", "144631.510000", "144632.510000", "144633.510000", "144634.510000", "144635.510000", "144636.510000", "144637.510000", "144638.510000", "144639.510000", "144640.510000", "144641.510000", "144642.510000", "144643.510000", "144644.510000", "144645.510000", "144646.510000", "144647.510000", "144648.510000", "144649.510000", "144650.510000", "144651.510000", "144652.510000", "144653.510000", "144654.510000", "144655.510000", "144656.510000", "144657.510000", "144658.510000", "144659.510000", "144700.510000", "144701.510000", "144702.510000", "144703.510000", "144704.510000", "144705.510000", "144706.510000", "144707.510000", "144708.510000", "144709.510000", "144710.510000", "144711.510000", "144712.510000", "144713.510000", "144714.510000", "144715.510000", "144716.510000", "144717.510000", "144718.510000", "144719.510000", "144720.510000", "144721.510000", "144722.510000", "144723.510000", "144724.510000", "144725.510000", "144726.510000", "144727.510000", "144728.510000", "144729.510000", "144730.510000", "144731.510000", "144732.510000", "144733.510000", "144734.510000", "144735.510000", "144736.510000", "144737.510000", "144738.510000", "144739.510000", "144740.510000", "144741.510000", "144742.510000", "144743.510000", "144744.510000", "144745.510000", "144746.510000", "144747.510000", "144748.510000", "144749.510000", "144750.510000", "144751.510000", "144752.510000", "144753.510000", "144754.510000", "144755.510000", "144756.510000", "144757.510000", "144758.510000", "144759.510000", "144800.510000", "144801.510000", "144802.510000", "144803.510000", "144804.510000", "144805.510000", "144806.510000", "144807.510000", "144808.510000", "144809.510000", "144810.510000", "144811.510000", "144812.510000", "144813.510000", "144814.510000", "144815.510000", "144816.510000", "144817.510000", "144818.510000", "144819.510000", "144820.510000", "144821.510000", "144822.510000", "144823.510000", "144824.510000", "144825.510000", "144826.510000", "144827.510000", "144828.510000", "144829.510000", "144830.510000", "144831.510000", "144832.510000", "144833.510000", "144834.510000", "144835.510000", "144836.510000", "144837.510000", "144838.510000", "144839.510000", "144840.510000", "144841.510000", "144842.510000", "144843.510000", "144844.510000", "144845.510000", "144846.510000", "144847.510000", "144848.510000", "144849.510000", "144850.510000", "144851.510000", "144852.510000", "144853.510000", "144854.510000", "144855.510000", "144856.510000", "144857.510000", "144858.510000", "144859.510000", "144900.510000", "144901.510000", "144902.510000", "144903.510000", "144904.510000", "144905.510000", "144906.510000", "144907.510000", "144908.510000", "144909.510000", "144910.510000", "144911.510000", "144912.510000", "144913.510000", "144914.510000", "144915.510000", "144916.510000", "144917.510000", "144918.510000", "144919.510000"],
      "ContentTime": ["144725.126000", "144725.130000", "144725.132000", "144725.135000", "144725.138000", "144725.141000", "144725.144000", "144725.147000", "144725.150000", "144725.153000", "144725.156000", "144725.164000", "144725.167000", "144725.170000", "144725.173000", "144725.176000", "144725.178000", "144725.181000", "144725.184000", "144725.187000", "144725.190000", "144725.193000", "144725.196000", "144725.199000", "144725.202000", "144725.204000", "144725.207000", "144725.210000", "144725.213000", "144725.216000", "144725.219000", "144725.222000", "144725.224000", "144725.227000", "144725.230000", "144725.233000", "144725.241000", "144725.244000", "144745.101000", "144745.104000", "144745.107000", "144745.110000", "144745.113000", "144745.116000", "144745.118000", "144745.121000", "144745.124000", "144745.127000", "144745.130000", "144745.133000", "144745.136000", "144745.138000", "144745.141000", "144745.144000", "144745.147000", "144745.150000", "144745.153000", "144745.156000", "144745.159000", "144745.162000", "144745.164000", "144745.167000", "144745.170000", "144745.173000", "144745.176000", "144745.179000", "144805.101000", "144805.104000", "144805.107000", "144805.110000", "144805.113000", "144805.116000", "144805.120000", "144805.122000", "144805.125000", "144805.128000", "144805.131000", "144805.134000", "144805.137000", "144805.140000", "144805.143000", "144805.146000", "144805.149000", "144805.151000", "144805.155000", "144805.158000", "144805.160000", "144805.163000", "144805.166000", "144805.169000", "144805.172000", "144805.175000", "144805.178000", "144805.180000", "144825.101000", "144825.104000", "144825.107000", "144825.110000", "144825.113000", "144825.115000", "144825.118000", "144825.121000", "144825.124000", "144825.127000", "144825.130000", "144825.133000", "144825.136000", "144825.138000", "144825.156000", "144825.159000", "144825.162000", "144825.165000", "144825.168000", "144825.171000", "144825.173000", "144825.176000", "144825.179000", "144825.182000", "144825.185000", "144825.188000", "144825.191000", "144825.193000", "144825.196000", "144845.102000", "144845.105000", "144845.108000", "144845.111000", "144845.114000", "144845.117000", "144845.119000", "144845.122000", "144845.125000", "144845.128000", "144845.131000", "144845.134000", "144845.137000", "144845.140000", "144845.142000", "144845.145000", "144845.148000", "144845.151000", "144845.170000", "144845.173000", "144845.176000", "144845.178000", "144845.182000", "144845.184000", "144845.187000", "144845.190000", "144845.193000", "144845.196000", "144905.102000", "144905.105000", "144905.108000", "144905.111000", "144905.113000", "144905.116000", "144905.119000", "144905.122000", "144905.125000", "144905.128000", "144905.131000", "144905.134000", "144905.137000", "144905.140000", "144905.142000", "144905.145000", "144905.148000", "144905.151000", "144905.154000", "144905.157000", "144905.160000", "144905.163000", "144905.166000", "144905.168000", "144905.171000", "144920.948000", "144920.952000", "144920.954000", "144920.957000", "144920.960000", "144920.963000", "144920.966000", "144920.969000", "144920.972000", "144920.975000", "144920.978000", "144920.981000", "144920.984000", "144920.987000", "144920.989000", "144920.992000"],
      "InstanceCreationTime": ["144725.126000", "144725.130000", "144725.132000", "144725.135000", "144725.138000", "144725.141000", "144725.144000", "144725.147000", "144725.150000", "144725.153000", "144725.156000", "144725.164000", "144725.167000", "144725.170000", "144725.173000", "144725.176000", "144725.178000", "144725.181000", "144725.184000", "144725.187000", "144725.190000", "144725.193000", "144725.196000", "144725.199000", "144725.202000", "144725.204000", "144725.207000", "144725.210000", "144725.213000", "144725.216000", "144725.219000", "144725.222000", "144725.224000", "144725.227000", "144725.230000", "144725.233000", "144725.241000", "144725.244000", "144745.101000", "144745.104000", "144745.107000", "144745.110000", "144745.113000", "144745.116000", "144745.118000", "144745.121000", "144745.124000", "144745.127000", "144745.130000", "144745.133000", "144745.136000", "144745.138000", "144745.141000", "144745.144000", "144745.147000", "144745.150000", "144745.153000", "144745.156000", "144745.159000", "144745.162000", "144745.164000", "144745.167000", "144745.170000", "144745.173000", "144745.176000", "144745.179000", "144805.101000", "144805.104000", "144805.107000", "144805.110000", "144805.113000", "144805.116000", "144805.120000", "144805.122000", "144805.125000", "144805.128000", "144805.131000", "144805.134000", "144805.137000", "144805.140000", "144805.143000", "144805.146000", "144805.149000", "144805.151000", "144805.155000", "144805.158000", "144805.160000", "144805.163000", "144805.166000", "144805.169000", "144805.172000", "144805.175000", "144805.178000", "144805.180000", "144825.101000", "144825.104000", "144825.107000", "144825.110000", "144825.113000", "144825.115000", "144825.118000", "144825.121000", "144825.124000", "144825.127000", "144825.130000", "144825.133000", "144825.136000", "144825.138000", "144825.156000", "144825.159000", "144825.162000", "144825.165000", "144825.168000", "144825.171000", "144825.173000", "144825.176000", "144825.179000", "144825.182000", "144825.185000", "144825.188000", "144825.191000", "144825.193000", "144825.196000", "144845.102000", "144845.105000", "144845.108000", "144845.111000", "144845.114000", "144845.117000", "144845.119000", "144845.122000", "144845.125000", "144845.128000", "144845.131000", "144845.134000", "144845.137000", "144845.140000", "144845.142000", "144845.145000", "144845.148000", "144845.151000", "144845.170000", "144845.173000", "144845.176000", "144845.178000", "144845.182000", "144845.184000", "144845.187000", "144845.190000", "144845.193000", "144845.196000", "144905.102000", "144905.105000", "144905.108000", "144905.111000", "144905.113000", "144905.116000", "144905.119000", "144905.122000", "144905.125000", "144905.128000", "144905.131000", "144905.134000", "144905.137000", "144905.140000", "144905.142000", "144905.145000", "144905.148000", "144905.151000", "144905.154000", "144905.157000", "144905.160000", "144905.163000", "144905.166000", "144905.168000", "144905.171000", "144920.948000", "144920.952000", "144920.954000", "144920.957000", "144920.960000", "144920.963000", "144920.966000", "144920.969000", "144920.972000", "144920.975000", "144920.978000", "144920.981000", "144920.984000", "144920.987000", "144920.989000", "144920.992000"],
      "InstanceNumber": [1, 2, 3, 4, 5, 6, 7, 8, 9, 10, 11, 12, 13, 14, 15, 16, 17, 18, 19, 20, 21, 22, 23, 24, 25, 26, 27, 28, 29, 30, 31, 32, 33, 34, 35, 36, 37, 38, 39, 40, 41, 42, 43, 44, 45, 46, 47, 48, 49, 50, 51, 52, 53, 54, 55, 56, 57, 58, 59, 60, 61, 62, 63, 64, 65, 66, 67, 68, 69, 70, 71, 72, 73, 74, 75, 76, 77, 78, 79, 80, 81, 82, 83, 84, 85, 86, 87, 88, 89, 90, 91, 92, 93, 94, 95, 96, 97, 98, 99, 100, 101, 102, 103, 104, 105, 106, 107, 108, 109, 110, 111, 112, 113, 114, 115, 116, 117, 118, 119, 120, 121, 122, 123, 124, 125, 126, 127, 128, 129, 130, 131, 132, 133, 134, 135, 136, 137, 138, 139, 140, 141, 142, 143, 144, 145, 146, 147, 148, 149, 150, 151, 152, 153, 154, 155, 156, 157, 158, 159, 160, 161, 162, 163, 164, 165, 166, 167, 168, 169, 170, 171, 172, 173, 174, 175, 176, 177, 178, 179, 180, 181, 182, 183, 184, 185, 186, 187, 188, 189, 190, 191, 192],
      "LargestImagePixelValue": [32488, 31556, 30950, 30796, 30422, 30908, 30313, 30424, 30814, 29998, 30165, 30841, 30270, 30117, 30190, 30277, 30776, 30129, 30628, 30723, 29995, 30171, 30628, 29837, 29909, 30233, 29759, 30048, 30709, 30381, 30273, 30778, 30088, 30004, 30177, 30236, 30149, 30069, 29969, 30552, 30809, 30209, 29829, 30573, 29773, 29844, 30703, 30163, 29884, 30156, 29852, 29823, 30761, 29828, 29918, 30498, 29638, 30057, 30365, 29812, 29842, 30039, 30114, 30437, 30591, 29766, 30184, 29808, 30020, 30459, 30029, 30294, 30208, 30395, 30333, 30421, 30517, 30228, 30504, 30037, 30004, 30393, 29920, 29852, 30145, 30127, 30122, 30125, 30080, 30007, 30135, 30292, 30374, 30185, 30098, 29776, 30182, 29813, 29808, 30126, 29920, 29630, 30184, 29935, 29949, 30211, 29853, 29689, 30352, 30627, 30085, 30383, 29947, 29885, 30323, 29991, 29776, 29841, 30687, 29840, 29793, 30465, 29578, 29743, 29946, 30061, 29735, 29966, 29847, 30350, 30225, 29744, 29543, 30745, 30013, 30136, 30076, 29877, 30005, 29913, 29804, 29688, 30165, 30262, 29743, 29692, 30266, 30149, 29975, 30271, 30199, 29331, 30376, 30163, 29756, 30132, 29820, 29559, 29859, 29874, 29521, 30196, 30120, 29943, 29702, 30047, 29997, 29909, 30059, 29790, 29548, 29983, 29894, 29399, 30492, 29825, 29871, 30944, 30588, 30985, 30895, 30271, 29781, 29736, 30356, 30139, 29769, 30169, 29886, 30170, 29781, 30141],
      "WindowCenter": [9900.0, 9851.0, 9822.0, 9813.0, 9790.0, 9793.0, 9791.0, 9788.0, 9794.0, 9791.0, 9790.0, 9793.0, 9791.0, 9793.0, 9792.0, 9816.0, 9820.0, 9810.0, 9826.0, 9811.0, 9800.0, 9799.0, 9813.0, 9802.0, 9801.0, 9808.0, 9801.0, 9806.0, 9819.0, 9813.0, 9813.0, 9813.0, 9801.0, 9801.0, 9800.0, 9800.0, 9794.0, 9801.0, 9809.0, 9812.0, 9819.0, 9808.0, 9794.0, 9810.0, 9786.0, 9771.0, 9786.0, 9781.0, 9776.0, 9791.0, 9791.0, 9785.0, 9802.0, 9795.0, 9794.0, 9798.0, 9793.0, 9790.0, 9781.0, 9777.0, 9772.0, 9782.0, 9790.0, 9789.0, 9794.0, 9787.0, 9800.0, 9789.0, 9805.0, 9808.0, 9813.0, 9831.0, 9826.0, 9830.0, 9823.0, 9818.0, 9825.0, 9818.0, 9828.0, 9837.0, 9820.0, 9837.0, 9827.0, 9813.0, 9818.0, 9821.0, 9812.0, 9812.0, 9819.0, 9812.0, 9804.0, 9806.0, 9799.0, 9787.0, 9793.0, 9781.0, 9786.0, 9788.0, 9780.0, 9792.0, 9802.0, 9789.0, 9793.0, 9794.0, 9783.0, 9778.0, 9781.0, 9785.0, 9784.0, 9804.0, 9786.0, 9799.0, 9811.0, 9790.0, 9807.0, 9810.0, 9790.0, 9779.0, 9798.0, 9757.0, 9762.0, 9784.0, 9766.0, 9779.0, 9783.0, 9786.0, 9791.0, 9796.0, 9791.0, 9794.0, 9779.0, 9771.0, 9765.0, 9796.0, 9794.0, 9796.0, 9803.0, 9813.0, 9805.0, 9806.0, 9807.0, 9802.0, 9809.0, 9809.0, 9797.0, 9772.0, 9782.0, 9792.0, 9783.0, 9797.0, 9801.0, 9782.0, 9799.0, 9801.0, 9787.0, 9793.0, 9786.0, 9774.0, 9780.0, 9788.0, 9783.0, 9793.0, 9800.0, 9787.0, 9778.0, 9784.0, 9784.0, 9769.0, 9775.0, 9778.0, 9765.0, 9774.0, 9778.0, 9765.0, 9780.0, 9771.0, 9768.0, 9793.0, 9797.0, 9796.0, 9811.0, 9798.0, 9774.0, 9764.0, 9791.0, 9786.0, 9773.0, 9788.0, 9788.0, 9778.0, 9765.0, 9783.0],
      "WindowWidth": [21095.0, 20974.0, 20902.0, 20879.0, 20826.0, 20827.0, 20830.0, 20820.0, 20833.0, 20831.0, 20828.0, 20830.0, 20831.0, 20836.0, 20835.0, 20890.0, 20891.0, 20876.0, 20904.0, 20869.0, 20849.0, 20848.0, 20875.0, 20855.0, 20853.0, 20863.0, 20855.0, 20864.0, 20886.0, 20876.0, 20877.0, 20876.0, 20855.0, 20855.0, 20851.0, 20853.0, 20841.0, 20853.0, 20874.0, 20874.0, 20886.0, 20869.0, 20838.0, 20863.0, 20820.0, 20785.0, 20811.0, 20806.0, 20797.0, 20827.0, 20828.0, 20818.0, 20846.0, 20843.0, 20838.0, 20843.0, 20832.0, 20825.0, 20802.0, 20797.0, 20788.0, 20805.0, 20826.0, 20824.0, 20831.0, 20823.0, 20852.0, 20827.0, 20860.0, 20867.0, 20887.0, 20919.0, 20909.0, 20914.0, 20896.0, 20889.0, 20904.0, 20892.0, 20914.0, 20940.0, 20900.0, 20930.0, 20913.0, 20884.0, 20891.0, 20899.0, 20880.0, 20876.0, 20895.0, 20877.0, 20858.0, 20859.0, 20842.0, 20817.0, 20831.0, 20808.0, 20816.0, 20823.0, 20804.0, 20826.0, 20853.0, 20825.0, 20830.0, 20835.0, 20805.0, 20796.0, 20810.0, 20812.0, 20807.0, 20855.0, 20819.0, 20846.0, 20876.0, 20828.0, 20859.0, 20870.0, 20825.0, 20799.0, 20839.0, 20752.0, 20763.0, 20812.0, 20775.0, 20803.0, 20809.0, 20819.0, 20832.0, 20837.0, 20829.0, 20835.0, 20800.0, 20787.0, 20774.0, 20835.0, 20836.0, 20842.0, 20860.0, 20887.0, 20868.0, 20869.0, 20874.0, 20864.0, 20870.0, 20868.0, 20845.0, 20787.0, 20805.0, 20832.0, 20810.0, 20840.0, 20854.0, 20816.0, 20846.0, 20853.0, 20825.0, 20833.0, 20821.0, 20797.0, 20808.0, 20829.0, 20817.0, 20830.0, 20847.0, 20819.0, 20798.0, 20809.0, 20810.0, 20778.0, 20791.0, 20802.0, 20771.0, 20785.0, 20798.0, 20771.0, 20795.0, 20782.0, 20775.0, 20823.0, 20838.0, 20834.0, 20863.0, 20838.0, 20790.0, 20769.0, 20824.0, 20816.0, 20790.0, 20820.0, 20821.0, 20795.0, 20770.0, 20804.0]
    },
    "slices": {}
  },
  "NumberOfVolumes": 192
}