{
  "AcquisitionMatrixPE": 104,
  "AcquisitionNumber": 1,
  "AcquisitionTime": "15:16:42.502500",
  "BandwidthPerPixelPhaseEncode": 16.297,
  "BaseResolution": 104,
  "BodyPartExamined": "BRAIN",
  "ConsistencyInfo": "N4_VE11C_LATEST_20160120",
  "ConversionSoftware": "dcm2niix",
  "ConversionSoftwareVersion": "v1.0.20190902",
  "DerivedVendorReportedEchoSpacing": 0.000590009,
  "DeviceSerialNumber": "166018",
  "DwellTime": 2.1e-06,
  "EchoTime": 0.0376,
  "EchoTrainLength": 104,
  "EffectiveEchoSpacing": 0.000590009,
  "FlipAngle": 68,
  "ImageComments": "Unaliased_MB6_PE3_LB",
  "ImageOrientationPatientDICOM": [0.99836, 0.0559172, -0.012309, -0.0566909, 0.935266, -0.349375],
  "ImageType": [
    "ORIGINAL",
    "PRIMARY",
    "M",
    "MB",
    "ND",
    "MOSAIC"
],
  "ImagingFrequency": 123.191,
  "InPlanePhaseEncodingDirectionDICOM": "COL",
  "InstitutionAddress": "Washington_Place_6_NYC_NYC_US_10003",
  "InstitutionName": "NYU_-_CBI",
  "InstitutionalDepartmentName": "Department",
  "MRAcquisitionType": "2D",
  "MagneticFieldStrength": 3,
  "Manufacturer": "Siemens",
  "ManufacturersModelName": "Prisma",
  "Modality": "MR",
  "MultibandAccelerationFactor": 6,
  "PartialFourier": 1,
  "PatientPosition": "HFS",
  "PercentPhaseFOV": 100,
  "PhaseEncodingDirection": "j",
  "PhaseEncodingSteps": 104,
  "PhaseResolution": 1,
  "PixelBandwidth": 2290,
  "ProcedureStepDescription": "Investigators_Winawer",
  "ProtocolName": "cmrr_mbepi_s6_2mm_66sl_PA_task-prf",
  "PulseSequenceDetails": "%CustomerSeq%_cmrr_mbep2d_bold",
  "ReceiveCoilActiveElements": "HC1-7",
  "ReceiveCoilName": "HeadNeck_64",
  "ReconMatrixPE": 104,
  "RepetitionTime": 1,
  "SAR": 0.0804201,
  "ScanOptions": "FS",
  "ScanningSequence": "EP",
  "SequenceName": "epfid2d1_104",
  "SequenceVariant": "SK_SS",
  "SeriesDescription": "cmrr_mbepi_s6_2mm_66sl_PA_task-prf",
  "SeriesNumber": 22,
  "ShimSetting": [249, -12614, -8470, 335, -60, 1, -170, 15],
  "SliceThickness": 2,
  "SliceTiming": [0, 0.535, 0.09, 0.625, 0.18, 0.7125, 0.2675, 0.8025, 0.3575, 0.8925, 0.4475, 0, 0.535, 0.09, 0.625, 0.18, 0.7125, 0.2675, 0.8025, 0.3575, 0.8925, 0.4475, 0, 0.535, 0.09, 0.625, 0.18, 0.7125, 0.2675, 0.8025, 0.3575, 0.8925, 0.4475, 0, 0.535, 0.09, 0.625, 0.18, 0.7125, 0.2675, 0.8025, 0.3575, 0.8925, 0.4475, 0, 0.535, 0.09, 0.625, 0.18, 0.7125, 0.2675, 0.8025, 0.3575, 0.8925, 0.4475, 0, 0.535, 0.09, 0.625, 0.18, 0.7125, 0.2675, 0.8025, 0.3575, 0.8925, 0.4475],
  "SoftwareVersions": "syngo_MR_E11",
  "SpacingBetweenSlices": 2,
  "StationName": "AWP166018",
  "TaskName": "prf",
  "TotalReadoutTime": 0.060771,
  "TxRefAmp": 220.127,
  "VendorReportedEchoSpacing": 0.00059,
  "WipMemBlock": "06bd8f8f-d9f1-47b1-9ba1-3d34c31d127a||Sequence: R016 ve11c/master r/8780670; Nov 27 2017 15:05:12 by eja",
  "dcmmeta_affine": [
    [-1.9967191219329834, -0.11338188499212265, 0.0160477627068758, 112.6077651977539],
    [-0.11183441430330276, 1.8705328702926636, -0.6989991664886475, -52.648216247558594],
    [-0.024617986753582954, 0.698749840259552, 1.8738043308258057, -79.51685333251953],
    [0.0, 0.0, 0.0, 1.0]
],
  "dcmmeta_reorient_transform": [
    [0.0, -1.0, 0.0, 103.0],
    [1.0, 0.0, 0.0, 0.0],
    [0.0, 0.0, 1.0, 0.0],
    [0.0, 0.0, 0.0, 1.0]
],
  "dcmmeta_shape": [104, 104, 66, 192],
  "dcmmeta_slice_dim": 2,
  "dcmmeta_version": 0.6,
  "global": {
    "const": {
      "AccessionNumber": "kgzydrd5",
      "AcquisitionMatrix": [104, 0, 0, 104],
      "AngioFlag": "N",
      "BitsAllocated": 16,
      "BitsStored": 16,
      "BodyPartExamined": "BRAIN",
      "Columns": 936,
      "EchoNumbers": 1,
      "EchoTime": 37.6,
      "EchoTrainLength": 104,
      "FlipAngle": 68.0,
      "HighBit": 15,
      "ImageOrientationPatient": [0.99835953165049, 0.0559172087559, -0.0123089937674, -0.0566909418883, 0.93526643619879, -0.3493749138502],
      "ImagePositionPatient": [-884.39769588002, -964.68146253941, 293.37539381673],
      "ImageType": [
        "ORIGINAL",
        "PRIMARY",
        "M",
        "MB",
        "ND",
        "MOSAIC"
],
      "ImagedNucleus": "1H",
      "ImagingFrequency": 123.190656,
      "InPlanePhaseEncodingDirection": "COL",
      "MRAcquisitionType": "2D",
      "MagneticFieldStrength": 3.0,
      "Manufacturer": "SIEMENS",
      "ManufacturerModelName": "Prisma",
      "Modality": "MR",
      "NumberOfAverages": 1.0,
      "NumberOfPhaseEncodingSteps": 104,
      "PercentPhaseFieldOfView": 100.0,
      "PercentSampling": 100.0,
      "PerformedProcedureStepStartTime": "144050.199000",
      "PhotometricInterpretation": "MONOCHROME2",
      "PixelBandwidth": 2290.0,
      "PixelRepresentation": 0,
      "PixelSpacing": [2.0, 2.0],
      "ProtocolName": "cmrr_mbepi_s6_2mm_66sl_PA_task-prf",
      "RepetitionTime": 1000.0,
      "Rows": 936,
      "SAR": 0.08042010759944,
      "SamplesPerPixel": 1,
      "ScanOptions": "FS",
      "ScanningSequence": "EP",
      "SequenceName": "epfid2d1_104",
      "SequenceVariant": [
        "SK",
        "SS"
],
      "SeriesDescription": "cmrr_mbepi_s6_2mm_66sl_PA_task-prf",
      "SeriesNumber": 22,
      "SeriesTime": "151745.210000",
      "SliceLocation": -55.195427284566,
      "SliceThickness": 2.0,
      "SmallestImagePixelValue": 0,
      "SoftwareVersions": "syngo MR E11",
      "SpacingBetweenSlices": 1.9999999791008,
      "SpecificCharacterSet": "ISO_IR 100",
      "StudyID": "1",
      "StudyTime": "144050.137000",
      "TransmitCoilName": "Body",
      "VariableFlipAngleFlag": "N",
      "WindowCenterWidthExplanation": "Algo1",
      "dBdt": 0.0},
    "slices": {}
  },
  "time": {
    "samples": {
      "AcquisitionNumber": [1, 2, 3, 4, 5, 6, 7, 8, 9, 10, 11, 12, 13, 14, 15, 16, 17, 18, 19, 20, 21, 22, 23, 24, 25, 26, 27, 28, 29, 30, 31, 32, 33, 34, 35, 36, 37, 38, 39, 40, 41, 42, 43, 44, 45, 46, 47, 48, 49, 50, 51, 52, 53, 54, 55, 56, 57, 58, 59, 60, 61, 62, 63, 64, 65, 66, 67, 68, 69, 70, 71, 72, 73, 74, 75, 76, 77, 78, 79, 80, 81, 82, 83, 84, 85, 86, 87, 88, 89, 90, 91, 92, 93, 94, 95, 96, 97, 98, 99, 100, 101, 102, 103, 104, 105, 106, 107, 108, 109, 110, 111, 112, 113, 114, 115, 116, 117, 118, 119, 120, 121, 122, 123, 124, 125, 126, 127, 128, 129, 130, 131, 132, 133, 134, 135, 136, 137, 138, 139, 140, 141, 142, 143, 144, 145, 146, 147, 148, 149, 150, 151, 152, 153, 154, 155, 156, 157, 158, 159, 160, 161, 162, 163, 164, 165, 166, 167, 168, 169, 170, 171, 172, 173, 174, 175, 176, 177, 178, 179, 180, 181, 182, 183, 184, 185, 186, 187, 188, 189, 190, 191, 192],
      "AcquisitionTime": ["151642.502500", "151643.502500", "151644.502500", "151645.502500", "151646.502500", "151647.502500", "151648.502500", "151649.502500", "151650.502500", "151651.502500", "151652.502500", "151653.502500", "151654.502500", "151655.502500", "151656.502500", "151657.502500", "151658.502500", "151659.502500", "151700.502500", "151701.502500", "151702.502500", "151703.502500", "151704.502500", "151705.502500", "151706.502500", "151707.502500", "151708.502500", "151709.502500", "151710.502500", "151711.502500", "151712.502500", "151713.502500", "151714.502500", "151715.502500", "151716.502500", "151717.502500", "151718.502500", "151719.502500", "151720.502500", "151721.502500", "151722.502500", "151723.502500", "151724.502500", "151725.502500", "151726.502500", "151727.502500", "151728.502500", "151729.502500", "151730.502500", "151731.502500", "151732.502500", "151733.502500", "151734.502500", "151735.502500", "151736.502500", "151737.502500", "151738.502500", "151739.502500", "151740.502500", "151741.502500", "151742.502500", "151743.502500", "151744.502500", "151745.502500", "151746.502500", "151747.502500", "151748.502500", "151749.502500", "151750.502500", "151751.502500", "151752.502500", "151753.502500", "151754.502500", "151755.502500", "151756.502500", "151757.502500", "151758.502500", "151759.502500", "151800.502500", "151801.502500", "151802.502500", "151803.502500", "151804.502500", "151805.502500", "151806.502500", "151807.502500", "151808.502500", "151809.502500", "151810.502500", "151811.502500", "151812.502500", "151813.502500", "151814.502500", "151815.502500", "151816.502500", "151817.502500", "151818.502500", "151819.502500", "151820.502500", "151821.502500", "151822.502500", "151823.502500", "151824.502500", "151825.502500", "151826.502500", "151827.502500", "151828.502500", "151829.502500", "151830.502500", "151831.502500", "151832.502500", "151833.502500", "151834.502500", "151835.502500", "151836.502500", "151837.502500", "151838.502500", "151839.502500", "151840.502500", "151841.502500", "151842.502500", "151843.502500", "151844.502500", "151845.502500", "151846.502500", "151847.502500", "151848.502500", "151849.502500", "151850.502500", "151851.502500", "151852.502500", "151853.502500", "151854.502500", "151855.502500", "151856.502500", "151857.502500", "151858.502500", "151859.502500", "151900.502500", "151901.502500", "151902.502500", "151903.502500", "151904.502500", "151905.502500", "151906.502500", "151907.502500", "151908.502500", "151909.502500", "151910.502500", "151911.502500", "151912.502500", "151913.502500", "151914.502500", "151915.502500", "151916.502500", "151917.502500", "151918.502500", "151919.502500", "151920.502500", "151921.502500", "151922.502500", "151923.502500", "151924.502500", "151925.502500", "151926.502500", "151927.502500", "151928.502500", "151929.502500", "151930.502500", "151931.502500", "151932.502500", "151933.502500", "151934.502500", "151935.502500", "151936.502500", "151937.502500", "151938.502500", "151939.502500", "151940.502500", "151941.502500", "151942.502500", "151943.502500", "151944.502500", "151945.502500", "151946.502500", "151947.502500", "151948.502500", "151949.502500", "151950.502500", "151951.502500", "151952.502500", "151953.502500"],
      "ContentTime": ["151745.212000", "151745.215000", "151745.218000", "151745.229000", "151745.232000", "151745.235000", "151745.238000", "151745.246000", "151745.249000", "151745.252000", "151745.260000", "151745.262000", "151745.265000", "151745.268000", "151745.271000", "151745.274000", "151745.277000", "151745.280000", "151745.283000", "151805.171000", "151805.174000", "151805.177000", "151805.180000", "151805.183000", "151805.185000", "151805.188000", "151805.191000", "151805.194000", "151805.197000", "151805.200000", "151805.203000", "151805.206000", "151805.209000", "151805.218000", "151805.221000", "151805.224000", "151805.227000", "151805.230000", "151805.233000", "151805.236000", "151805.239000", "151805.242000", "151805.245000", "151805.248000", "151805.251000", "151805.254000", "151805.257000", "151805.260000", "151825.171000", "151825.174000", "151825.177000", "151825.180000", "151825.183000", "151825.186000", "151825.189000", "151825.191000", "151825.194000", "151825.197000", "151825.200000", "151825.203000", "151825.206000", "151825.209000", "151825.212000", "151825.214000", "151825.217000", "151825.220000", "151825.223000", "151825.226000", "151825.229000", "151825.232000", "151825.235000", "151825.238000", "151825.240000", "151825.243000", "151825.246000", "151825.249000", "151845.172000", "151845.175000", "151845.178000", "151845.181000", "151845.184000", "151845.186000", "151845.189000", "151845.192000", "151845.195000", "151845.198000", "151845.201000", "151845.204000", "151845.207000", "151845.209000", "151845.212000", "151845.215000", "151845.218000", "151845.221000", "151845.224000", "151845.227000", "151845.230000", "151845.233000", "151845.235000", "151845.238000", "151845.241000", "151845.244000", "151845.247000", "151845.250000", "151905.172000", "151905.175000", "151905.178000", "151905.181000", "151905.184000", "151905.186000", "151905.189000", "151905.192000", "151905.195000", "151905.198000", "151905.201000", "151905.204000", "151905.207000", "151905.209000", "151905.212000", "151905.215000", "151905.218000", "151905.221000", "151905.224000", "151905.227000", "151905.230000", "151905.233000", "151905.235000", "151905.238000", "151905.241000", "151905.250000", "151905.252000", "151905.255000", "151905.258000", "151925.172000", "151925.175000", "151925.178000", "151925.181000", "151925.184000", "151925.187000", "151925.189000", "151925.192000", "151925.195000", "151925.198000", "151925.201000", "151925.204000", "151925.207000", "151925.210000", "151925.213000", "151925.216000", "151925.218000", "151925.221000", "151925.224000", "151925.227000", "151925.230000", "151925.233000", "151925.236000", "151925.239000", "151925.242000", "151925.245000", "151925.247000", "151925.250000", "151945.171000", "151945.174000", "151945.177000", "151945.180000", "151945.183000", "151945.186000", "151945.188000", "151945.191000", "151945.194000", "151945.197000", "151945.200000", "151945.203000", "151945.206000", "151945.209000", "151945.212000", "151945.214000", "151945.217000", "151945.220000", "151945.223000", "151945.226000", "151945.229000", "151955.111000", "151955.115000", "151955.118000", "151955.123000", "151955.127000", "151955.130000", "151955.134000", "151955.137000", "151955.140000", "151955.143000"],
      "InstanceCreationTime": ["151745.212000", "151745.215000", "151745.218000", "151745.229000", "151745.232000", "151745.235000", "151745.238000", "151745.246000", "151745.249000", "151745.252000", "151745.260000", "151745.262000", "151745.265000", "151745.268000", "151745.271000", "151745.274000", "151745.277000", "151745.280000", "151745.283000", "151805.171000", "151805.174000", "151805.177000", "151805.180000", "151805.183000", "151805.185000", "151805.188000", "151805.191000", "151805.194000", "151805.197000", "151805.200000", "151805.203000", "151805.206000", "151805.209000", "151805.218000", "151805.221000", "151805.224000", "151805.227000", "151805.230000", "151805.233000", "151805.236000", "151805.239000", "151805.242000", "151805.245000", "151805.248000", "151805.251000", "151805.254000", "151805.257000", "151805.260000", "151825.171000", "151825.174000", "151825.177000", "151825.180000", "151825.183000", "151825.186000", "151825.189000", "151825.191000", "151825.194000", "151825.197000", "151825.200000", "151825.203000", "151825.206000", "151825.209000", "151825.212000", "151825.214000", "151825.217000", "151825.220000", "151825.223000", "151825.226000", "151825.229000", "151825.232000", "151825.235000", "151825.238000", "151825.240000", "151825.243000", "151825.246000", "151825.249000", "151845.172000", "151845.175000", "151845.178000", "151845.181000", "151845.184000", "151845.186000", "151845.189000", "151845.192000", "151845.195000", "151845.198000", "151845.201000", "151845.204000", "151845.207000", "151845.209000", "151845.212000", "151845.215000", "151845.218000", "151845.221000", "151845.224000", "151845.227000", "151845.230000", "151845.233000", "151845.235000", "151845.238000", "151845.241000", "151845.244000", "151845.247000", "151845.250000", "151905.172000", "151905.175000", "151905.178000", "151905.181000", "151905.184000", "151905.186000", "151905.189000", "151905.192000", "151905.195000", "151905.198000", "151905.201000", "151905.204000", "151905.207000", "151905.209000", "151905.212000", "151905.215000", "151905.218000", "151905.221000", "151905.224000", "151905.227000", "151905.230000", "151905.233000", "151905.235000", "151905.238000", "151905.241000", "151905.250000", "151905.252000", "151905.255000", "151905.258000", "151925.172000", "151925.175000", "151925.178000", "151925.181000", "151925.184000", "151925.187000", "151925.189000", "151925.192000", "151925.195000", "151925.198000", "151925.201000", "151925.204000", "151925.207000", "151925.210000", "151925.213000", "151925.216000", "151925.218000", "151925.221000", "151925.224000", "151925.227000", "151925.230000", "151925.233000", "151925.236000", "151925.239000", "151925.242000", "151925.245000", "151925.247000", "151925.250000", "151945.171000", "151945.174000", "151945.177000", "151945.180000", "151945.183000", "151945.186000", "151945.188000", "151945.191000", "151945.194000", "151945.197000", "151945.200000", "151945.203000", "151945.206000", "151945.209000", "151945.212000", "151945.214000", "151945.217000", "151945.220000", "151945.223000", "151945.226000", "151945.229000", "151955.111000", "151955.115000", "151955.118000", "151955.123000", "151955.127000", "151955.130000", "151955.134000", "151955.137000", "151955.140000", "151955.143000"],
      "InstanceNumber": [1, 2, 3, 4, 5, 6, 7, 8, 9, 10, 11, 12, 13, 14, 15, 16, 17, 18, 19, 20, 21, 22, 23, 24, 25, 26, 27, 28, 29, 30, 31, 32, 33, 34, 35, 36, 37, 38, 39, 40, 41, 42, 43, 44, 45, 46, 47, 48, 49, 50, 51, 52, 53, 54, 55, 56, 57, 58, 59, 60, 61, 62, 63, 64, 65, 66, 67, 68, 69, 70, 71, 72, 73, 74, 75, 76, 77, 78, 79, 80, 81, 82, 83, 84, 85, 86, 87, 88, 89, 90, 91, 92, 93, 94, 95, 96, 97, 98, 99, 100, 101, 102, 103, 104, 105, 106, 107, 108, 109, 110, 111, 112, 113, 114, 115, 116, 117, 118, 119, 120, 121, 122, 123, 124, 125, 126, 127, 128, 129, 130, 131, 132, 133, 134, 135, 136, 137, 138, 139, 140, 141, 142, 143, 144, 145, 146, 147, 148, 149, 150, 151, 152, 153, 154, 155, 156, 157, 158, 159, 160, 161, 162, 163, 164, 165, 166, 167, 168, 169, 170, 171, 172, 173, 174, 175, 176, 177, 178, 179, 180, 181, 182, 183, 184, 185, 186, 187, 188, 189, 190, 191, 192],
      "LargestImagePixelValue": [32184, 32055, 31803, 32020, 32008, 32117, 31503, 32130, 32726, 32882, 32549, 33362, 32971, 33136, 33071, 32747, 32797, 32685, 32799, 32955, 32833, 32741, 32848, 33346, 33024, 32979, 33402, 32489, 33449, 33320, 33630, 33087, 32997, 33222, 33245, 33507, 33474, 33192, 33332, 33121, 33213, 32789, 31942, 32728, 33271, 33237, 32981, 32719, 33068, 33118, 32905, 33343, 30452, 29987, 29611, 30316, 30011, 29687, 30497, 30468, 30463, 31274, 31475, 30778, 30161, 31110, 30378, 30456, 30945, 31431, 31237, 30910, 31428, 31014, 31498, 31129, 31516, 30724, 31938, 31750, 30765, 31223, 31541, 31808, 31924, 31362, 31728, 32203, 32723, 32353, 32666, 32365, 32215, 32500, 33204, 32681, 31787, 32056, 31310, 31136, 32141, 31725, 31348, 32237, 30072, 30137, 31136, 31134, 30694, 31760, 32351, 31923, 32801, 32863, 32277, 32600, 32470, 32280, 32842, 33026, 33005, 32823, 33155, 32678, 32315, 32817, 32501, 32570, 32342, 33157, 32405, 32747, 33170, 32050, 32333, 32763, 32676, 32607, 33146, 32968, 32173, 32899, 33283, 32834, 33098, 32913, 31947, 30162, 30783, 30651, 31147, 31269, 31136, 32382, 31743, 31715, 32195, 32503, 31984, 32358, 31989, 32858, 31519, 32470, 32343, 32503, 33002, 32542, 32602, 32705, 32416, 32802, 32314, 32765, 33253, 32889, 32282, 33254, 33132, 32251, 33175, 33394, 32606, 32644, 33923, 33664, 32554, 33751, 33648, 33402, 33780, 33303],
      "WindowCenter": [9764.0, 9743.0, 9728.0, 9725.0, 9723.0, 9717.0, 9706.0, 9713.0, 9728.0, 9731.0, 9730.0, 9730.0, 9724.0, 9723.0, 9708.0, 9694.0, 9702.0, 9707.0, 9715.0, 9725.0, 9739.0, 9726.0, 9726.0, 9732.0, 9725.0, 9724.0, 9730.0, 9740.0, 9741.0, 9745.0, 9752.0, 9740.0, 9733.0, 9732.0, 9731.0, 9735.0, 9744.0, 9747.0, 9747.0, 9739.0, 9733.0, 9728.0, 9705.0, 9726.0, 9729.0, 9728.0, 9723.0, 9725.0, 9738.0, 9729.0, 9731.0, 9732.0, 9703.0, 9682.0, 9656.0, 9687.0, 9673.0, 9659.0, 9652.0, 9654.0, 9661.0, 9685.0, 9688.0, 9689.0, 9675.0, 9676.0, 9657.0, 9641.0, 9651.0, 9661.0, 9683.0, 9695.0, 9716.0, 9714.0, 9712.0, 9689.0, 9693.0, 9676.0, 9696.0, 9693.0, 9690.0, 9702.0, 9717.0, 9718.0, 9723.0, 9705.0, 9710.0, 9722.0, 9721.0, 9722.0, 9727.0, 9715.0, 9715.0, 9727.0, 9748.0, 9744.0, 9736.0, 9731.0, 9728.0, 9722.0, 9740.0, 9736.0, 9721.0, 9731.0, 9706.0, 9694.0, 9714.0, 9723.0, 9717.0, 9719.0, 9724.0, 9700.0, 9709.0, 9717.0, 9714.0, 9716.0, 9713.0, 9723.0, 9733.0, 9735.0, 9734.0, 9726.0, 9731.0, 9719.0, 9712.0, 9724.0, 9717.0, 9726.0, 9726.0, 9746.0, 9728.0, 9717.0, 9721.0, 9705.0, 9709.0, 9716.0, 9718.0, 9718.0, 9715.0, 9715.0, 9712.0, 9715.0, 9724.0, 9725.0, 9706.0, 9711.0, 9699.0, 9643.0, 9642.0, 9662.0, 9661.0, 9673.0, 9669.0, 9694.0, 9688.0, 9684.0, 9702.0, 9718.0, 9714.0, 9720.0, 9722.0, 9742.0, 9727.0, 9728.0, 9731.0, 9735.0, 9734.0, 9715.0, 9714.0, 9705.0, 9707.0, 9725.0, 9712.0, 9738.0, 9758.0, 9753.0, 9755.0, 9770.0, 9763.0, 9755.0, 9760.0, 9765.0, 9753.0, 9757.0, 9786.0, 9778.0, 9766.0, 9781.0, 9773.0, 9769.0, 9780.0, 9765.0],
      "WindowWidth": [20777.0, 20711.0, 20673.0, 20661.0, 20656.0, 20643.0, 20624.0, 20630.0, 20662.0, 20665.0, 20665.0, 20656.0, 20643.0, 20642.0, 20606.0, 20580.0, 20598.0, 20611.0, 20628.0, 20649.0, 20682.0, 20655.0, 20653.0, 20664.0, 20650.0, 20647.0, 20659.0, 20689.0, 20684.0, 20694.0, 20709.0, 20686.0, 20670.0, 20669.0, 20667.0, 20671.0, 20692.0, 20702.0, 20704.0, 20682.0, 20668.0, 20661.0, 20611.0, 20653.0, 20658.0, 20655.0, 20646.0, 20650.0, 20677.0, 20658.0, 20663.0, 20665.0, 20623.0, 20575.0, 20513.0, 20574.0, 20540.0, 20515.0, 20497.0, 20503.0, 20520.0, 20564.0, 20570.0, 20581.0, 20552.0, 20546.0, 20506.0, 20475.0, 20491.0, 20516.0, 20566.0, 20595.0, 20641.0, 20638.0, 20631.0, 20579.0, 20583.0, 20554.0, 20589.0, 20586.0, 20587.0, 20610.0, 20639.0, 20642.0, 20649.0, 20615.0, 20623.0, 20644.0, 20642.0, 20645.0, 20651.0, 20627.0, 20628.0, 20654.0, 20695.0, 20693.0, 20685.0, 20665.0, 20664.0, 20651.0, 20686.0, 20682.0, 20648.0, 20667.0, 20630.0, 20600.0, 20635.0, 20655.0, 20643.0, 20639.0, 20648.0, 20594.0, 20610.0, 20629.0, 20627.0, 20628.0, 20623.0, 20649.0, 20664.0, 20670.0, 20670.0, 20650.0, 20657.0, 20634.0, 20622.0, 20644.0, 20631.0, 20655.0, 20653.0, 20690.0, 20657.0, 20628.0, 20635.0, 20608.0, 20615.0, 20627.0, 20635.0, 20634.0, 20622.0, 20623.0, 20624.0, 20626.0, 20646.0, 20646.0, 20604.0, 20615.0, 20600.0, 20483.0, 20470.0, 20515.0, 20512.0, 20535.0, 20532.0, 20581.0, 20572.0, 20567.0, 20602.0, 20635.0, 20633.0, 20643.0, 20650.0, 20687.0, 20666.0, 20655.0, 20662.0, 20672.0, 20665.0, 20623.0, 20623.0, 20600.0, 20609.0, 20646.0, 20621.0, 20678.0, 20717.0, 20708.0, 20721.0, 20747.0, 20732.0, 20719.0, 20725.0, 20735.0, 20712.0, 20724.0, 20782.0, 20762.0, 20745.0, 20770.0, 20750.0, 20742.0, 20762.0, 20734.0]
    },
    "slices": {}
  },
  "NumberOfVolumes": 192
}