{
  "AcquisitionMatrixPE": 104,
  "AcquisitionNumber": 1,
  "AcquisitionTime": "13:24:6.307500",
  "BandwidthPerPixelPhaseEncode": 16.297,
  "BaseResolution": 104,
  "BodyPartExamined": "BRAIN",
  "ConsistencyInfo": "N4_VE11C_LATEST_20160120",
  "ConversionSoftware": "dcm2niix",
  "ConversionSoftwareVersion": "v1.0.20210317",
  "DerivedVendorReportedEchoSpacing": 0.000590009,
  "DeviceSerialNumber": "166018",
  "DwellTime": 2.1e-06,
  "EchoTime": 0.0376,
  "EchoTrainLength": 104,
  "EffectiveEchoSpacing": 0.000590009,
  "FlipAngle": 68,
  "ImageComments": "Unaliased MB6/PE3/LB",
  "ImageOrientationPatientDICOM": [0.994543, -0.0373522, 0.0974072, 0.0458577, 0.995188, -0.0865958],
  "ImageType": [
    "ORIGINAL",
    "PRIMARY",
    "M",
    "MB",
    "ND",
    "MOSAIC"
],
  "ImagingFrequency": 123.197,
  "InPlanePhaseEncodingDirectionDICOM": "COL",
  "InstitutionAddress": "Washington Place 6,NYC,NYC,US,10003",
  "InstitutionName": "NYU - CBI",
  "InstitutionalDepartmentName": "Department",
  "MRAcquisitionType": "2D",
  "MagneticFieldStrength": 3,
  "Manufacturer": "Siemens",
  "ManufacturersModelName": "Prisma",
  "Modality": "MR",
  "MultibandAccelerationFactor": 6,
  "PartialFourier": 1,
  "PatientPosition": "HFS",
  "PercentPhaseFOV": 100,
  "PercentSampling": 100,
  "PhaseEncodingDirection": "j",
  "PhaseEncodingSteps": 104,
  "PhaseResolution": 1,
  "PixelBandwidth": 2290,
  "ProcedureStepDescription": "Investigators^Winawer",
  "ProtocolName": "cmrr_mbepi_s6_2mm_66sl_PA_task-bar3",
  "PulseSequenceDetails": "%CustomerSeq%\\cmrr_mbep2d_bold",
  "ReceiveCoilActiveElements": "HC1-7",
  "ReceiveCoilName": "HeadNeck_64",
  "ReconMatrixPE": 104,
  "RepetitionTime": 1,
  "SAR": 0.0683485,
  "ScanOptions": "FS",
  "ScanningSequence": "EP",
  "SequenceName": "epfid2d1_104",
  "SequenceVariant": "SK\\SS",
  "SeriesDescription": "cmrr_mbepi_s6_2mm_66sl_PA_task-bar3",
  "SeriesNumber": 16,
  "ShimSetting": [298, -12686, -8446, 311, -75, -336, -18, 42],
  "SliceThickness": 2,
  "SliceTiming": [0, 0.535, 0.09, 0.625, 0.18, 0.7125, 0.2675, 0.8025, 0.3575, 0.8925, 0.445, 0, 0.535, 0.09, 0.625, 0.18, 0.7125, 0.2675, 0.8025, 0.3575, 0.8925, 0.445, 0, 0.535, 0.09, 0.625, 0.18, 0.7125, 0.2675, 0.8025, 0.3575, 0.8925, 0.445, 0, 0.535, 0.09, 0.625, 0.18, 0.7125, 0.2675, 0.8025, 0.3575, 0.8925, 0.445, 0, 0.535, 0.09, 0.625, 0.18, 0.7125, 0.2675, 0.8025, 0.3575, 0.8925, 0.445, 0, 0.535, 0.09, 0.625, 0.18, 0.7125, 0.2675, 0.8025, 0.3575, 0.8925, 0.445],
  "SoftwareVersions": "syngo MR E11",
  "SpacingBetweenSlices": 2,
  "StationName": "AWP166018",
  "TaskName": "bar3",
  "TotalReadoutTime": 0.060771,
  "TxRefAmp": 222.56,
  "VendorReportedEchoSpacing": 0.00059,
  "WipMemBlock": "f7dd44b0-910a-457a-b797-bfc0114187f3||Sequence: R016 ve11c/master r/8780670; Nov 27 2017 15:05:12 by eja",
  "dcmmeta_affine": [
    [-1.9890868663787842, 0.09171538800001144, 0.18740777671337128, 101.63523864746094],
    [0.07470433413982391, 1.99037504196167, -0.18118035793304443, -63.784366607666016],
    [0.19481438398361206, 0.173191636800766, 1.9829403162002563, -60.50223159790039],
    [0.0, 0.0, 0.0, 1.0]
],
  "dcmmeta_reorient_transform": [
    [0.0, -1.0, 0.0, 103.0],
    [1.0, 0.0, 0.0, 0.0],
    [0.0, 0.0, 1.0, 0.0],
    [0.0, 0.0, 0.0, 1.0]
],
  "dcmmeta_shape": [104, 104, 66, 300],
  "dcmmeta_slice_dim": 2,
  "dcmmeta_version": 0.6,
  "global": {
    "const": {
      "AccessionNumber": "Leyktwnq",
      "AcquisitionMatrix": [104, 0, 0, 104],
      "AngioFlag": "N",
      "BitsAllocated": 16,
      "BitsStored": 16,
      "BodyPartExamined": "BRAIN",
      "Columns": 936,
      "EchoNumbers": 1,
      "EchoTime": 37.6,
      "EchoTrainLength": 104,
      "FlipAngle": 68.0,
      "HighBit": 15,
      "ImageOrientationPatient": [0.99454343995412, -0.037352166871, 0.09740719518737, 0.04585769236743, 0.99518753794093, -0.086595821942],
      "ImagePositionPatient": [-976.69566548423, -938.14329376551, -51.658553634027],
      "ImageType": [
        "ORIGINAL",
        "PRIMARY",
        "M",
        "MB",
        "ND",
        "MOSAIC"
],
      "ImagedNucleus": "1H",
      "ImagingFrequency": 123.196776,
      "InPlanePhaseEncodingDirection": "COL",
      "MRAcquisitionType": "2D",
      "MagneticFieldStrength": 3.0,
      "Manufacturer": "SIEMENS",
      "ManufacturerModelName": "Prisma",
      "Modality": "MR",
      "NumberOfAverages": 1.0,
      "NumberOfPhaseEncodingSteps": 104,
      "PercentPhaseFieldOfView": 100.0,
      "PercentSampling": 100.0,
      "PerformedProcedureStepStartTime": "124856.385000",
      "PhotometricInterpretation": "MONOCHROME2",
      "PixelBandwidth": 2290.0,
      "PixelRepresentation": 0,
      "PixelSpacing": [2.0, 2.0],
      "ProtocolName": "cmrr_mbepi_s6_2mm_66sl_PA_task-bar3",
      "RepetitionTime": 1000.0,
      "Rows": 936,
      "SAR": 0.06834849589703,
      "SamplesPerPixel": 1,
      "ScanOptions": "FS",
      "ScanningSequence": "EP",
      "SequenceName": "epfid2d1_104",
      "SequenceVariant": [
        "SK",
        "SS"
],
      "SeriesDescription": "cmrr_mbepi_s6_2mm_66sl_PA_task-bar3",
      "SeriesNumber": 16,
      "SeriesTime": "132524.808000",
      "SliceLocation": -44.684299908774,
      "SliceThickness": 2.0,
      "SmallestImagePixelValue": 0,
      "SoftwareVersions": "syngo MR E11",
      "SpacingBetweenSlices": 2.0000000828447,
      "SpecificCharacterSet": "ISO_IR 100",
      "StudyID": "1",
      "StudyTime": "124856.259000",
      "TransmitCoilName": "Body",
      "VariableFlipAngleFlag": "N",
      "WindowCenterWidthExplanation": "Algo1",
      "dBdt": 0.0},
    "slices": {}
  },
  "time": {
    "samples": {
      "AcquisitionNumber": [1, 2, 3, 4, 5, 6, 7, 8, 9, 10, 11, 12, 13, 14, 15, 16, 17, 18, 19, 20, 21, 22, 23, 24, 25, 26, 27, 28, 29, 30, 31, 32, 33, 34, 35, 36, 37, 38, 39, 40, 41, 42, 43, 44, 45, 46, 47, 48, 49, 50, 51, 52, 53, 54, 55, 56, 57, 58, 59, 60, 61, 62, 63, 64, 65, 66, 67, 68, 69, 70, 71, 72, 73, 74, 75, 76, 77, 78, 79, 80, 81, 82, 83, 84, 85, 86, 87, 88, 89, 90, 91, 92, 93, 94, 95, 96, 97, 98, 99, 100, 101, 102, 103, 104, 105, 106, 107, 108, 109, 110, 111, 112, 113, 114, 115, 116, 117, 118, 119, 120, 121, 122, 123, 124, 125, 126, 127, 128, 129, 130, 131, 132, 133, 134, 135, 136, 137, 138, 139, 140, 141, 142, 143, 144, 145, 146, 147, 148, 149, 150, 151, 152, 153, 154, 155, 156, 157, 158, 159, 160, 161, 162, 163, 164, 165, 166, 167, 168, 169, 170, 171, 172, 173, 174, 175, 176, 177, 178, 179, 180, 181, 182, 183, 184, 185, 186, 187, 188, 189, 190, 191, 192, 193, 194, 195, 196, 197, 198, 199, 200, 201, 202, 203, 204, 205, 206, 207, 208, 209, 210, 211, 212, 213, 214, 215, 216, 217, 218, 219, 220, 221, 222, 223, 224, 225, 226, 227, 228, 229, 230, 231, 232, 233, 234, 235, 236, 237, 238, 239, 240, 241, 242, 243, 244, 245, 246, 247, 248, 249, 250, 251, 252, 253, 254, 255, 256, 257, 258, 259, 260, 261, 262, 263, 264, 265, 266, 267, 268, 269, 270, 271, 272, 273, 274, 275, 276, 277, 278, 279, 280, 281, 282, 283, 284, 285, 286, 287, 288, 289, 290, 291, 292, 293, 294, 295, 296, 297, 298, 299, 300],
      "AcquisitionTime": ["132406.307500", "132407.307500", "132408.307500", "132409.307500", "132410.307500", "132411.307500", "132412.307500", "132413.307500", "132414.307500", "132415.307500", "132416.307500", "132417.307500", "132418.307500", "132419.307500", "132420.307500", "132421.307500", "132422.307500", "132423.307500", "132424.307500", "132425.307500", "132426.307500", "132427.307500", "132428.307500", "132429.307500", "132430.307500", "132431.307500", "132432.307500", "132433.307500", "132434.307500", "132435.307500", "132436.307500", "132437.307500", "132438.307500", "132439.307500", "132440.307500", "132441.307500", "132442.307500", "132443.307500", "132444.307500", "132445.307500", "132446.307500", "132447.307500", "132448.307500", "132449.307500", "132450.307500", "132451.307500", "132452.307500", "132453.307500", "132454.307500", "132455.307500", "132456.307500", "132457.307500", "132458.307500", "132459.307500", "132500.307500", "132501.307500", "132502.307500", "132503.307500", "132504.307500", "132505.307500", "132506.307500", "132507.307500", "132508.307500", "132509.307500", "132510.307500", "132511.307500", "132512.307500", "132513.307500", "132514.307500", "132515.307500", "132516.307500", "132517.307500", "132518.307500", "132519.307500", "132520.307500", "132521.307500", "132522.307500", "132523.307500", "132524.307500", "132525.307500", "132526.307500", "132527.307500", "132528.307500", "132529.307500", "132530.307500", "132531.307500", "132532.307500", "132533.307500", "132534.307500", "132535.307500", "132536.307500", "132537.307500", "132538.307500", "132539.307500", "132540.307500", "132541.307500", "132542.307500", "132543.307500", "132544.307500", "132545.307500", "132546.307500", "132547.307500", "132548.307500", "132549.307500", "132550.307500", "132551.307500", "132552.307500", "132553.307500", "132554.307500", "132555.307500", "132556.307500", "132557.307500", "132558.307500", "132559.307500", "132600.307500", "132601.307500", "132602.307500", "132603.307500", "132604.307500", "132605.307500", "132606.307500", "132607.307500", "132608.307500", "132609.307500", "132610.307500", "132611.307500", "132612.307500", "132613.307500", "132614.307500", "132615.307500", "132616.307500", "132617.307500", "132618.307500", "132619.307500", "132620.307500", "132621.307500", "132622.307500", "132623.307500", "132624.307500", "132625.307500", "132626.307500", "132627.307500", "132628.307500", "132629.307500", "132630.307500", "132631.307500", "132632.307500", "132633.307500", "132634.307500", "132635.307500", "132636.307500", "132637.307500", "132638.307500", "132639.307500", "132640.307500", "132641.307500", "132642.307500", "132643.307500", "132644.307500", "132645.307500", "132646.307500", "132647.307500", "132648.307500", "132649.307500", "132650.307500", "132651.307500", "132652.307500", "132653.307500", "132654.307500", "132655.307500", "132656.307500", "132657.307500", "132658.307500", "132659.307500", "132700.307500", "132701.307500", "132702.307500", "132703.307500", "132704.307500", "132705.307500", "132706.307500", "132707.307500", "132708.307500", "132709.307500", "132710.307500", "132711.307500", "132712.307500", "132713.307500", "132714.307500", "132715.307500", "132716.307500", "132717.307500", "132718.307500", "132719.307500", "132720.307500", "132721.307500", "132722.307500", "132723.307500", "132724.307500", "132725.307500", "132726.307500", "132727.307500", "132728.307500", "132729.307500", "132730.307500", "132731.307500", "132732.307500", "132733.307500", "132734.307500", "132735.307500", "132736.307500", "132737.307500", "132738.307500", "132739.307500", "132740.307500", "132741.307500", "132742.307500", "132743.307500", "132744.307500", "132745.307500", "132746.307500", "132747.307500", "132748.307500", "132749.307500", "132750.307500", "132751.307500", "132752.307500", "132753.307500", "132754.307500", "132755.307500", "132756.307500", "132757.307500", "132758.307500", "132759.307500", "132800.307500", "132801.307500", "132802.307500", "132803.307500", "132804.307500", "132805.307500", "132806.307500", "132807.307500", "132808.307500", "132809.307500", "132810.307500", "132811.307500", "132812.307500", "132813.307500", "132814.307500", "132815.307500", "132816.307500", "132817.307500", "132818.307500", "132819.307500", "132820.307500", "132821.307500", "132822.307500", "132823.307500", "132824.307500", "132825.307500", "132826.307500", "132827.307500", "132828.307500", "132829.307500", "132830.307500", "132831.307500", "132832.307500", "132833.307500", "132834.307500", "132835.307500", "132836.307500", "132837.307500", "132838.307500", "132839.307500", "132840.307500", "132841.307500", "132842.307500", "132843.307500", "132844.307500", "132845.307500", "132846.307500", "132847.307500", "132848.307500", "132849.307500", "132850.307500", "132851.307500", "132852.307500", "132853.307500", "132854.307500", "132855.307500", "132856.307500", "132857.307500", "132858.307500", "132859.307500", "132900.307500", "132901.307500", "132902.307500", "132903.307500", "132904.307500", "132905.307500"],
      "ContentTime": ["132524.811000", "132524.815000", "132524.818000", "132524.821000", "132524.823000", "132524.826000", "132524.829000", "132524.832000", "132524.845000", "132524.848000", "132524.851000", "132524.854000", "132524.857000", "132524.860000", "132524.863000", "132524.866000", "132524.868000", "132524.876000", "132524.879000", "132524.882000", "132524.885000", "132524.888000", "132524.891000", "132524.894000", "132524.898000", "132524.903000", "132524.906000", "132524.912000", "132524.915000", "132524.918000", "132524.921000", "132524.924000", "132544.771000", "132544.774000", "132544.777000", "132544.798000", "132544.801000", "132544.804000", "132544.807000", "132544.810000", "132544.813000", "132544.816000", "132544.819000", "132544.822000", "132544.825000", "132544.828000", "132544.844000", "132544.847000", "132544.850000", "132544.852000", "132544.855000", "132544.858000", "132544.861000", "132544.864000", "132544.867000", "132544.870000", "132544.873000", "132544.876000", "132544.881000", "132544.884000", "132544.887000", "132604.771000", "132604.774000", "132604.777000", "132604.780000", "132604.783000", "132604.786000", "132604.789000", "132604.792000", "132604.795000", "132604.798000", "132604.801000", "132604.804000", "132604.807000", "132604.810000", "132604.813000", "132604.815000", "132604.818000", "132604.821000", "132604.824000", "132604.827000", "132604.830000", "132604.833000", "132604.836000", "132604.839000", "132604.842000", "132604.845000", "132604.848000", "132604.851000", "132624.771000", "132624.774000", "132624.777000", "132624.780000", "132624.783000", "132624.790000", "132624.793000", "132624.796000", "132624.799000", "132624.802000", "132624.805000", "132624.808000", "132624.811000", "132624.814000", "132624.817000", "132624.820000", "132624.823000", "132624.826000", "132624.829000", "132624.832000", "132624.835000", "132624.838000", "132624.841000", "132624.844000", "132624.847000", "132624.850000", "132624.852000", "132624.855000", "132644.771000", "132644.774000", "132644.777000", "132644.780000", "132644.783000", "132644.786000", "132644.789000", "132644.792000", "132644.795000", "132644.798000", "132644.801000", "132644.804000", "132644.807000", "132644.820000", "132644.823000", "132644.826000", "132644.829000", "132644.833000", "132644.836000", "132644.839000", "132644.842000", "132644.845000", "132644.848000", "132644.851000", "132644.854000", "132644.857000", "132644.860000", "132644.863000", "132704.771000", "132704.774000", "132704.777000", "132704.780000", "132704.783000", "132704.786000", "132704.789000", "132704.792000", "132704.795000", "132704.798000", "132704.801000", "132704.804000", "132704.807000", "132704.810000", "132704.813000", "132704.816000", "132704.819000", "132704.824000", "132704.827000", "132704.830000", "132704.833000", "132704.836000", "132704.839000", "132704.842000", "132704.845000", "132704.848000", "132704.851000", "132704.854000", "132704.865000", "132724.772000", "132724.775000", "132724.778000", "132724.781000", "132724.784000", "132724.787000", "132724.790000", "132724.793000", "132724.796000", "132724.799000", "132724.802000", "132724.806000", "132724.809000", "132724.812000", "132724.814000", "132724.817000", "132724.820000", "132724.823000", "132724.826000", "132724.829000", "132724.832000", "132724.836000", "132724.838000", "132744.771000", "132744.776000", "132744.780000", "132744.790000", "132744.793000", "132744.796000", "132744.799000", "132744.802000", "132744.805000", "132744.808000", "132744.811000", "132744.814000", "132744.817000", "132744.819000", "132744.822000", "132744.826000", "132744.829000", "132744.832000", "132744.835000", "132744.838000", "132804.771000", "132804.774000", "132804.777000", "132804.781000", "132804.784000", "132804.787000", "132804.790000", "132804.792000", "132804.795000", "132804.798000", "132804.801000", "132804.804000", "132804.807000", "132804.810000", "132804.813000", "132804.816000", "132804.819000", "132804.822000", "132804.825000", "132804.828000", "132824.771000", "132824.774000", "132824.777000", "132824.780000", "132824.783000", "132824.786000", "132824.789000", "132824.792000", "132824.795000", "132824.798000", "132824.801000", "132824.804000", "132824.807000", "132824.810000", "132824.822000", "132824.825000", "132824.828000", "132824.831000", "132824.834000", "132824.837000", "132844.771000", "132844.774000", "132844.777000", "132844.780000", "132844.783000", "132844.786000", "132844.789000", "132844.792000", "132844.795000", "132844.798000", "132844.801000", "132844.804000", "132844.807000", "132844.811000", "132844.814000", "132844.817000", "132844.820000", "132844.823000", "132844.826000", "132844.829000", "132904.771000", "132904.774000", "132904.777000", "132904.780000", "132904.783000", "132904.787000", "132904.789000", "132904.793000", "132904.796000", "132904.798000", "132904.801000", "132904.804000", "132904.807000", "132904.810000", "132904.813000", "132904.816000", "132904.819000", "132904.822000", "132904.825000", "132904.828000", "132906.824000", "132906.827000", "132906.830000"],
      "InstanceCreationTime": ["132524.811000", "132524.815000", "132524.818000", "132524.821000", "132524.823000", "132524.826000", "132524.829000", "132524.832000", "132524.845000", "132524.848000", "132524.851000", "132524.854000", "132524.857000", "132524.860000", "132524.863000", "132524.866000", "132524.868000", "132524.876000", "132524.879000", "132524.882000", "132524.885000", "132524.888000", "132524.891000", "132524.894000", "132524.898000", "132524.903000", "132524.906000", "132524.912000", "132524.915000", "132524.918000", "132524.921000", "132524.924000", "132544.771000", "132544.774000", "132544.777000", "132544.798000", "132544.801000", "132544.804000", "132544.807000", "132544.810000", "132544.813000", "132544.816000", "132544.819000", "132544.822000", "132544.825000", "132544.828000", "132544.844000", "132544.847000", "132544.850000", "132544.852000", "132544.855000", "132544.858000", "132544.861000", "132544.864000", "132544.867000", "132544.870000", "132544.873000", "132544.876000", "132544.881000", "132544.884000", "132544.887000", "132604.771000", "132604.774000", "132604.777000", "132604.780000", "132604.783000", "132604.786000", "132604.789000", "132604.792000", "132604.795000", "132604.798000", "132604.801000", "132604.804000", "132604.807000", "132604.810000", "132604.813000", "132604.815000", "132604.818000", "132604.821000", "132604.824000", "132604.827000", "132604.830000", "132604.833000", "132604.836000", "132604.839000", "132604.842000", "132604.845000", "132604.848000", "132604.851000", "132624.771000", "132624.774000", "132624.777000", "132624.780000", "132624.783000", "132624.790000", "132624.793000", "132624.796000", "132624.799000", "132624.802000", "132624.805000", "132624.808000", "132624.811000", "132624.814000", "132624.817000", "132624.820000", "132624.823000", "132624.826000", "132624.829000", "132624.832000", "132624.835000", "132624.838000", "132624.841000", "132624.844000", "132624.847000", "132624.850000", "132624.852000", "132624.855000", "132644.771000", "132644.774000", "132644.777000", "132644.780000", "132644.783000", "132644.786000", "132644.789000", "132644.792000", "132644.795000", "132644.798000", "132644.801000", "132644.804000", "132644.807000", "132644.820000", "132644.823000", "132644.826000", "132644.829000", "132644.833000", "132644.836000", "132644.839000", "132644.842000", "132644.845000", "132644.848000", "132644.851000", "132644.854000", "132644.857000", "132644.860000", "132644.863000", "132704.771000", "132704.774000", "132704.777000", "132704.780000", "132704.783000", "132704.786000", "132704.789000", "132704.792000", "132704.795000", "132704.798000", "132704.801000", "132704.804000", "132704.807000", "132704.810000", "132704.813000", "132704.816000", "132704.819000", "132704.824000", "132704.827000", "132704.830000", "132704.833000", "132704.836000", "132704.839000", "132704.842000", "132704.845000", "132704.848000", "132704.851000", "132704.854000", "132704.865000", "132724.772000", "132724.775000", "132724.778000", "132724.781000", "132724.784000", "132724.787000", "132724.790000", "132724.793000", "132724.796000", "132724.799000", "132724.802000", "132724.806000", "132724.809000", "132724.812000", "132724.814000", "132724.817000", "132724.820000", "132724.823000", "132724.826000", "132724.829000", "132724.832000", "132724.836000", "132724.838000", "132744.771000", "132744.776000", "132744.780000", "132744.790000", "132744.793000", "132744.796000", "132744.799000", "132744.802000", "132744.805000", "132744.808000", "132744.811000", "132744.814000", "132744.817000", "132744.819000", "132744.822000", "132744.826000", "132744.829000", "132744.832000", "132744.835000", "132744.838000", "132804.771000", "132804.774000", "132804.777000", "132804.781000", "132804.784000", "132804.787000", "132804.790000", "132804.792000", "132804.795000", "132804.798000", "132804.801000", "132804.804000", "132804.807000", "132804.810000", "132804.813000", "132804.816000", "132804.819000", "132804.822000", "132804.825000", "132804.828000", "132824.771000", "132824.774000", "132824.777000", "132824.780000", "132824.783000", "132824.786000", "132824.789000", "132824.792000", "132824.795000", "132824.798000", "132824.801000", "132824.804000", "132824.807000", "132824.810000", "132824.822000", "132824.825000", "132824.828000", "132824.831000", "132824.834000", "132824.837000", "132844.771000", "132844.774000", "132844.777000", "132844.780000", "132844.783000", "132844.786000", "132844.789000", "132844.792000", "132844.795000", "132844.798000", "132844.801000", "132844.804000", "132844.807000", "132844.811000", "132844.814000", "132844.817000", "132844.820000", "132844.823000", "132844.826000", "132844.829000", "132904.771000", "132904.774000", "132904.777000", "132904.780000", "132904.783000", "132904.787000", "132904.789000", "132904.793000", "132904.796000", "132904.798000", "132904.801000", "132904.804000", "132904.807000", "132904.810000", "132904.813000", "132904.816000", "132904.819000", "132904.822000", "132904.825000", "132904.828000", "132906.824000", "132906.827000", "132906.830000"],
      "InstanceNumber": [1, 2, 3, 4, 5, 6, 7, 8, 9, 10, 11, 12, 13, 14, 15, 16, 17, 18, 19, 20, 21, 22, 23, 24, 25, 26, 27, 28, 29, 30, 31, 32, 33, 34, 35, 36, 37, 38, 39, 40, 41, 42, 43, 44, 45, 46, 47, 48, 49, 50, 51, 52, 53, 54, 55, 56, 57, 58, 59, 60, 61, 62, 63, 64, 65, 66, 67, 68, 69, 70, 71, 72, 73, 74, 75, 76, 77, 78, 79, 80, 81, 82, 83, 84, 85, 86, 87, 88, 89, 90, 91, 92, 93, 94, 95, 96, 97, 98, 99, 100, 101, 102, 103, 104, 105, 106, 107, 108, 109, 110, 111, 112, 113, 114, 115, 116, 117, 118, 119, 120, 121, 122, 123, 124, 125, 126, 127, 128, 129, 130, 131, 132, 133, 134, 135, 136, 137, 138, 139, 140, 141, 142, 143, 144, 145, 146, 147, 148, 149, 150, 151, 152, 153, 154, 155, 156, 157, 158, 159, 160, 161, 162, 163, 164, 165, 166, 167, 168, 169, 170, 171, 172, 173, 174, 175, 176, 177, 178, 179, 180, 181, 182, 183, 184, 185, 186, 187, 188, 189, 190, 191, 192, 193, 194, 195, 196, 197, 198, 199, 200, 201, 202, 203, 204, 205, 206, 207, 208, 209, 210, 211, 212, 213, 214, 215, 216, 217, 218, 219, 220, 221, 222, 223, 224, 225, 226, 227, 228, 229, 230, 231, 232, 233, 234, 235, 236, 237, 238, 239, 240, 241, 242, 243, 244, 245, 246, 247, 248, 249, 250, 251, 252, 253, 254, 255, 256, 257, 258, 259, 260, 261, 262, 263, 264, 265, 266, 267, 268, 269, 270, 271, 272, 273, 274, 275, 276, 277, 278, 279, 280, 281, 282, 283, 284, 285, 286, 287, 288, 289, 290, 291, 292, 293, 294, 295, 296, 297, 298, 299, 300],
      "LargestImagePixelValue": [38407, 37233, 36588, 35721, 36071, 36012, 35774, 35324, 35806, 36061, 35782, 35271, 35899, 36333, 35496, 35191, 35697, 35522, 35563, 35739, 35726, 35684, 35457, 35334, 35997, 35467, 35561, 35354, 35927, 35566, 35528, 36154, 35679, 35396, 35632, 35469, 35552, 35686, 35701, 36207, 35543, 35539, 36068, 35629, 35402, 35486, 35338, 35886, 35603, 35936, 36168, 36468, 35576, 35474, 35837, 35615, 36308, 35501, 35919, 36161, 36062, 35858, 36079, 36277, 36039, 35316, 34711, 35560, 34900, 35287, 35266, 35642, 35023, 35806, 34995, 35791, 35555, 35437, 35619, 36244, 36373, 35663, 36130, 35573, 36610, 35428, 36243, 36129, 35930, 35249, 35778, 36009, 36387, 35188, 35540, 35996, 36099, 35347, 35681, 36068, 35203, 35243, 36542, 36574, 35792, 35514, 36082, 36165, 36595, 35889, 35580, 36499, 36848, 35694, 35692, 36011, 36039, 36555, 35188, 35714, 36369, 35859, 35031, 35947, 36415, 35889, 36108, 36227, 36645, 38334, 38936, 36961, 35898, 35636, 35974, 35754, 36068, 35518, 35481, 37513, 36995, 37060, 36617, 36346, 36000, 35897, 35958, 36246, 34924, 36386, 36878, 36258, 35518, 35423, 36053, 37728, 36432, 35820, 37046, 36449, 36188, 35149, 37540, 35961, 35900, 36465, 36484, 35732, 36096, 36373, 35262, 35589, 35511, 33587, 34909, 43126, 39728, 34990, 37662, 35585, 34770, 36670, 36873, 34968, 37290, 35371, 36329, 36754, 36581, 36094, 36303, 36014, 36881, 36198, 35450, 34421, 34677, 34692, 35718, 35966, 35386, 36165, 36751, 35484, 34424, 34539, 35076, 36437, 36025, 36494, 35189, 36177, 34213, 34280, 34537, 34920, 34892, 36509, 35216, 35214, 35382, 36225, 35955, 35798, 35635, 35341, 35772, 35014, 34992, 36188, 38765, 39634, 37959, 37254, 36641, 38001, 36973, 36495, 36471, 36930, 36313, 36280, 37126, 36832, 36727, 36842, 37015, 37163, 36831, 36604, 37006, 36707, 36499, 35962, 36522, 37253, 37956, 36945, 36570, 37412, 37727, 36783, 37459, 36670, 36689, 35880, 36378, 37673, 37786, 36668, 38250, 37059, 36494, 37754, 37319, 37231, 36747, 37364, 36627, 35983, 37280, 37365, 38300, 37414, 36322, 36011, 37318, 36728, 37053, 37462, 37795, 36715, 37653, 37327, 37594, 36787, 37203, 37550, 37853, 37496],
      "WindowCenter": [8597.0, 8560.0, 8547.0, 8533.0, 8539.0, 8537.0, 8531.0, 8523.0, 8537.0, 8536.0, 8521.0, 8515.0, 8512.0, 8518.0, 8510.0, 8504.0, 8518.0, 8511.0, 8520.0, 8529.0, 8537.0, 8537.0, 8531.0, 8531.0, 8531.0, 8521.0, 8521.0, 8514.0, 8528.0, 8522.0, 8530.0, 8536.0, 8528.0, 8535.0, 8526.0, 8525.0, 8519.0, 8527.0, 8527.0, 8533.0, 8524.0, 8518.0, 8523.0, 8515.0, 8516.0, 8515.0, 8509.0, 8515.0, 8516.0, 8525.0, 8525.0, 8525.0, 8512.0, 8520.0, 8535.0, 8536.0, 8534.0, 8526.0, 8526.0, 8525.0, 8523.0, 8524.0, 8533.0, 8539.0, 8538.0, 8526.0, 8521.0, 8536.0, 8539.0, 8540.0, 8530.0, 8519.0, 8505.0, 8524.0, 8511.0, 8519.0, 8519.0, 8511.0, 8508.0, 8512.0, 8512.0, 8508.0, 8524.0, 8525.0, 8531.0, 8517.0, 8524.0, 8523.0, 8523.0, 8512.0, 8519.0, 8523.0, 8530.0, 8520.0, 8527.0, 8533.0, 8533.0, 8527.0, 8533.0, 8532.0, 8518.0, 8510.0, 8515.0, 8514.0, 8510.0, 8519.0, 8528.0, 8533.0, 8535.0, 8531.0, 8532.0, 8538.0, 8545.0, 8530.0, 8529.0, 8534.0, 8525.0, 8530.0, 8511.0, 8525.0, 8532.0, 8521.0, 8516.0, 8529.0, 8532.0, 8519.0, 8524.0, 8524.0, 8528.0, 8516.0, 8598.0, 8562.0, 8546.0, 8549.0, 8552.0, 8558.0, 8558.0, 8545.0, 8545.0, 8556.0, 8546.0, 8537.0, 8527.0, 8526.0, 8519.0, 8519.0, 8527.0, 8528.0, 8516.0, 8536.0, 8534.0, 8526.0, 8521.0, 8523.0, 8537.0, 8556.0, 8545.0, 8537.0, 8548.0, 8535.0, 8529.0, 8522.0, 8547.0, 8525.0, 8527.0, 8542.0, 8552.0, 8557.0, 8566.0, 8554.0, 8532.0, 8529.0, 8528.0, 8504.0, 8428.0, 8490.0, 8586.0, 8364.0, 8556.0, 8513.0, 8489.0, 8467.0, 8437.0, 8448.0, 8503.0, 8475.0, 8479.0, 8486.0, 8470.0, 8454.0, 8446.0, 8443.0, 8447.0, 8423.0, 8417.0, 8405.0, 8416.0, 8426.0, 8449.0, 8457.0, 8460.0, 8485.0, 8503.0, 8488.0, 8483.0, 8495.0, 8517.0, 8532.0, 8535.0, 8535.0, 8509.0, 8505.0, 8478.0, 8478.0, 8477.0, 8484.0, 8494.0, 8514.0, 8483.0, 8472.0, 8470.0, 8474.0, 8458.0, 8459.0, 8459.0, 8460.0, 8465.0, 8460.0, 8472.0, 8487.0, 8401.0, 8631.0, 8560.0, 8542.0, 8542.0, 8557.0, 8543.0, 8526.0, 8518.0, 8533.0, 8518.0, 8519.0, 8535.0, 8537.0, 8537.0, 8529.0, 8527.0, 8526.0, 8523.0, 8515.0, 8530.0, 8526.0, 8524.0, 8512.0, 8525.0, 8533.0, 8545.0, 8525.0, 8519.0, 8529.0, 8525.0, 8511.0, 8533.0, 8532.0, 8533.0, 8536.0, 8546.0, 8567.0, 8584.0, 8557.0, 8564.0, 8531.0, 8525.0, 8544.0, 8528.0, 8520.0, 8522.0, 8521.0, 8499.0, 8499.0, 8518.0, 8518.0, 8524.0, 8510.0, 8506.0, 8501.0, 8513.0, 8507.0, 8515.0, 8521.0, 8519.0, 8514.0, 8528.0, 8529.0, 8528.0, 8522.0, 8523.0, 8530.0, 8529.0, 8530.0],
