{
  "AcquisitionMatrixPE": 104,
  "AcquisitionNumber": 1,
  "AcquisitionTime": "16:15:6.767500",
  "BandwidthPerPixelPhaseEncode": 16.297,
  "BaseResolution": 104,
  "BodyPartExamined": "BRAIN",
  "ConsistencyInfo": "N4_VE11C_LATEST_20160120",
  "ConversionSoftware": "dcm2niix",
  "ConversionSoftwareVersion": "v1.0.20210317",
  "DerivedVendorReportedEchoSpacing": 0.000590009,
  "DeviceSerialNumber": "166018",
  "DwellTime": 2.1e-06,
  "EchoTime": 0.0376,
  "EchoTrainLength": 104,
  "EffectiveEchoSpacing": 0.000590009,
  "FlipAngle": 68,
  "ImageComments": "Unaliased MB6/PE3/LB",
  "ImageOrientationPatientDICOM": [0.996978, -0.0776721, -0.0014418, 0.0767132, 0.987258, -0.139415],
  "ImageType": [
    "ORIGINAL",
    "PRIMARY",
    "M",
    "MB",
    "ND",
    "MOSAIC"
],
  "ImagingFrequency": 123.197,
  "InPlanePhaseEncodingDirectionDICOM": "COL",
  "InstitutionAddress": "Washington Place 6,NYC,NYC,US,10003",
  "InstitutionName": "NYU - CBI",
  "InstitutionalDepartmentName": "Department",
  "MRAcquisitionType": "2D",
  "MagneticFieldStrength": 3,
  "Manufacturer": "Siemens",
  "ManufacturersModelName": "Prisma",
  "Modality": "MR",
  "MultibandAccelerationFactor": 6,
  "PartialFourier": 1,
  "PatientPosition": "HFS",
  "PercentPhaseFOV": 100,
  "PercentSampling": 100,
  "PhaseEncodingDirection": "j",
  "PhaseEncodingSteps": 104,
  "PhaseResolution": 1,
  "PixelBandwidth": 2290,
  "ProcedureStepDescription": "Investigators^Winawer",
  "ProtocolName": "cmrr_mbepi_s6_2mm_66sl_PA_task-bar1",
  "PulseSequenceDetails": "%CustomerSeq%\\cmrr_mbep2d_bold",
  "ReceiveCoilActiveElements": "HC1-7",
  "ReceiveCoilName": "HeadNeck_64",
  "ReconMatrixPE": 104,
  "RepetitionTime": 1,
  "SAR": 0.0685779,
  "ScanOptions": "FS",
  "ScanningSequence": "EP",
  "SequenceName": "epfid2d1_104",
  "SequenceVariant": "SK\\SS",
  "SeriesDescription": "cmrr_mbepi_s6_2mm_66sl_PA_task-bar1",
  "SeriesNumber": 8,
  "ShimSetting": [276, -12645, -8504, 317, -20, -60, -113, 21],
  "SliceThickness": 2,
  "SliceTiming": [0, 0.535, 0.09, 0.6225, 0.1775, 0.7125, 0.2675, 0.8025, 0.3575, 0.89, 0.445, 0, 0.535, 0.09, 0.6225, 0.1775, 0.7125, 0.2675, 0.8025, 0.3575, 0.89, 0.445, 0, 0.535, 0.09, 0.6225, 0.1775, 0.7125, 0.2675, 0.8025, 0.3575, 0.89, 0.445, 0, 0.535, 0.09, 0.6225, 0.1775, 0.7125, 0.2675, 0.8025, 0.3575, 0.89, 0.445, 0, 0.535, 0.09, 0.6225, 0.1775, 0.7125, 0.2675, 0.8025, 0.3575, 0.89, 0.445, 0, 0.535, 0.09, 0.6225, 0.1775, 0.7125, 0.2675, 0.8025, 0.3575, 0.89, 0.445],
  "SoftwareVersions": "syngo MR E11",
  "SpacingBetweenSlices": 2,
  "StationName": "AWP166018",
  "TaskName": "bar1",
  "TotalReadoutTime": 0.060771,
  "TxRefAmp": 212.527,
  "VendorReportedEchoSpacing": 0.00059,
  "WipMemBlock": "ae4b9d38-7f16-406c-8a07-a03c8e85c9c6||Sequence: R016 ve11c/master r/8780670; Nov 27 2017 15:05:12 by eja",
  "dcmmeta_affine": [
    [-1.9939558506011963, 0.15342645347118378, -0.024504221975803375, 100.53018951416016],
    [0.1553441882133484, 1.9745161533355713, -0.27776673436164856, -88.080322265625],
    [-0.0028836082201451063, 0.2788306176662445, 1.9804657697677612, -52.53673553466797],
    [0.0, 0.0, 0.0, 1.0]
],
  "dcmmeta_reorient_transform": [
    [0.0, -1.0, 0.0, 103.0],
    [1.0, 0.0, 0.0, 0.0],
    [0.0, 0.0, 1.0, 0.0],
    [0.0, 0.0, 0.0, 1.0]
],
  "dcmmeta_shape": [104, 104, 66, 300],
  "dcmmeta_slice_dim": 2,
  "dcmmeta_version": 0.6,
  "global": {
    "const": {
      "AccessionNumber": "Leq8514L",
      "AcquisitionMatrix": [104, 0, 0, 104],
      "AngioFlag": "N",
      "BitsAllocated": 16,
      "BitsStored": 16,
      "BodyPartExamined": "BRAIN",
      "Columns": 936,
      "EchoNumbers": 1,
      "EchoTime": 37.6,
      "EchoTrainLength": 104,
      "FlipAngle": 68.0,
      "HighBit": 15,
      "ImageOrientationPatient": [0.99697791698651, -0.0776720943596, -0.0014418040916, 0.07671322448522, 0.98725804858317, -0.1394153029507],
      "ImagePositionPatient": [-1009.6441422165, -872.07035201801, 93.375928339075],
      "ImageType": [
        "ORIGINAL",
        "PRIMARY",
        "M",
        "MB",
        "ND",
        "MOSAIC"
],
      "ImagedNucleus": "1H",
      "ImagingFrequency": 123.196824,
      "InPlanePhaseEncodingDirection": "COL",
      "MRAcquisitionType": "2D",
      "MagneticFieldStrength": 3.0,
      "Manufacturer": "SIEMENS",
      "ManufacturerModelName": "Prisma",
      "Modality": "MR",
      "NumberOfAverages": 1.0,
      "NumberOfPhaseEncodingSteps": 104,
      "PercentPhaseFieldOfView": 100.0,
      "PercentSampling": 100.0,
      "PerformedProcedureStepStartTime": "160347.264000",
      "PhotometricInterpretation": "MONOCHROME2",
      "PixelBandwidth": 2290.0,
      "PixelRepresentation": 0,
      "PixelSpacing": [2.0, 2.0],
      "ProtocolName": "cmrr_mbepi_s6_2mm_66sl_PA_task-bar1",
      "RepetitionTime": 1000.0,
      "Rows": 936,
      "SAR": 0.0685779096982,
      "SamplesPerPixel": 1,
      "ScanOptions": "FS",
      "ScanningSequence": "EP",
      "SequenceName": "epfid2d1_104",
      "SequenceVariant": [
        "SK",
        "SS"
],
      "SeriesDescription": "cmrr_mbepi_s6_2mm_66sl_PA_task-bar1",
      "SeriesNumber": 8,
      "SeriesTime": "161613.023000",
      "SliceLocation": -41.022423307457,
      "SliceThickness": 2.0,
      "SmallestImagePixelValue": 0,
      "SoftwareVersions": "syngo MR E11",
      "SpacingBetweenSlices": 1.9999999191058,
      "SpecificCharacterSet": "ISO_IR 100",
      "StudyID": "1",
      "StudyTime": "160347.144000",
      "TransmitCoilName": "Body",
      "VariableFlipAngleFlag": "N",
      "WindowCenterWidthExplanation": "Algo1",
      "dBdt": 0.0},
    "slices": {}
  },
  "time": {
    "samples": {
      "AcquisitionNumber": [1, 2, 3, 4, 5, 6, 7, 8, 9, 10, 11, 12, 13, 14, 15, 16, 17, 18, 19, 20, 21, 22, 23, 24, 25, 26, 27, 28, 29, 30, 31, 32, 33, 34, 35, 36, 37, 38, 39, 40, 41, 42, 43, 44, 45, 46, 47, 48, 49, 50, 51, 52, 53, 54, 55, 56, 57, 58, 59, 60, 61, 62, 63, 64, 65, 66, 67, 68, 69, 70, 71, 72, 73, 74, 75, 76, 77, 78, 79, 80, 81, 82, 83, 84, 85, 86, 87, 88, 89, 90, 91, 92, 93, 94, 95, 96, 97, 98, 99, 100, 101, 102, 103, 104, 105, 106, 107, 108, 109, 110, 111, 112, 113, 114, 115, 116, 117, 118, 119, 120, 121, 122, 123, 124, 125, 126, 127, 128, 129, 130, 131, 132, 133, 134, 135, 136, 137, 138, 139, 140, 141, 142, 143, 144, 145, 146, 147, 148, 149, 150, 151, 152, 153, 154, 155, 156, 157, 158, 159, 160, 161, 162, 163, 164, 165, 166, 167, 168, 169, 170, 171, 172, 173, 174, 175, 176, 177, 178, 179, 180, 181, 182, 183, 184, 185, 186, 187, 188, 189, 190, 191, 192, 193, 194, 195, 196, 197, 198, 199, 200, 201, 202, 203, 204, 205, 206, 207, 208, 209, 210, 211, 212, 213, 214, 215, 216, 217, 218, 219, 220, 221, 222, 223, 224, 225, 226, 227, 228, 229, 230, 231, 232, 233, 234, 235, 236, 237, 238, 239, 240, 241, 242, 243, 244, 245, 246, 247, 248, 249, 250, 251, 252, 253, 254, 255, 256, 257, 258, 259, 260, 261, 262, 263, 264, 265, 266, 267, 268, 269, 270, 271, 272, 273, 274, 275, 276, 277, 278, 279, 280, 281, 282, 283, 284, 285, 286, 287, 288, 289, 290, 291, 292, 293, 294, 295, 296, 297, 298, 299, 300],
      "AcquisitionTime": ["161506.767500", "161507.767500", "161508.767500", "161509.767500", "161510.767500", "161511.767500", "161512.767500", "161513.767500", "161514.767500", "161515.767500", "161516.767500", "161517.767500", "161518.767500", "161519.767500", "161520.767500", "161521.767500", "161522.767500", "161523.767500", "161524.767500", "161525.767500", "161526.767500", "161527.767500", "161528.767500", "161529.767500", "161530.767500", "161531.767500", "161532.767500", "161533.767500", "161534.767500", "161535.767500", "161536.767500", "161537.767500", "161538.767500", "161539.767500", "161540.767500", "161541.767500", "161542.767500", "161543.767500", "161544.767500", "161545.767500", "161546.767500", "161547.767500", "161548.767500", "161549.767500", "161550.767500", "161551.767500", "161552.767500", "161553.767500", "161554.767500", "161555.767500", "161556.767500", "161557.767500", "161558.767500", "161559.767500", "161600.767500", "161601.767500", "161602.767500", "161603.767500", "161604.767500", "161605.767500", "161606.767500", "161607.767500", "161608.767500", "161609.767500", "161610.767500", "161611.767500", "161612.767500", "161613.767500", "161614.767500", "161615.767500", "161616.767500", "161617.767500", "161618.767500", "161619.767500", "161620.767500", "161621.767500", "161622.767500", "161623.767500", "161624.767500", "161625.767500", "161626.767500", "161627.767500", "161628.767500", "161629.767500", "161630.767500", "161631.767500", "161632.767500", "161633.767500", "161634.767500", "161635.767500", "161636.767500", "161637.767500", "161638.767500", "161639.767500", "161640.767500", "161641.767500", "161642.767500", "161643.767500", "161644.767500", "161645.767500", "161646.767500", "161647.767500", "161648.767500", "161649.767500", "161650.767500", "161651.767500", "161652.767500", "161653.767500", "161654.767500", "161655.767500", "161656.767500", "161657.767500", "161658.767500", "161659.767500", "161700.767500", "161701.767500", "161702.767500", "161703.767500", "161704.767500", "161705.767500", "161706.767500", "161707.767500", "161708.767500", "161709.767500", "161710.767500", "161711.767500", "161712.767500", "161713.767500", "161714.767500", "161715.767500", "161716.767500", "161717.767500", "161718.767500", "161719.767500", "161720.767500", "161721.767500", "161722.767500", "161723.767500", "161724.767500", "161725.767500", "161726.767500", "161727.767500", "161728.767500", "161729.767500", "161730.767500", "161731.767500", "161732.767500", "161733.767500", "161734.767500", "161735.767500", "161736.767500", "161737.767500", "161738.767500", "161739.767500", "161740.767500", "161741.767500", "161742.767500", "161743.767500", "161744.767500", "161745.767500", "161746.767500", "161747.767500", "161748.767500", "161749.767500", "161750.767500", "161751.767500", "161752.767500", "161753.767500", "161754.767500", "161755.767500", "161756.767500", "161757.767500", "161758.767500", "161759.767500", "161800.767500", "161801.767500", "161802.767500", "161803.767500", "161804.767500", "161805.767500", "161806.767500", "161807.767500", "161808.767500", "161809.767500", "161810.767500", "161811.767500", "161812.767500", "161813.767500", "161814.767500", "161815.767500", "161816.767500", "161817.767500", "161818.767500", "161819.767500", "161820.767500", "161821.767500", "161822.767500", "161823.767500", "161824.767500", "161825.767500", "161826.767500", "161827.767500", "161828.767500", "161829.767500", "161830.767500", "161831.767500", "161832.767500", "161833.767500", "161834.767500", "161835.767500", "161836.767500", "161837.767500", "161838.767500", "161839.767500", "161840.767500", "161841.767500", "161842.767500", "161843.767500", "161844.767500", "161845.767500", "161846.767500", "161847.767500", "161848.767500", "161849.767500", "161850.767500", "161851.767500", "161852.767500", "161853.767500", "161854.767500", "161855.767500", "161856.767500", "161857.767500", "161858.767500", "161859.767500", "161900.767500", "161901.767500", "161902.767500", "161903.767500", "161904.767500", "161905.767500", "161906.767500", "161907.767500", "161908.767500", "161909.767500", "161910.767500", "161911.767500", "161912.767500", "161913.767500", "161914.767500", "161915.767500", "161916.767500", "161917.767500", "161918.767500", "161919.767500", "161920.767500", "161921.767500", "161922.767500", "161923.767500", "161924.767500", "161925.767500", "161926.767500", "161927.767500", "161928.767500", "161929.767500", "161930.767500", "161931.767500", "161932.767500", "161933.767500", "161934.767500", "161935.767500", "161936.767500", "161937.767500", "161938.767500", "161939.767500", "161940.767500", "161941.767500", "161942.767500", "161943.767500", "161944.767500", "161945.767500", "161946.767500", "161947.767500", "161948.767500", "161949.767500", "161950.767500", "161951.767500", "161952.767500", "161953.767500", "161954.767500", "161955.767500", "161956.767500", "161957.767500", "161958.767500", "161959.767500", "162000.767500", "162001.767500", "162002.767500", "162003.767500", "162004.767500", "162005.767500"],
      "ContentTime": ["161613.026000", "161613.030000", "161613.033000", "161613.036000", "161613.039000", "161613.042000", "161613.045000", "161613.048000", "161613.051000", "161613.054000", "161613.057000", "161613.060000", "161613.063000", "161613.066000", "161613.069000", "161613.072000", "161613.075000", "161613.083000", "161613.086000", "161613.089000", "161632.980000", "161632.983000", "161632.986000", "161632.989000", "161632.992000", "161632.995000", "161632.998000", "161633.002000", "161633.005000", "161633.008000", "161633.011000", "161633.014000", "161633.017000", "161633.028000", "161633.031000", "161633.034000", "161633.037000", "161633.040000", "161633.043000", "161633.046000", "161633.049000", "161633.052000", "161633.055000", "161633.058000", "161633.061000", "161633.064000", "161633.067000", "161633.070000", "161652.980000", "161652.983000", "161652.986000", "161652.989000", "161652.992000", "161652.995000", "161652.998000", "161653.002000", "161653.005000", "161653.008000", "161653.011000", "161653.014000", "161653.017000", "161653.020000", "161653.023000", "161653.026000", "161653.029000", "161653.032000", "161653.036000", "161653.039000", "161653.047000", "161653.050000", "161653.053000", "161653.057000", "161653.060000", "161653.063000", "161653.066000", "161653.069000", "161712.980000", "161712.983000", "161712.986000", "161712.989000", "161712.992000", "161712.995000", "161712.998000", "161713.002000", "161713.005000", "161713.008000", "161713.011000", "161713.014000", "161713.017000", "161713.020000", "161713.023000", "161713.026000", "161713.029000", "161713.032000", "161713.035000", "161713.038000", "161713.041000", "161713.044000", "161713.047000", "161713.050000", "161713.053000", "161713.056000", "161713.059000", "161713.062000", "161732.981000", "161732.984000", "161732.987000", "161732.990000", "161732.993000", "161732.996000", "161733.000000", "161733.003000", "161733.006000", "161733.009000", "161733.012000", "161733.015000", "161733.018000", "161733.022000", "161733.025000", "161733.028000", "161733.031000", "161733.034000", "161733.037000", "161733.040000", "161733.043000", "161733.046000", "161733.049000", "161733.052000", "161733.055000", "161733.067000", "161733.070000", "161733.073000", "161752.981000", "161752.984000", "161752.987000", "161752.990000", "161752.993000", "161752.996000", "161753.000000", "161753.003000", "161753.006000", "161753.009000", "161753.012000", "161753.015000", "161753.018000", "161753.021000", "161753.024000", "161753.027000", "161753.030000", "161753.033000", "161753.036000", "161753.048000", "161753.051000", "161753.054000", "161753.057000", "161753.060000", "161753.063000", "161753.082000", "161753.085000", "161753.088000", "161753.091000", "161812.981000", "161812.984000", "161812.987000", "161812.990000", "161812.993000", "161812.996000", "161813.000000", "161813.003000", "161813.006000", "161813.009000", "161813.012000", "161813.015000", "161813.018000", "161813.021000", "161813.024000", "161813.027000", "161813.030000", "161813.033000", "161813.036000", "161813.039000", "161813.042000", "161813.045000", "161813.048000", "161813.051000", "161832.981000", "161832.984000", "161832.987000", "161832.990000", "161832.993000", "161832.996000", "161833.000000", "161833.003000", "161833.006000", "161833.009000", "161833.012000", "161833.015000", "161833.018000", "161833.022000", "161833.025000", "161833.028000", "161833.031000", "161833.034000", "161833.037000", "161833.040000", "161852.980000", "161852.983000", "161852.986000", "161852.989000", "161852.992000", "161852.995000", "161852.998000", "161853.002000", "161853.005000", "161853.008000", "161853.012000", "161853.015000", "161853.018000", "161853.021000", "161853.024000", "161853.027000", "161853.030000", "161853.033000", "161853.036000", "161853.039000", "161912.980000", "161912.983000", "161912.986000", "161912.989000", "161912.992000", "161912.995000", "161912.998000", "161913.002000", "161913.005000", "161913.008000", "161913.011000", "161913.014000", "161913.017000", "161913.020000", "161913.023000", "161913.026000", "161913.029000", "161913.033000", "161913.036000", "161913.039000", "161932.980000", "161932.983000", "161932.986000", "161932.989000", "161932.992000", "161932.995000", "161932.998000", "161933.002000", "161933.005000", "161933.008000", "161933.011000", "161933.014000", "161933.017000", "161933.020000", "161933.023000", "161933.026000", "161933.029000", "161933.032000", "161933.035000", "161933.039000", "161952.983000", "161952.986000", "161952.989000", "161952.992000", "161952.995000", "161952.998000", "161953.002000", "161953.005000", "161953.008000", "161953.011000", "161953.014000", "161953.017000", "161953.020000", "161953.023000", "161953.026000", "161953.029000", "161953.032000", "161953.035000", "161953.038000", "161953.041000", "162007.835000", "162007.838000", "162007.841000", "162007.844000", "162007.847000", "162007.850000", "162007.853000", "162007.857000", "162007.860000", "162007.863000", "162007.866000", "162007.869000", "162007.872000", "162007.875000", "162007.878000"],
      "InstanceCreationTime": ["161613.026000", "161613.030000", "161613.033000", "161613.036000", "161613.039000", "161613.042000", "161613.045000", "161613.048000", "161613.051000", "161613.054000", "161613.057000", "161613.060000", "161613.063000", "161613.066000", "161613.069000", "161613.072000", "161613.075000", "161613.083000", "161613.086000", "161613.089000", "161632.980000", "161632.983000", "161632.986000", "161632.989000", "161632.992000", "161632.995000", "161632.998000", "161633.002000", "161633.005000", "161633.008000", "161633.011000", "161633.014000", "161633.017000", "161633.028000", "161633.031000", "161633.034000", "161633.037000", "161633.040000", "161633.043000", "161633.046000", "161633.049000", "161633.052000", "161633.055000", "161633.058000", "161633.061000", "161633.064000", "161633.067000", "161633.070000", "161652.980000", "161652.983000", "161652.986000", "161652.989000", "161652.992000", "161652.995000", "161652.998000", "161653.002000", "161653.005000", "161653.008000", "161653.011000", "161653.014000", "161653.017000", "161653.020000", "161653.023000", "161653.026000", "161653.029000", "161653.032000", "161653.036000", "161653.039000", "161653.047000", "161653.050000", "161653.053000", "161653.057000", "161653.060000", "161653.063000", "161653.066000", "161653.069000", "161712.980000", "161712.983000", "161712.986000", "161712.989000", "161712.992000", "161712.995000", "161712.998000", "161713.002000", "161713.005000", "161713.008000", "161713.011000", "161713.014000", "161713.017000", "161713.020000", "161713.023000", "161713.026000", "161713.029000", "161713.032000", "161713.035000", "161713.038000", "161713.041000", "161713.044000", "161713.047000", "161713.050000", "161713.053000", "161713.056000", "161713.059000", "161713.062000", "161732.981000", "161732.984000", "161732.987000", "161732.990000", "161732.993000", "161732.996000", "161733.000000", "161733.003000", "161733.006000", "161733.009000", "161733.012000", "161733.015000", "161733.018000", "161733.022000", "161733.025000", "161733.028000", "161733.031000", "161733.034000", "161733.037000", "161733.040000", "161733.043000", "161733.046000", "161733.049000", "161733.052000", "161733.055000", "161733.067000", "161733.070000", "161733.073000", "161752.981000", "161752.984000", "161752.987000", "161752.990000", "161752.993000", "161752.996000", "161753.000000", "161753.003000", "161753.006000", "161753.009000", "161753.012000", "161753.015000", "161753.018000", "161753.021000", "161753.024000", "161753.027000", "161753.030000", "161753.033000", "161753.036000", "161753.048000", "161753.051000", "161753.054000", "161753.057000", "161753.060000", "161753.063000", "161753.082000", "161753.085000", "161753.088000", "161753.091000", "161812.981000", "161812.984000", "161812.987000", "161812.990000", "161812.993000", "161812.996000", "161813.000000", "161813.003000", "161813.006000", "161813.009000", "161813.012000", "161813.015000", "161813.018000", "161813.021000", "161813.024000", "161813.027000", "161813.030000", "161813.033000", "161813.036000", "161813.039000", "161813.042000", "161813.045000", "161813.048000", "161813.051000", "161832.981000", "161832.984000", "161832.987000", "161832.990000", "161832.993000", "161832.996000", "161833.000000", "161833.003000", "161833.006000", "161833.009000", "161833.012000", "161833.015000", "161833.018000", "161833.022000", "161833.025000", "161833.028000", "161833.031000", "161833.034000", "161833.037000", "161833.040000", "161852.980000", "161852.983000", "161852.986000", "161852.989000", "161852.992000", "161852.995000", "161852.998000", "161853.002000", "161853.005000", "161853.008000", "161853.012000", "161853.015000", "161853.018000", "161853.021000", "161853.024000", "161853.027000", "161853.030000", "161853.033000", "161853.036000", "161853.039000", "161912.980000", "161912.983000", "161912.986000", "161912.989000", "161912.992000", "161912.995000", "161912.998000", "161913.002000", "161913.005000", "161913.008000", "161913.011000", "161913.014000", "161913.017000", "161913.020000", "161913.023000", "161913.026000", "161913.029000", "161913.033000", "161913.036000", "161913.039000", "161932.980000", "161932.983000", "161932.986000", "161932.989000", "161932.992000", "161932.995000", "161932.998000", "161933.002000", "161933.005000", "161933.008000", "161933.011000", "161933.014000", "161933.017000", "161933.020000", "161933.023000", "161933.026000", "161933.029000", "161933.032000", "161933.035000", "161933.039000", "161952.983000", "161952.986000", "161952.989000", "161952.992000", "161952.995000", "161952.998000", "161953.002000", "161953.005000", "161953.008000", "161953.011000", "161953.014000", "161953.017000", "161953.020000", "161953.023000", "161953.026000", "161953.029000", "161953.032000", "161953.035000", "161953.038000", "161953.041000", "162007.835000", "162007.838000", "162007.841000", "162007.844000", "162007.847000", "162007.850000", "162007.853000", "162007.857000", "162007.860000", "162007.863000", "162007.866000", "162007.869000", "162007.872000", "162007.875000", "162007.878000"],
      "InstanceNumber": [1, 2, 3, 4, 5, 6, 7, 8, 9, 10, 11, 12, 13, 14, 15, 16, 17, 18, 19, 20, 21, 22, 23, 24, 25, 26, 27, 28, 29, 30, 31, 32, 33, 34, 35, 36, 37, 38, 39, 40, 41, 42, 43, 44, 45, 46, 47, 48, 49, 50, 51, 52, 53, 54, 55, 56, 57, 58, 59, 60, 61, 62, 63, 64, 65, 66, 67, 68, 69, 70, 71, 72, 73, 74, 75, 76, 77, 78, 79, 80, 81, 82, 83, 84, 85, 86, 87, 88, 89, 90, 91, 92, 93, 94, 95, 96, 97, 98, 99, 100, 101, 102, 103, 104, 105, 106, 107, 108, 109, 110, 111, 112, 113, 114, 115, 116, 117, 118, 119, 120, 121, 122, 123, 124, 125, 126, 127, 128, 129, 130, 131, 132, 133, 134, 135, 136, 137, 138, 139, 140, 141, 142, 143, 144, 145, 146, 147, 148, 149, 150, 151, 152, 153, 154, 155, 156, 157, 158, 159, 160, 161, 162, 163, 164, 165, 166, 167, 168, 169, 170, 171, 172, 173, 174, 175, 176, 177, 178, 179, 180, 181, 182, 183, 184, 185, 186, 187, 188, 189, 190, 191, 192, 193, 194, 195, 196, 197, 198, 199, 200, 201, 202, 203, 204, 205, 206, 207, 208, 209, 210, 211, 212, 213, 214, 215, 216, 217, 218, 219, 220, 221, 222, 223, 224, 225, 226, 227, 228, 229, 230, 231, 232, 233, 234, 235, 236, 237, 238, 239, 240, 241, 242, 243, 244, 245, 246, 247, 248, 249, 250, 251, 252, 253, 254, 255, 256, 257, 258, 259, 260, 261, 262, 263, 264, 265, 266, 267, 268, 269, 270, 271, 272, 273, 274, 275, 276, 277, 278, 279, 280, 281, 282, 283, 284, 285, 286, 287, 288, 289, 290, 291, 292, 293, 294, 295, 296, 297, 298, 299, 300],
      "LargestImagePixelValue": [33942, 32806, 32785, 33256, 32117, 31901, 32538, 32206, 32225, 32469, 32508, 32366, 32344, 32863, 32165, 32325, 32204, 32207, 31884, 32757, 31779, 31810, 32144, 32825, 32236, 31976, 32706, 32416, 31950, 32709, 32947, 32310, 31952, 33106, 32571, 32572, 33277, 32321, 32029, 32578, 32201, 32594, 32876, 31806, 32044, 32010, 32799, 32075, 31797, 32571, 31886, 31677, 32130, 31988, 31702, 31996, 32506, 31790, 31876, 32408, 32609, 31430, 32345, 32807, 31869, 31993, 32791, 32465, 32064, 32328, 32423, 31744, 32132, 32443, 31709, 31778, 32111, 32013, 31755, 31756, 32751, 31728, 31738, 32389, 32157, 31848, 32018, 32484, 31355, 31723, 32268, 31731, 31561, 32417, 31693, 31713, 32459, 32676, 31811, 31732, 32448, 31917, 31508, 31647, 32086, 31607, 31540, 32290, 32384, 31086, 31407, 32126, 31795, 31362, 31542, 32557, 31448, 31938, 31939, 31594, 31521, 31819, 31993, 31652, 31520, 32214, 32007, 31910, 31892, 32275, 31637, 31653, 32549, 31573, 31855, 31816, 31885, 31880, 31613, 32033, 32053, 31678, 31968, 31694, 31835, 31613, 32048, 32116, 31691, 31900, 31801, 31859, 32093, 31944, 31808, 31803, 31594, 32067, 31860, 31822, 32161, 32105, 32397, 31926, 32335, 32027, 31968, 32160, 32065, 32341, 32038, 32117, 32162, 31969, 32147, 32104, 32112, 32057, 31935, 32558, 32153, 32416, 32427, 32436, 32367, 32452, 32388, 32068, 32268, 32088, 31846, 32287, 32808, 32176, 32287, 32362, 32520, 32320, 32143, 32320, 32103, 32094, 32263, 31974, 32028, 32333, 32355, 32405, 32280, 32531, 32507, 32036, 32662, 32409, 32177, 32062, 32160, 32085, 32158, 32264, 32448, 32076, 32164, 32131, 32157, 31955, 32230, 32366, 32125, 32237, 32267, 32327, 31963, 32243, 32037, 31851, 32373, 31960, 32328, 32241, 32407, 32022, 32239, 32153, 32114, 32682, 32417, 32312, 32179, 32493, 31890, 32221, 32331, 32384, 31926, 32624, 32564, 32200, 32190, 32535, 32105, 32151, 32449, 32405, 32462, 32349, 32430, 32602, 32548, 32447, 32731, 32519, 32487, 32471, 32540, 32612, 32356, 32526, 32952, 32617, 33081, 32500, 33480, 33102, 33115, 33486, 32810, 32759, 32432, 32215, 32517, 32485, 32856, 32707, 32179, 33255, 32262, 32426, 32345, 32611],
      "WindowCenter": [9359.0, 9317.0, 9312.0, 9315.0, 9298.0, 9305.0, 9318.0, 9304.0, 9295.0, 9303.0, 9309.0, 9302.0, 9302.0, 9306.0, 9285.0, 9291.0, 9293.0, 9285.0, 9286.0, 9300.0, 9289.0, 9290.0, 9297.0, 9309.0, 9304.0, 9297.0, 9311.0, 9304.0, 9304.0, 9319.0, 9318.0, 9312.0, 9307.0, 9326.0, 9320.0, 9320.0, 9332.0, 9312.0, 9299.0, 9312.0, 9305.0, 9310.0, 9309.0, 9283.0, 9295.0, 9289.0, 9293.0, 9278.0, 9275.0, 9291.0, 9280.0, 9280.0, 9294.0, 9280.0, 9282.0, 9289.0, 9300.0, 9281.0, 9294.0, 9297.0, 9302.0, 9284.0, 9298.0, 9310.0, 9298.0, 9299.0, 9312.0, 9298.0, 9297.0, 9297.0, 9296.0, 9291.0, 9298.0, 9296.0, 9276.0, 9274.0, 9281.0, 9271.0, 9271.0, 9274.0, 9294.0, 9282.0, 9289.0, 9296.0, 9283.0, 9289.0, 9282.0, 9287.0, 9261.0, 9267.0, 9278.0, 9265.0, 9273.0, 9295.0, 9282.0, 9284.0, 9303.0, 9296.0, 9285.0, 9285.0, 9298.0, 9283.0, 9279.0, 9283.0, 9288.0, 9274.0, 9274.0, 9284.0, 9276.0, 9258.0, 9259.0, 9272.0, 9271.0, 9266.0, 9274.0, 9283.0, 9267.0, 9273.0, 9279.0, 9265.0, 9271.0, 9266.0, 9269.0, 9257.0, 9263.0, 9277.0, 9270.0, 9277.0, 9287.0, 9286.0, 9276.0, 9281.0, 9294.0, 9283.0, 9282.0, 9284.0, 9282.0, 9282.0, 9275.0, 9280.0, 9279.0, 9275.0, 9282.0, 9273.0, 9273.0, 9273.0, 9278.0, 9272.0, 9272.0, 9275.0, 9268.0, 9280.0, 9279.0, 9272.0, 9259.0, 9265.0, 9273.0, 9279.0, 9288.0, 9284.0, 9298.0, 9283.0, 9288.0, 9281.0, 9285.0, 9277.0, 9279.0, 9287.0, 9287.0, 9291.0, 9287.0, 9288.0, 9296.0, 9292.0, 9291.0, 9291.0, 9291.0, 9292.0, 9290.0, 9303.0, 9306.0, 9314.0, 9307.0, 9300.0, 9306.0, 9297.0, 9288.0, 9282.0, 9280.0, 9282.0, 9291.0, 9299.0, 9309.0, 9296.0, 9298.0, 9296.0, 9303.0, 9297.0, 9290.0, 9296.0, 9297.0, 9297.0, 9294.0, 9296.0, 9297.0, 9304.0, 9304.0, 9306.0, 9312.0, 9312.0, 9311.0, 9291.0, 9300.0, 9295.0, 9296.0, 9289.0, 9286.0, 9287.0, 9288.0, 9294.0, 9294.0, 9288.0, 9290.0, 9281.0, 9282.0, 9282.0, 9287.0, 9289.0, 9289.0, 9304.0, 9302.0, 9295.0, 9290.0, 9302.0, 9289.0, 9289.0, 9296.0, 9288.0, 9302.0, 9299.0, 9310.0, 9291.0, 9304.0, 9299.0, 9301.0, 9303.0, 9297.0, 9304.0, 9289.0, 9294.0, 9287.0, 9286.0, 9292.0, 9294.0, 9289.0, 9293.0, 9296.0, 9298.0, 9296.0, 9296.0, 9283.0, 9289.0, 9286.0, 9286.0, 9280.0, 9279.0, 9286.0, 9294.0, 9288.0, 9293.0, 9296.0, 9302.0, 9295.0, 9297.0, 9296.0, 9297.0, 9289.0, 9296.0, 9310.0, 9301.0, 9302.0, 9302.0, 9315.0, 9294.0, 9293.0, 9305.0, 9293.0, 9287.0, 9286.0, 9280.0, 9277.0, 9278.0, 9285.0, 9286.0, 9271.0, 9287.0, 9276.0, 9279.0, 9276.0, 9284.0],
