{
  "AcquisitionMatrixPE": 104,
  "AcquisitionNumber": 1,
  "AcquisitionTime": "10:33:32.250000",
  "BandwidthPerPixelPhaseEncode": 16.297,
  "BaseResolution": 104,
  "BodyPartExamined": "BRAIN",
  "ConsistencyInfo": "N4_VE11C_LATEST_20160120",
  "ConversionSoftware": "dcm2niix",
  "ConversionSoftwareVersion": "v1.0.20210317",
  "DerivedVendorReportedEchoSpacing": 0.000590009,
  "DeviceSerialNumber": "166018",
  "DwellTime": 2.1e-06,
  "EchoTime": 0.0376,
  "EchoTrainLength": 104,
  "EffectiveEchoSpacing": 0.000590009,
  "FlipAngle": 68,
  "ImageComments": "Unaliased MB6/PE3/LB",
  "ImageOrientationPatientDICOM": [0.998614, -0.0429183, -0.0304615, 0.0401085, 0.995355, -0.0875219],
  "ImageType": [
    "ORIGINAL",
    "PRIMARY",
    "M",
    "MB",
    "ND",
    "MOSAIC"
],
  "ImagingFrequency": 123.197,
  "InPlanePhaseEncodingDirectionDICOM": "COL",
  "InstitutionAddress": "Washington Place 6,NYC,NYC,US,10003",
  "InstitutionName": "NYU - CBI",
  "InstitutionalDepartmentName": "Department",
  "MRAcquisitionType": "2D",
  "MagneticFieldStrength": 3,
  "Manufacturer": "Siemens",
  "ManufacturersModelName": "Prisma",
  "Modality": "MR",
  "MultibandAccelerationFactor": 6,
  "PartialFourier": 1,
  "PatientPosition": "HFS",
  "PercentPhaseFOV": 100,
  "PercentSampling": 100,
  "PhaseEncodingDirection": "j",
  "PhaseEncodingSteps": 104,
  "PhaseResolution": 1,
  "PixelBandwidth": 2290,
  "ProcedureStepDescription": "Investigators^Winawer",
  "ProtocolName": "cmrr_mbepi_s6_2mm_66sl_PA_task-wedgering2",
  "PulseSequenceDetails": "%CustomerSeq%\\cmrr_mbep2d_bold",
  "ReceiveCoilActiveElements": "HC1-7",
  "ReceiveCoilName": "HeadNeck_64",
  "ReconMatrixPE": 104,
  "RepetitionTime": 1,
  "SAR": 0.0729854,
  "ScanOptions": "FS",
  "ScanningSequence": "EP",
  "SequenceName": "epfid2d1_104",
  "SequenceVariant": "SK\\SS",
  "SeriesDescription": "cmrr_mbepi_s6_2mm_66sl_PA_task-wedgering2",
  "SeriesNumber": 14,
  "ShimSetting": [267, -12591, -8530, 244, -32, 10, -33, 60],
  "SliceThickness": 2,
  "SliceTiming": [0, 0.535, 0.09, 0.625, 0.18, 0.7125, 0.2675, 0.8025, 0.3575, 0.8925, 0.4475, 0, 0.535, 0.09, 0.625, 0.18, 0.7125, 0.2675, 0.8025, 0.3575, 0.8925, 0.4475, 0, 0.535, 0.09, 0.625, 0.18, 0.7125, 0.2675, 0.8025, 0.3575, 0.8925, 0.4475, 0, 0.535, 0.09, 0.625, 0.18, 0.7125, 0.2675, 0.8025, 0.3575, 0.8925, 0.4475, 0, 0.535, 0.09, 0.625, 0.18, 0.7125, 0.2675, 0.8025, 0.3575, 0.8925, 0.4475, 0, 0.535, 0.09, 0.625, 0.18, 0.7125, 0.2675, 0.8025, 0.3575, 0.8925, 0.4475],
  "SoftwareVersions": "syngo MR E11",
  "SpacingBetweenSlices": 2,
  "StationName": "AWP166018",
  "TaskName": "wedgering2",
  "TotalReadoutTime": 0.060771,
  "TxRefAmp": 213.709,
  "VendorReportedEchoSpacing": 0.00059,
  "WipMemBlock": "7495046f-daba-49b4-908d-212056b1cd95||Sequence: R016 ve11c/master r/8780670; Nov 27 2017 15:05:12 by eja",
  "dcmmeta_affine": [
    [-1.9972281455993652, 0.08021703362464905, -0.06815261393785477, 107.39866638183594],
    [0.08583668619394302, 1.990709662437439, -0.17235776782035828, -83.09314727783203],
    [-0.060923021286726, 0.17504389584064484, 1.9913934469223022, -40.47085189819336],
    [0.0, 0.0, 0.0, 1.0]
],
  "dcmmeta_reorient_transform": [
    [0.0, -1.0, 0.0, 103.0],
    [1.0, 0.0, 0.0, 0.0],
    [0.0, 0.0, 1.0, 0.0],
    [0.0, 0.0, 0.0, 1.0]
],
  "dcmmeta_shape": [104, 104, 66, 300],
  "dcmmeta_slice_dim": 2,
  "dcmmeta_version": 0.6,
  "global": {
    "const": {
      "AccessionNumber": "Lesn0ypp",
      "AcquisitionMatrix": [104, 0, 0, 104],
      "AngioFlag": "N",
      "BitsAllocated": 16,
      "BitsStored": 16,
      "BodyPartExamined": "BRAIN",
      "Columns": 936,
      "EchoNumbers": 1,
      "EchoTime": 37.6,
      "EchoTrainLength": 104,
      "FlipAngle": 68.0,
      "HighBit": 15,
      "ImageOrientationPatient": [0.99861409574136, -0.0429183433295, -0.030461510017, 0.04010851562974, 0.99535481870828, -0.0875219506649],
      "ImagePositionPatient": [-979.8782310303, -914.37709017938, 75.720910311533],
      "ImageType": [
        "ORIGINAL",
        "PRIMARY",
        "M",
        "MB",
        "ND",
        "MOSAIC"
],
      "ImagedNucleus": "1H",
      "ImagingFrequency": 123.196847,
      "InPlanePhaseEncodingDirection": "COL",
      "MRAcquisitionType": "2D",
      "MagneticFieldStrength": 3.0,
      "Manufacturer": "SIEMENS",
      "ManufacturerModelName": "Prisma",
      "Modality": "MR",
      "NumberOfAverages": 1.0,
      "NumberOfPhaseEncodingSteps": 104,
      "PercentPhaseFieldOfView": 100.0,
      "PercentSampling": 100.0,
      "PerformedProcedureStepStartTime": "095149.684000",
      "PhotometricInterpretation": "MONOCHROME2",
      "PixelBandwidth": 2290.0,
      "PixelRepresentation": 0,
      "PixelSpacing": [2.0, 2.0],
      "ProtocolName": "cmrr_mbepi_s6_2mm_66sl_PA_task-wedgering2",
      "RepetitionTime": 1000.0,
      "Rows": 936,
      "SAR": 0.07298536732566,
      "SamplesPerPixel": 1,
      "ScanOptions": "FS",
      "ScanningSequence": "EP",
      "SequenceName": "epfid2d1_104",
      "SequenceVariant": [
        "SK",
        "SS"
],
      "SeriesDescription": "cmrr_mbepi_s6_2mm_66sl_PA_task-wedgering2",
      "SeriesNumber": 14,
      "SeriesTime": "103446.495000",
      "SliceLocation": -36.795569061026,
      "SliceThickness": 2.0,
      "SmallestImagePixelValue": 0,
      "SoftwareVersions": "syngo MR E11",
      "SpacingBetweenSlices": 1.9999999699856,
      "SpecificCharacterSet": "ISO_IR 100",
      "StudyID": "1",
      "StudyTime": "095149.616000",
      "TransmitCoilName": "Body",
      "VariableFlipAngleFlag": "N",
      "WindowCenterWidthExplanation": "Algo1",
      "dBdt": 0.0},
    "slices": {}
  },
  "time": {
    "samples": {
      "AcquisitionNumber": [1, 2, 3, 4, 5, 6, 7, 8, 9, 10, 11, 12, 13, 14, 15, 16, 17, 18, 19, 20, 21, 22, 23, 24, 25, 26, 27, 28, 29, 30, 31, 32, 33, 34, 35, 36, 37, 38, 39, 40, 41, 42, 43, 44, 45, 46, 47, 48, 49, 50, 51, 52, 53, 54, 55, 56, 57, 58, 59, 60, 61, 62, 63, 64, 65, 66, 67, 68, 69, 70, 71, 72, 73, 74, 75, 76, 77, 78, 79, 80, 81, 82, 83, 84, 85, 86, 87, 88, 89, 90, 91, 92, 93, 94, 95, 96, 97, 98, 99, 100, 101, 102, 103, 104, 105, 106, 107, 108, 109, 110, 111, 112, 113, 114, 115, 116, 117, 118, 119, 120, 121, 122, 123, 124, 125, 126, 127, 128, 129, 130, 131, 132, 133, 134, 135, 136, 137, 138, 139, 140, 141, 142, 143, 144, 145, 146, 147, 148, 149, 150, 151, 152, 153, 154, 155, 156, 157, 158, 159, 160, 161, 162, 163, 164, 165, 166, 167, 168, 169, 170, 171, 172, 173, 174, 175, 176, 177, 178, 179, 180, 181, 182, 183, 184, 185, 186, 187, 188, 189, 190, 191, 192, 193, 194, 195, 196, 197, 198, 199, 200, 201, 202, 203, 204, 205, 206, 207, 208, 209, 210, 211, 212, 213, 214, 215, 216, 217, 218, 219, 220, 221, 222, 223, 224, 225, 226, 227, 228, 229, 230, 231, 232, 233, 234, 235, 236, 237, 238, 239, 240, 241, 242, 243, 244, 245, 246, 247, 248, 249, 250, 251, 252, 253, 254, 255, 256, 257, 258, 259, 260, 261, 262, 263, 264, 265, 266, 267, 268, 269, 270, 271, 272, 273, 274, 275, 276, 277, 278, 279, 280, 281, 282, 283, 284, 285, 286, 287, 288, 289, 290, 291, 292, 293, 294, 295, 296, 297, 298, 299, 300],
      "AcquisitionTime": ["103332.250000", "103333.250000", "103334.250000", "103335.250000", "103336.250000", "103337.250000", "103338.250000", "103339.250000", "103340.250000", "103341.250000", "103342.250000", "103343.250000", "103344.250000", "103345.250000", "103346.250000", "103347.250000", "103348.250000", "103349.250000", "103350.250000", "103351.250000", "103352.250000", "103353.250000", "103354.250000", "103355.250000", "103356.250000", "103357.250000", "103358.250000", "103359.250000", "103400.250000", "103401.250000", "103402.250000", "103403.250000", "103404.250000", "103405.250000", "103406.250000", "103407.250000", "103408.250000", "103409.250000", "103410.250000", "103411.250000", "103412.250000", "103413.250000", "103414.250000", "103415.250000", "103416.250000", "103417.250000", "103418.250000", "103419.250000", "103420.250000", "103421.250000", "103422.250000", "103423.250000", "103424.250000", "103425.250000", "103426.250000", "103427.250000", "103428.250000", "103429.250000", "103430.250000", "103431.250000", "103432.250000", "103433.250000", "103434.250000", "103435.250000", "103436.250000", "103437.250000", "103438.250000", "103439.250000", "103440.250000", "103441.250000", "103442.250000", "103443.250000", "103444.250000", "103445.250000", "103446.250000", "103447.250000", "103448.250000", "103449.250000", "103450.250000", "103451.250000", "103452.250000", "103453.250000", "103454.250000", "103455.250000", "103456.250000", "103457.250000", "103458.250000", "103459.250000", "103500.250000", "103501.250000", "103502.250000", "103503.250000", "103504.250000", "103505.250000", "103506.250000", "103507.250000", "103508.250000", "103509.250000", "103510.250000", "103511.250000", "103512.250000", "103513.250000", "103514.250000", "103515.250000", "103516.250000", "103517.250000", "103518.250000", "103519.250000", "103520.250000", "103521.250000", "103522.250000", "103523.250000", "103524.250000", "103525.250000", "103526.250000", "103527.250000", "103528.250000", "103529.250000", "103530.250000", "103531.250000", "103532.250000", "103533.250000", "103534.250000", "103535.250000", "103536.250000", "103537.250000", "103538.250000", "103539.250000", "103540.250000", "103541.250000", "103542.250000", "103543.250000", "103544.250000", "103545.250000", "103546.250000", "103547.250000", "103548.250000", "103549.250000", "103550.250000", "103551.250000", "103552.250000", "103553.250000", "103554.250000", "103555.250000", "103556.250000", "103557.250000", "103558.250000", "103559.250000", "103600.250000", "103601.250000", "103602.250000", "103603.250000", "103604.250000", "103605.250000", "103606.250000", "103607.250000", "103608.250000", "103609.250000", "103610.250000", "103611.250000", "103612.250000", "103613.250000", "103614.250000", "103615.250000", "103616.250000", "103617.250000", "103618.250000", "103619.250000", "103620.250000", "103621.250000", "103622.250000", "103623.250000", "103624.250000", "103625.250000", "103626.250000", "103627.250000", "103628.250000", "103629.250000", "103630.250000", "103631.250000", "103632.250000", "103633.250000", "103634.250000", "103635.250000", "103636.250000", "103637.250000", "103638.250000", "103639.250000", "103640.250000", "103641.250000", "103642.250000", "103643.250000", "103644.250000", "103645.250000", "103646.250000", "103647.250000", "103648.250000", "103649.250000", "103650.250000", "103651.250000", "103652.250000", "103653.250000", "103654.250000", "103655.250000", "103656.250000", "103657.250000", "103658.250000", "103659.250000", "103700.250000", "103701.250000", "103702.250000", "103703.250000", "103704.250000", "103705.250000", "103706.250000", "103707.250000", "103708.250000", "103709.250000", "103710.250000", "103711.250000", "103712.250000", "103713.250000", "103714.250000", "103715.250000", "103716.250000", "103717.250000", "103718.250000", "103719.250000", "103720.250000", "103721.250000", "103722.250000", "103723.250000", "103724.250000", "103725.250000", "103726.250000", "103727.250000", "103728.250000", "103729.250000", "103730.250000", "103731.250000", "103732.250000", "103733.250000", "103734.250000", "103735.250000", "103736.250000", "103737.250000", "103738.250000", "103739.250000", "103740.250000", "103741.250000", "103742.250000", "103743.250000", "103744.250000", "103745.250000", "103746.250000", "103747.250000", "103748.250000", "103749.250000", "103750.250000", "103751.250000", "103752.250000", "103753.250000", "103754.250000", "103755.250000", "103756.250000", "103757.250000", "103758.250000", "103759.250000", "103800.250000", "103801.250000", "103802.250000", "103803.250000", "103804.250000", "103805.250000", "103806.250000", "103807.250000", "103808.250000", "103809.250000", "103810.250000", "103811.250000", "103812.250000", "103813.250000", "103814.250000", "103815.250000", "103816.250000", "103817.250000", "103818.250000", "103819.250000", "103820.250000", "103821.250000", "103822.250000", "103823.250000", "103824.250000", "103825.250000", "103826.250000", "103827.250000", "103828.250000", "103829.250000", "103830.250000", "103831.250000"],
      "ContentTime": ["103446.498000", "103446.501000", "103446.504000", "103446.516000", "103446.519000", "103446.522000", "103446.525000", "103446.528000", "103446.531000", "103446.534000", "103446.536000", "103446.540000", "103446.543000", "103446.546000", "103446.549000", "103446.552000", "103446.555000", "103446.558000", "103446.561000", "103446.563000", "103446.566000", "103446.569000", "103446.572000", "103446.576000", "103446.578000", "103446.582000", "103446.585000", "103446.597000", "103446.600000", "103446.603000", "103446.606000", "103446.609000", "103446.612000", "103446.615000", "103446.618000", "103506.461000", "103506.464000", "103506.467000", "103506.470000", "103506.473000", "103506.476000", "103506.479000", "103506.482000", "103506.485000", "103506.488000", "103506.491000", "103506.494000", "103506.497000", "103506.500000", "103506.503000", "103506.506000", "103506.509000", "103506.511000", "103506.514000", "103506.517000", "103506.525000", "103506.528000", "103506.531000", "103506.534000", "103506.537000", "103506.540000", "103506.543000", "103506.546000", "103506.548000", "103526.461000", "103526.464000", "103526.467000", "103526.470000", "103526.473000", "103526.476000", "103526.479000", "103526.498000", "103526.501000", "103526.504000", "103526.507000", "103526.510000", "103526.513000", "103526.516000", "103526.519000", "103526.522000", "103526.524000", "103526.527000", "103526.530000", "103526.533000", "103526.536000", "103526.539000", "103526.542000", "103526.545000", "103526.548000", "103526.551000", "103526.554000", "103526.557000", "103546.461000", "103546.464000", "103546.467000", "103546.470000", "103546.473000", "103546.476000", "103546.479000", "103546.482000", "103546.485000", "103546.488000", "103546.491000", "103546.494000", "103546.497000", "103546.500000", "103546.503000", "103546.506000", "103546.509000", "103546.512000", "103546.515000", "103546.518000", "103546.520000", "103546.523000", "103546.526000", "103546.529000", "103546.532000", "103546.535000", "103546.538000", "103546.541000", "103546.558000", "103606.461000", "103606.464000", "103606.467000", "103606.470000", "103606.473000", "103606.476000", "103606.479000", "103606.482000", "103606.485000", "103606.488000", "103606.491000", "103606.494000", "103606.497000", "103606.500000", "103606.503000", "103606.506000", "103606.509000", "103606.512000", "103606.515000", "103606.518000", "103606.521000", "103606.524000", "103606.527000", "103606.530000", "103606.533000", "103606.536000", "103606.539000", "103606.542000", "103626.461000", "103626.464000", "103626.467000", "103626.470000", "103626.473000", "103626.476000", "103626.479000", "103626.482000", "103626.485000", "103626.488000", "103626.491000", "103626.494000", "103626.497000", "103626.500000", "103626.503000", "103626.506000", "103626.509000", "103626.519000", "103626.522000", "103626.525000", "103626.528000", "103626.531000", "103626.534000", "103626.537000", "103626.540000", "103646.461000", "103646.464000", "103646.467000", "103646.470000", "103646.473000", "103646.476000", "103646.479000", "103646.482000", "103646.485000", "103646.488000", "103646.491000", "103646.494000", "103646.497000", "103646.500000", "103646.503000", "103646.506000", "103646.509000", "103646.512000", "103646.515000", "103646.518000", "103706.461000", "103706.464000", "103706.467000", "103706.470000", "103706.473000", "103706.476000", "103706.479000", "103706.482000", "103706.485000", "103706.488000", "103706.491000", "103706.494000", "103706.497000", "103706.500000", "103706.503000", "103706.515000", "103706.518000", "103706.521000", "103706.524000", "103706.527000", "103726.461000", "103726.464000", "103726.467000", "103726.470000", "103726.473000", "103726.476000", "103726.479000", "103726.482000", "103726.485000", "103726.488000", "103726.491000", "103726.494000", "103726.497000", "103726.500000", "103726.503000", "103726.506000", "103726.509000", "103726.512000", "103726.515000", "103726.518000", "103746.461000", "103746.464000", "103746.467000", "103746.470000", "103746.473000", "103746.476000", "103746.479000", "103746.482000", "103746.485000", "103746.488000", "103746.491000", "103746.494000", "103746.497000", "103746.500000", "103746.503000", "103746.506000", "103746.509000", "103746.512000", "103746.515000", "103746.518000", "103806.461000", "103806.464000", "103806.467000", "103806.470000", "103806.473000", "103806.476000", "103806.479000", "103806.482000", "103806.485000", "103806.488000", "103806.491000", "103806.494000", "103806.497000", "103806.500000", "103806.503000", "103806.506000", "103806.509000", "103806.512000", "103806.515000", "103806.518000", "103826.461000", "103826.464000", "103826.467000", "103826.470000", "103826.473000", "103826.476000", "103826.479000", "103826.482000", "103826.485000", "103826.488000", "103826.491000", "103826.494000", "103826.497000", "103826.500000", "103826.503000", "103826.506000", "103826.509000", "103826.512000", "103826.515000", "103826.518000", "103832.446000", "103832.450000", "103832.453000", "103832.456000", "103832.458000", "103832.462000"],
      "InstanceCreationTime": ["103446.498000", "103446.501000", "103446.504000", "103446.516000", "103446.519000", "103446.522000", "103446.525000", "103446.528000", "103446.531000", "103446.534000", "103446.536000", "103446.540000", "103446.543000", "103446.546000", "103446.549000", "103446.552000", "103446.555000", "103446.558000", "103446.561000", "103446.563000", "103446.566000", "103446.569000", "103446.572000", "103446.576000", "103446.578000", "103446.582000", "103446.585000", "103446.597000", "103446.600000", "103446.603000", "103446.606000", "103446.609000", "103446.612000", "103446.615000", "103446.618000", "103506.461000", "103506.464000", "103506.467000", "103506.470000", "103506.473000", "103506.476000", "103506.479000", "103506.482000", "103506.485000", "103506.488000", "103506.491000", "103506.494000", "103506.497000", "103506.500000", "103506.503000", "103506.506000", "103506.509000", "103506.511000", "103506.514000", "103506.517000", "103506.525000", "103506.528000", "103506.531000", "103506.534000", "103506.537000", "103506.540000", "103506.543000", "103506.546000", "103506.548000", "103526.461000", "103526.464000", "103526.467000", "103526.470000", "103526.473000", "103526.476000", "103526.479000", "103526.498000", "103526.501000", "103526.504000", "103526.507000", "103526.510000", "103526.513000", "103526.516000", "103526.519000", "103526.522000", "103526.524000", "103526.527000", "103526.530000", "103526.533000", "103526.536000", "103526.539000", "103526.542000", "103526.545000", "103526.548000", "103526.551000", "103526.554000", "103526.557000", "103546.461000", "103546.464000", "103546.467000", "103546.470000", "103546.473000", "103546.476000", "103546.479000", "103546.482000", "103546.485000", "103546.488000", "103546.491000", "103546.494000", "103546.497000", "103546.500000", "103546.503000", "103546.506000", "103546.509000", "103546.512000", "103546.515000", "103546.518000", "103546.520000", "103546.523000", "103546.526000", "103546.529000", "103546.532000", "103546.535000", "103546.538000", "103546.541000", "103546.558000", "103606.461000", "103606.464000", "103606.467000", "103606.470000", "103606.473000", "103606.476000", "103606.479000", "103606.482000", "103606.485000", "103606.488000", "103606.491000", "103606.494000", "103606.497000", "103606.500000", "103606.503000", "103606.506000", "103606.509000", "103606.512000", "103606.515000", "103606.518000", "103606.521000", "103606.524000", "103606.527000", "103606.530000", "103606.533000", "103606.536000", "103606.539000", "103606.542000", "103626.461000", "103626.464000", "103626.467000", "103626.470000", "103626.473000", "103626.476000", "103626.479000", "103626.482000", "103626.485000", "103626.488000", "103626.491000", "103626.494000", "103626.497000", "103626.500000", "103626.503000", "103626.506000", "103626.509000", "103626.519000", "103626.522000", "103626.525000", "103626.528000", "103626.531000", "103626.534000", "103626.537000", "103626.540000", "103646.461000", "103646.464000", "103646.467000", "103646.470000", "103646.473000", "103646.476000", "103646.479000", "103646.482000", "103646.485000", "103646.488000", "103646.491000", "103646.494000", "103646.497000", "103646.500000", "103646.503000", "103646.506000", "103646.509000", "103646.512000", "103646.515000", "103646.518000", "103706.461000", "103706.464000", "103706.467000", "103706.470000", "103706.473000", "103706.476000", "103706.479000", "103706.482000", "103706.485000", "103706.488000", "103706.491000", "103706.494000", "103706.497000", "103706.500000", "103706.503000", "103706.515000", "103706.518000", "103706.521000", "103706.524000", "103706.527000", "103726.461000", "103726.464000", "103726.467000", "103726.470000", "103726.473000", "103726.476000", "103726.479000", "103726.482000", "103726.485000", "103726.488000", "103726.491000", "103726.494000", "103726.497000", "103726.500000", "103726.503000", "103726.506000", "103726.509000", "103726.512000", "103726.515000", "103726.518000", "103746.461000", "103746.464000", "103746.467000", "103746.470000", "103746.473000", "103746.476000", "103746.479000", "103746.482000", "103746.485000", "103746.488000", "103746.491000", "103746.494000", "103746.497000", "103746.500000", "103746.503000", "103746.506000", "103746.509000", "103746.512000", "103746.515000", "103746.518000", "103806.461000", "103806.464000", "103806.467000", "103806.470000", "103806.473000", "103806.476000", "103806.479000", "103806.482000", "103806.485000", "103806.488000", "103806.491000", "103806.494000", "103806.497000", "103806.500000", "103806.503000", "103806.506000", "103806.509000", "103806.512000", "103806.515000", "103806.518000", "103826.461000", "103826.464000", "103826.467000", "103826.470000", "103826.473000", "103826.476000", "103826.479000", "103826.482000", "103826.485000", "103826.488000", "103826.491000", "103826.494000", "103826.497000", "103826.500000", "103826.503000", "103826.506000", "103826.509000", "103826.512000", "103826.515000", "103826.518000", "103832.446000", "103832.450000", "103832.453000", "103832.456000", "103832.458000", "103832.462000"],
      "InstanceNumber": [1, 2, 3, 4, 5, 6, 7, 8, 9, 10, 11, 12, 13, 14, 15, 16, 17, 18, 19, 20, 21, 22, 23, 24, 25, 26, 27, 28, 29, 30, 31, 32, 33, 34, 35, 36, 37, 38, 39, 40, 41, 42, 43, 44, 45, 46, 47, 48, 49, 50, 51, 52, 53, 54, 55, 56, 57, 58, 59, 60, 61, 62, 63, 64, 65, 66, 67, 68, 69, 70, 71, 72, 73, 74, 75, 76, 77, 78, 79, 80, 81, 82, 83, 84, 85, 86, 87, 88, 89, 90, 91, 92, 93, 94, 95, 96, 97, 98, 99, 100, 101, 102, 103, 104, 105, 106, 107, 108, 109, 110, 111, 112, 113, 114, 115, 116, 117, 118, 119, 120, 121, 122, 123, 124, 125, 126, 127, 128, 129, 130, 131, 132, 133, 134, 135, 136, 137, 138, 139, 140, 141, 142, 143, 144, 145, 146, 147, 148, 149, 150, 151, 152, 153, 154, 155, 156, 157, 158, 159, 160, 161, 162, 163, 164, 165, 166, 167, 168, 169, 170, 171, 172, 173, 174, 175, 176, 177, 178, 179, 180, 181, 182, 183, 184, 185, 186, 187, 188, 189, 190, 191, 192, 193, 194, 195, 196, 197, 198, 199, 200, 201, 202, 203, 204, 205, 206, 207, 208, 209, 210, 211, 212, 213, 214, 215, 216, 217, 218, 219, 220, 221, 222, 223, 224, 225, 226, 227, 228, 229, 230, 231, 232, 233, 234, 235, 236, 237, 238, 239, 240, 241, 242, 243, 244, 245, 246, 247, 248, 249, 250, 251, 252, 253, 254, 255, 256, 257, 258, 259, 260, 261, 262, 263, 264, 265, 266, 267, 268, 269, 270, 271, 272, 273, 274, 275, 276, 277, 278, 279, 280, 281, 282, 283, 284, 285, 286, 287, 288, 289, 290, 291, 292, 293, 294, 295, 296, 297, 298, 299, 300],
      "LargestImagePixelValue": [41235, 41178, 40446, 40103, 40072, 40134, 39811, 40443, 40658, 39534, 39149, 38887, 38925, 38867, 38930, 39809, 39924, 40182, 39571, 39995, 39285, 38528, 38860, 38966, 38784, 39846, 40699, 40814, 39652, 40965, 40238, 38692, 38470, 38799, 38799, 38037, 39060, 38557, 38508, 38790, 38911, 38420, 38778, 38776, 38137, 38506, 38883, 38949, 39060, 39151, 38666, 38608, 39001, 38607, 38884, 38408, 39176, 39021, 38674, 39072, 38955, 38318, 38324, 38901, 38417, 38459, 38893, 38482, 38876, 39282, 39201, 38682, 38846, 38845, 38683, 38899, 38622, 39130, 38969, 38892, 38802, 39453, 38789, 38874, 38638, 38535, 39126, 38731, 38659, 38447, 39100, 38518, 38567, 38806, 38509, 38499, 39058, 38940, 38743, 38656, 39104, 38700, 38260, 38601, 39008, 38527, 38665, 39252, 38813, 38690, 39066, 39134, 38808, 38894, 40853, 41997, 42184, 43063, 42686, 41643, 40881, 38439, 38879, 39162, 38655, 38846, 38515, 38591, 38546, 38635, 38713, 38942, 38742, 39119, 39151, 38912, 39400, 40731, 40790, 39091, 39004, 40314, 42317, 42947, 43323, 42767, 43486, 43712, 43450, 42608, 43196, 41079, 38767, 38861, 42043, 38776, 38919, 38953, 38756, 38989, 39925, 41624, 39940, 37058, 37144, 37326, 37362, 37442, 37857, 38247, 38269, 38285, 38940, 38488, 38199, 38549, 39142, 39266, 39027, 39263, 39430, 39933, 39704, 39429, 39888, 40067, 38917, 39540, 39986, 39663, 39540, 40342, 40336, 40482, 40303, 40380, 40041, 40074, 40770, 39377, 39773, 39720, 38809, 39326, 39370, 38885, 38969, 39051, 38920, 39547, 39437, 39082, 39832, 39751, 39462, 39779, 40095, 39899, 39335, 39838, 39986, 39833, 39614, 39489, 40451, 39952, 40213, 40302, 39677, 39857, 39804, 39070, 38965, 39567, 39364, 39159, 39284, 39254, 39289, 39923, 39256, 39536, 39687, 41632, 42518, 43593, 44209, 44355, 43884, 43588, 43942, 44119, 43938, 43527, 43928, 43113, 43419, 43918, 43764, 43782, 43793, 43853, 44159, 43847, 44258, 43860, 42616, 41561, 39912, 40274, 39778, 39749, 40084, 39543, 39377, 39793, 39882, 40043, 40069, 40052, 40592, 40301, 39945, 40079, 40265, 39982, 39631, 40113, 40133, 39479, 39879, 40500, 40687, 40357, 40939, 41389, 43052, 42323, 41941, 41909],
      "WindowCenter": [9696.0, 9688.0, 9673.0, 9673.0, 9678.0, 9665.0, 9662.0, 9666.0, 9674.0, 9661.0, 9648.0, 9639.0, 9639.0, 9625.0, 9622.0, 9635.0, 9658.0, 9667.0, 9664.0, 9661.0, 9648.0, 9627.0, 9620.0, 9624.0, 9615.0, 9633.0, 9639.0, 9645.0, 9636.0, 9653.0, 9639.0, 9621.0, 9622.0, 9614.0, 9612.0, 9607.0, 9610.0, 9598.0, 9606.0, 9604.0, 9602.0, 9597.0, 9605.0, 9604.0, 9598.0, 9607.0, 9612.0, 9619.0, 9621.0, 9621.0, 9613.0, 9615.0, 9612.0, 9606.0, 9613.0, 9610.0, 9621.0, 9630.0, 9640.0, 9649.0, 9644.0, 9635.0, 9630.0, 9633.0, 9619.0, 9622.0, 9624.0, 9617.0, 9630.0, 9637.0, 9642.0, 9640.0, 9638.0, 9634.0, 9633.0, 9632.0, 9633.0, 9639.0, 9646.0, 9655.0, 9649.0, 9661.0, 9649.0, 9633.0, 9624.0, 9623.0, 9628.0, 9623.0, 9625.0, 9625.0, 9631.0, 9626.0, 9641.0, 9639.0, 9634.0, 9626.0, 9623.0, 9620.0, 9614.0, 9614.0, 9620.0, 9613.0, 9615.0, 9621.0, 9623.0, 9618.0, 9631.0, 9638.0, 9638.0, 9643.0, 9656.0, 9664.0, 9654.0, 9649.0, 9664.0, 9659.0, 9665.0, 9675.0, 9662.0, 9666.0, 9670.0, 9636.0, 9642.0, 9641.0, 9635.0, 9627.0, 9620.0, 9619.0, 9616.0, 9621.0, 9622.0, 9630.0, 9625.0, 9637.0, 9639.0, 9640.0, 9639.0, 9650.0, 9649.0, 9634.0, 9642.0, 9651.0, 9675.0, 9686.0, 9702.0, 9690.0, 9701.0, 9702.0, 9693.0, 9681.0, 9688.0, 9664.0, 9640.0, 9641.0, 9673.0, 9639.0, 9630.0, 9629.0, 9609.0, 9590.0, 9573.0, 9573.0, 9555.0, 9519.0, 9525.0, 9531.0, 9538.0, 9540.0, 9554.0, 9571.0, 9585.0, 9597.0, 9609.0, 9614.0, 9610.0, 9626.0, 9640.0, 9647.0, 9649.0, 9654.0, 9662.0, 9676.0, 9672.0, 9673.0, 9686.0, 9682.0, 9668.0, 9673.0, 9677.0, 9665.0, 9669.0, 9678.0, 9678.0, 9683.0, 9677.0, 9677.0, 9671.0, 9669.0, 9667.0, 9648.0, 9653.0, 9653.0, 9641.0, 9640.0, 9637.0, 9628.0, 9622.0, 9615.0, 9619.0, 9626.0, 9628.0, 9629.0, 9642.0, 9646.0, 9641.0, 9647.0, 9646.0, 9653.0, 9646.0, 9646.0, 9644.0, 9643.0, 9653.0, 9649.0, 9661.0, 9660.0, 9677.0, 9671.0, 9661.0, 9655.0, 9646.0, 9632.0, 9624.0, 9637.0, 9638.0, 9640.0, 9639.0, 9640.0, 9637.0, 9645.0, 9632.0, 9629.0, 9643.0, 9670.0, 9681.0, 9686.0, 9685.0, 9684.0, 9676.0, 9669.0, 9691.0, 9701.0, 9700.0, 9688.0, 9686.0, 9679.0, 9679.0, 9685.0, 9684.0, 9684.0, 9693.0, 9695.0, 9698.0, 9684.0, 9677.0, 9675.0, 9663.0, 9655.0, 9645.0, 9647.0, 9641.0, 9646.0, 9646.0, 9640.0, 9640.0, 9637.0, 9636.0, 9642.0, 9644.0, 9653.0, 9667.0, 9663.0, 9661.0, 9654.0, 9647.0, 9639.0, 9624.0, 9628.0, 9631.0, 9623.0, 9645.0, 9668.0, 9679.0, 9677.0, 9679.0, 9683.0, 9690.0, 9672.0, 9665.0, 9671.0],
