{
  "AcquisitionMatrixPE": 104,
  "AcquisitionNumber": 1,
  "AcquisitionTime": "10:19:58.020000",
  "BandwidthPerPixelPhaseEncode": 16.297,
  "BaseResolution": 104,
  "BodyPartExamined": "BRAIN",
  "ConsistencyInfo": "N4_VE11C_LATEST_20160120",
  "ConversionSoftware": "dcm2niix",
  "ConversionSoftwareVersion": "v1.0.20210317",
  "DerivedVendorReportedEchoSpacing": 0.000590009,
  "DeviceSerialNumber": "166018",
  "DwellTime": 2.1e-06,
  "EchoTime": 0.0376,
  "EchoTrainLength": 104,
  "EffectiveEchoSpacing": 0.000590009,
  "FlipAngle": 68,
  "ImageComments": "Unaliased MB6/PE3/LB",
  "ImageOrientationPatientDICOM": [0.998614, -0.0429183, -0.0304615, 0.0401085, 0.995355, -0.0875219],
  "ImageType": [
    "ORIGINAL",
    "PRIMARY",
    "M",
    "MB",
    "ND",
    "MOSAIC"
],
  "ImagingFrequency": 123.197,
  "InPlanePhaseEncodingDirectionDICOM": "COL",
  "InstitutionAddress": "Washington Place 6,NYC,NYC,US,10003",
  "InstitutionName": "NYU - CBI",
  "InstitutionalDepartmentName": "Department",
  "MRAcquisitionType": "2D",
  "MagneticFieldStrength": 3,
  "Manufacturer": "Siemens",
  "ManufacturersModelName": "Prisma",
  "Modality": "MR",
  "MultibandAccelerationFactor": 6,
  "PartialFourier": 1,
  "PatientPosition": "HFS",
  "PercentPhaseFOV": 100,
  "PercentSampling": 100,
  "PhaseEncodingDirection": "j",
  "PhaseEncodingSteps": 104,
  "PhaseResolution": 1,
  "PixelBandwidth": 2290,
  "ProcedureStepDescription": "Investigators^Winawer",
  "ProtocolName": "cmrr_mbepi_s6_2mm_66sl_PA_task-wedgering1",
  "PulseSequenceDetails": "%CustomerSeq%\\cmrr_mbep2d_bold",
  "ReceiveCoilActiveElements": "HC1-7",
  "ReceiveCoilName": "HeadNeck_64",
  "ReconMatrixPE": 104,
  "RepetitionTime": 1,
  "SAR": 0.0729854,
  "ScanOptions": "FS",
  "ScanningSequence": "EP",
  "SequenceName": "epfid2d1_104",
  "SequenceVariant": "SK\\SS",
  "SeriesDescription": "cmrr_mbepi_s6_2mm_66sl_PA_task-wedgering1",
  "SeriesNumber": 10,
  "ShimSetting": [267, -12591, -8530, 244, -32, 10, -33, 60],
  "SliceThickness": 2,
  "SliceTiming": [0, 0.5325, 0.0875, 0.6225, 0.1775, 0.7125, 0.2675, 0.8, 0.355, 0.89, 0.445, 0, 0.5325, 0.0875, 0.6225, 0.1775, 0.7125, 0.2675, 0.8, 0.355, 0.89, 0.445, 0, 0.5325, 0.0875, 0.6225, 0.1775, 0.7125, 0.2675, 0.8, 0.355, 0.89, 0.445, 0, 0.5325, 0.0875, 0.6225, 0.1775, 0.7125, 0.2675, 0.8, 0.355, 0.89, 0.445, 0, 0.5325, 0.0875, 0.6225, 0.1775, 0.7125, 0.2675, 0.8, 0.355, 0.89, 0.445, 0, 0.5325, 0.0875, 0.6225, 0.1775, 0.7125, 0.2675, 0.8, 0.355, 0.89, 0.445],
  "SoftwareVersions": "syngo MR E11",
  "SpacingBetweenSlices": 2,
  "StationName": "AWP166018",
  "TaskName": "wedgering1",
  "TotalReadoutTime": 0.060771,
  "TxRefAmp": 213.709,
  "VendorReportedEchoSpacing": 0.00059,
  "WipMemBlock": "5a955d5a-d0ae-498e-8dd3-c0e3b742c96e||Sequence: R016 ve11c/master r/8780670; Nov 27 2017 15:05:12 by eja",
  "dcmmeta_affine": [
    [-1.9972281455993652, 0.08021703362464905, -0.06815261393785477, 107.39866638183594],
    [0.08583668619394302, 1.990709662437439, -0.17235776782035828, -83.09314727783203],
    [-0.060923021286726, 0.17504389584064484, 1.9913934469223022, -40.47085189819336],
    [0.0, 0.0, 0.0, 1.0]
],
  "dcmmeta_reorient_transform": [
    [0.0, -1.0, 0.0, 103.0],
    [1.0, 0.0, 0.0, 0.0],
    [0.0, 0.0, 1.0, 0.0],
    [0.0, 0.0, 0.0, 1.0]
],
  "dcmmeta_shape": [104, 104, 66, 300],
  "dcmmeta_slice_dim": 2,
  "dcmmeta_version": 0.6,
  "global": {
    "const": {
      "AccessionNumber": "Lesn0ypp",
      "AcquisitionMatrix": [104, 0, 0, 104],
      "AngioFlag": "N",
      "BitsAllocated": 16,
      "BitsStored": 16,
      "BodyPartExamined": "BRAIN",
      "Columns": 936,
      "EchoNumbers": 1,
      "EchoTime": 37.6,
      "EchoTrainLength": 104,
      "FlipAngle": 68.0,
      "HighBit": 15,
      "ImageOrientationPatient": [0.99861409574136, -0.0429183433295, -0.030461510017, 0.04010851562974, 0.99535481870828, -0.0875219506649],
      "ImagePositionPatient": [-979.8782310303, -914.37709017938, 75.720910311533],
      "ImageType": [
        "ORIGINAL",
        "PRIMARY",
        "M",
        "MB",
        "ND",
        "MOSAIC"
],
      "ImagedNucleus": "1H",
      "ImagingFrequency": 123.196842,
      "InPlanePhaseEncodingDirection": "COL",
      "MRAcquisitionType": "2D",
      "MagneticFieldStrength": 3.0,
      "Manufacturer": "SIEMENS",
      "ManufacturerModelName": "Prisma",
      "Modality": "MR",
      "NumberOfAverages": 1.0,
      "NumberOfPhaseEncodingSteps": 104,
      "PercentPhaseFieldOfView": 100.0,
      "PercentSampling": 100.0,
      "PerformedProcedureStepStartTime": "095149.684000",
      "PhotometricInterpretation": "MONOCHROME2",
      "PixelBandwidth": 2290.0,
      "PixelRepresentation": 0,
      "PixelSpacing": [2.0, 2.0],
      "ProtocolName": "cmrr_mbepi_s6_2mm_66sl_PA_task-wedgering1",
      "RepetitionTime": 1000.0,
      "Rows": 936,
      "SAR": 0.07298536732566,
      "SamplesPerPixel": 1,
      "ScanOptions": "FS",
      "ScanningSequence": "EP",
      "SequenceName": "epfid2d1_104",
      "SequenceVariant": [
        "SK",
        "SS"
],
      "SeriesDescription": "cmrr_mbepi_s6_2mm_66sl_PA_task-wedgering1",
      "SeriesNumber": 10,
      "SeriesTime": "102106.559000",
      "SliceLocation": -36.795569061026,
      "SliceThickness": 2.0,
      "SmallestImagePixelValue": 0,
      "SoftwareVersions": "syngo MR E11",
      "SpacingBetweenSlices": 1.9999999699856,
      "SpecificCharacterSet": "ISO_IR 100",
      "StudyID": "1",
      "StudyTime": "095149.616000",
      "TransmitCoilName": "Body",
      "VariableFlipAngleFlag": "N",
      "WindowCenterWidthExplanation": "Algo1",
      "dBdt": 0.0},
    "slices": {}
  },
  "time": {
    "samples": {
      "AcquisitionNumber": [1, 2, 3, 4, 5, 6, 7, 8, 9, 10, 11, 12, 13, 14, 15, 16, 17, 18, 19, 20, 21, 22, 23, 24, 25, 26, 27, 28, 29, 30, 31, 32, 33, 34, 35, 36, 37, 38, 39, 40, 41, 42, 43, 44, 45, 46, 47, 48, 49, 50, 51, 52, 53, 54, 55, 56, 57, 58, 59, 60, 61, 62, 63, 64, 65, 66, 67, 68, 69, 70, 71, 72, 73, 74, 75, 76, 77, 78, 79, 80, 81, 82, 83, 84, 85, 86, 87, 88, 89, 90, 91, 92, 93, 94, 95, 96, 97, 98, 99, 100, 101, 102, 103, 104, 105, 106, 107, 108, 109, 110, 111, 112, 113, 114, 115, 116, 117, 118, 119, 120, 121, 122, 123, 124, 125, 126, 127, 128, 129, 130, 131, 132, 133, 134, 135, 136, 137, 138, 139, 140, 141, 142, 143, 144, 145, 146, 147, 148, 149, 150, 151, 152, 153, 154, 155, 156, 157, 158, 159, 160, 161, 162, 163, 164, 165, 166, 167, 168, 169, 170, 171, 172, 173, 174, 175, 176, 177, 178, 179, 180, 181, 182, 183, 184, 185, 186, 187, 188, 189, 190, 191, 192, 193, 194, 195, 196, 197, 198, 199, 200, 201, 202, 203, 204, 205, 206, 207, 208, 209, 210, 211, 212, 213, 214, 215, 216, 217, 218, 219, 220, 221, 222, 223, 224, 225, 226, 227, 228, 229, 230, 231, 232, 233, 234, 235, 236, 237, 238, 239, 240, 241, 242, 243, 244, 245, 246, 247, 248, 249, 250, 251, 252, 253, 254, 255, 256, 257, 258, 259, 260, 261, 262, 263, 264, 265, 266, 267, 268, 269, 270, 271, 272, 273, 274, 275, 276, 277, 278, 279, 280, 281, 282, 283, 284, 285, 286, 287, 288, 289, 290, 291, 292, 293, 294, 295, 296, 297, 298, 299, 300],
      "AcquisitionTime": ["101958.020000", "101959.020000", "102000.020000", "102001.020000", "102002.020000", "102003.020000", "102004.020000", "102005.020000", "102006.020000", "102007.020000", "102008.020000", "102009.020000", "102010.020000", "102011.020000", "102012.020000", "102013.020000", "102014.020000", "102015.020000", "102016.020000", "102017.020000", "102018.020000", "102019.020000", "102020.020000", "102021.020000", "102022.020000", "102023.020000", "102024.020000", "102025.020000", "102026.020000", "102027.020000", "102028.020000", "102029.020000", "102030.020000", "102031.020000", "102032.020000", "102033.020000", "102034.020000", "102035.020000", "102036.020000", "102037.020000", "102038.020000", "102039.020000", "102040.020000", "102041.020000", "102042.020000", "102043.020000", "102044.020000", "102045.020000", "102046.020000", "102047.020000", "102048.020000", "102049.020000", "102050.020000", "102051.020000", "102052.020000", "102053.020000", "102054.020000", "102055.020000", "102056.020000", "102057.020000", "102058.020000", "102059.020000", "102100.020000", "102101.020000", "102102.020000", "102103.020000", "102104.020000", "102105.020000", "102106.020000", "102107.020000", "102108.020000", "102109.020000", "102110.020000", "102111.020000", "102112.020000", "102113.020000", "102114.020000", "102115.020000", "102116.020000", "102117.020000", "102118.020000", "102119.020000", "102120.020000", "102121.020000", "102122.020000", "102123.020000", "102124.020000", "102125.020000", "102126.020000", "102127.020000", "102128.020000", "102129.020000", "102130.020000", "102131.020000", "102132.020000", "102133.020000", "102134.020000", "102135.020000", "102136.020000", "102137.020000", "102138.020000", "102139.020000", "102140.020000", "102141.020000", "102142.020000", "102143.020000", "102144.020000", "102145.020000", "102146.020000", "102147.020000", "102148.020000", "102149.020000", "102150.020000", "102151.020000", "102152.020000", "102153.020000", "102154.020000", "102155.020000", "102156.020000", "102157.020000", "102158.020000", "102159.020000", "102200.020000", "102201.020000", "102202.020000", "102203.020000", "102204.020000", "102205.020000", "102206.020000", "102207.020000", "102208.020000", "102209.020000", "102210.020000", "102211.020000", "102212.020000", "102213.020000", "102214.020000", "102215.020000", "102216.020000", "102217.020000", "102218.020000", "102219.020000", "102220.020000", "102221.020000", "102222.020000", "102223.020000", "102224.020000", "102225.020000", "102226.020000", "102227.020000", "102228.020000", "102229.020000", "102230.020000", "102231.020000", "102232.020000", "102233.020000", "102234.020000", "102235.020000", "102236.020000", "102237.020000", "102238.020000", "102239.020000", "102240.020000", "102241.020000", "102242.020000", "102243.020000", "102244.020000", "102245.020000", "102246.020000", "102247.020000", "102248.020000", "102249.020000", "102250.020000", "102251.020000", "102252.020000", "102253.020000", "102254.020000", "102255.020000", "102256.020000", "102257.020000", "102258.020000", "102259.020000", "102300.020000", "102301.020000", "102302.020000", "102303.020000", "102304.020000", "102305.020000", "102306.020000", "102307.020000", "102308.020000", "102309.020000", "102310.020000", "102311.020000", "102312.020000", "102313.020000", "102314.020000", "102315.020000", "102316.020000", "102317.020000", "102318.020000", "102319.020000", "102320.020000", "102321.020000", "102322.020000", "102323.020000", "102324.020000", "102325.020000", "102326.020000", "102327.020000", "102328.020000", "102329.020000", "102330.020000", "102331.020000", "102332.020000", "102333.020000", "102334.020000", "102335.020000", "102336.020000", "102337.020000", "102338.020000", "102339.020000", "102340.020000", "102341.020000", "102342.020000", "102343.020000", "102344.020000", "102345.020000", "102346.020000", "102347.020000", "102348.020000", "102349.020000", "102350.020000", "102351.020000", "102352.020000", "102353.020000", "102354.020000", "102355.020000", "102356.020000", "102357.020000", "102358.020000", "102359.020000", "102400.020000", "102401.020000", "102402.020000", "102403.020000", "102404.020000", "102405.020000", "102406.020000", "102407.020000", "102408.020000", "102409.020000", "102410.020000", "102411.020000", "102412.020000", "102413.020000", "102414.020000", "102415.020000", "102416.020000", "102417.020000", "102418.020000", "102419.020000", "102420.020000", "102421.020000", "102422.020000", "102423.020000", "102424.020000", "102425.020000", "102426.020000", "102427.020000", "102428.020000", "102429.020000", "102430.020000", "102431.020000", "102432.020000", "102433.020000", "102434.020000", "102435.020000", "102436.020000", "102437.020000", "102438.020000", "102439.020000", "102440.020000", "102441.020000", "102442.020000", "102443.020000", "102444.020000", "102445.020000", "102446.020000", "102447.020000", "102448.020000", "102449.020000", "102450.020000", "102451.020000", "102452.020000", "102453.020000", "102454.020000", "102455.020000", "102456.020000", "102457.020000"],
      "ContentTime": ["102106.562000", "102106.566000", "102106.574000", "102106.577000", "102106.580000", "102106.583000", "102106.586000", "102106.589000", "102106.592000", "102106.602000", "102106.605000", "102106.608000", "102106.611000", "102106.614000", "102106.616000", "102106.619000", "102106.622000", "102106.625000", "102106.628000", "102106.631000", "102106.634000", "102106.638000", "102106.642000", "102106.645000", "102106.648000", "102106.651000", "102126.533000", "102126.536000", "102126.539000", "102126.542000", "102126.545000", "102126.548000", "102126.551000", "102126.554000", "102126.557000", "102126.571000", "102126.574000", "102126.577000", "102126.580000", "102126.583000", "102126.587000", "102126.590000", "102126.592000", "102126.595000", "102126.598000", "102126.601000", "102126.604000", "102126.607000", "102126.610000", "102126.613000", "102126.616000", "102126.619000", "102126.622000", "102126.625000", "102146.533000", "102146.536000", "102146.539000", "102146.542000", "102146.545000", "102146.548000", "102146.551000", "102146.554000", "102146.557000", "102146.560000", "102146.563000", "102146.566000", "102146.569000", "102146.572000", "102146.575000", "102146.578000", "102146.580000", "102146.584000", "102146.587000", "102146.590000", "102146.593000", "102146.596000", "102146.599000", "102146.602000", "102146.605000", "102146.608000", "102146.611000", "102146.614000", "102146.617000", "102206.533000", "102206.536000", "102206.539000", "102206.542000", "102206.545000", "102206.548000", "102206.551000", "102206.554000", "102206.557000", "102206.560000", "102206.563000", "102206.566000", "102206.569000", "102206.572000", "102206.575000", "102206.578000", "102206.581000", "102206.584000", "102206.587000", "102206.590000", "102206.593000", "102206.596000", "102206.599000", "102206.602000", "102206.612000", "102206.615000", "102206.618000", "102206.621000", "102226.534000", "102226.537000", "102226.540000", "102226.543000", "102226.546000", "102226.549000", "102226.552000", "102226.555000", "102226.558000", "102226.561000", "102226.564000", "102226.567000", "102226.570000", "102226.573000", "102226.576000", "102226.579000", "102226.582000", "102226.585000", "102226.588000", "102226.591000", "102226.594000", "102226.597000", "102226.600000", "102226.603000", "102226.606000", "102226.609000", "102226.612000", "102226.615000", "102246.533000", "102246.536000", "102246.539000", "102246.542000", "102246.545000", "102246.548000", "102246.551000", "102246.554000", "102246.557000", "102246.560000", "102246.563000", "102246.566000", "102246.569000", "102246.572000", "102246.575000", "102246.578000", "102246.581000", "102246.584000", "102246.587000", "102246.590000", "102246.593000", "102246.596000", "102246.599000", "102246.602000", "102246.605000", "102246.608000", "102246.611000", "102246.614000", "102306.533000", "102306.536000", "102306.539000", "102306.542000", "102306.545000", "102306.548000", "102306.551000", "102306.554000", "102306.557000", "102306.560000", "102306.563000", "102306.566000", "102306.569000", "102306.572000", "102306.575000", "102306.578000", "102306.581000", "102306.584000", "102306.587000", "102306.590000", "102326.533000", "102326.536000", "102326.539000", "102326.542000", "102326.545000", "102326.548000", "102326.551000", "102326.554000", "102326.557000", "102326.560000", "102326.563000", "102326.566000", "102326.569000", "102326.572000", "102326.575000", "102326.578000", "102326.591000", "102326.594000", "102326.597000", "102326.600000", "102346.533000", "102346.536000", "102346.539000", "102346.542000", "102346.545000", "102346.548000", "102346.551000", "102346.554000", "102346.557000", "102346.560000", "102346.577000", "102346.580000", "102346.583000", "102346.586000", "102346.589000", "102346.592000", "102346.595000", "102346.598000", "102346.601000", "102346.604000", "102406.533000", "102406.536000", "102406.539000", "102406.542000", "102406.545000", "102406.548000", "102406.551000", "102406.554000", "102406.557000", "102406.560000", "102406.563000", "102406.566000", "102406.569000", "102406.572000", "102406.575000", "102406.578000", "102406.581000", "102406.584000", "102406.587000", "102406.590000", "102426.533000", "102426.536000", "102426.539000", "102426.542000", "102426.545000", "102426.548000", "102426.551000", "102426.554000", "102426.557000", "102426.569000", "102426.572000", "102426.575000", "102426.578000", "102426.581000", "102426.584000", "102426.587000", "102426.590000", "102426.593000", "102426.596000", "102426.599000", "102446.534000", "102446.537000", "102446.540000", "102446.543000", "102446.546000", "102446.549000", "102446.552000", "102446.555000", "102446.558000", "102446.561000", "102446.564000", "102446.567000", "102446.570000", "102446.573000", "102446.576000", "102446.579000", "102446.582000", "102446.585000", "102446.588000", "102446.591000", "102458.833000", "102458.836000", "102458.839000", "102458.842000", "102458.845000", "102458.848000", "102458.851000", "102458.854000", "102458.857000", "102458.860000", "102458.863000", "102458.866000", "102458.869000"],
      "InstanceCreationTime": ["102106.562000", "102106.566000", "102106.574000", "102106.577000", "102106.580000", "102106.583000", "102106.586000", "102106.589000", "102106.592000", "102106.602000", "102106.605000", "102106.608000", "102106.611000", "102106.614000", "102106.616000", "102106.619000", "102106.622000", "102106.625000", "102106.628000", "102106.631000", "102106.634000", "102106.638000", "102106.642000", "102106.645000", "102106.648000", "102106.651000", "102126.533000", "102126.536000", "102126.539000", "102126.542000", "102126.545000", "102126.548000", "102126.551000", "102126.554000", "102126.557000", "102126.571000", "102126.574000", "102126.577000", "102126.580000", "102126.583000", "102126.587000", "102126.590000", "102126.592000", "102126.595000", "102126.598000", "102126.601000", "102126.604000", "102126.607000", "102126.610000", "102126.613000", "102126.616000", "102126.619000", "102126.622000", "102126.625000", "102146.533000", "102146.536000", "102146.539000", "102146.542000", "102146.545000", "102146.548000", "102146.551000", "102146.554000", "102146.557000", "102146.560000", "102146.563000", "102146.566000", "102146.569000", "102146.572000", "102146.575000", "102146.578000", "102146.580000", "102146.584000", "102146.587000", "102146.590000", "102146.593000", "102146.596000", "102146.599000", "102146.602000", "102146.605000", "102146.608000", "102146.611000", "102146.614000", "102146.617000", "102206.533000", "102206.536000", "102206.539000", "102206.542000", "102206.545000", "102206.548000", "102206.551000", "102206.554000", "102206.557000", "102206.560000", "102206.563000", "102206.566000", "102206.569000", "102206.572000", "102206.575000", "102206.578000", "102206.581000", "102206.584000", "102206.587000", "102206.590000", "102206.593000", "102206.596000", "102206.599000", "102206.602000", "102206.612000", "102206.615000", "102206.618000", "102206.621000", "102226.534000", "102226.537000", "102226.540000", "102226.543000", "102226.546000", "102226.549000", "102226.552000", "102226.555000", "102226.558000", "102226.561000", "102226.564000", "102226.567000", "102226.570000", "102226.573000", "102226.576000", "102226.579000", "102226.582000", "102226.585000", "102226.588000", "102226.591000", "102226.594000", "102226.597000", "102226.600000", "102226.603000", "102226.606000", "102226.609000", "102226.612000", "102226.615000", "102246.533000", "102246.536000", "102246.539000", "102246.542000", "102246.545000", "102246.548000", "102246.551000", "102246.554000", "102246.557000", "102246.560000", "102246.563000", "102246.566000", "102246.569000", "102246.572000", "102246.575000", "102246.578000", "102246.581000", "102246.584000", "102246.587000", "102246.590000", "102246.593000", "102246.596000", "102246.599000", "102246.602000", "102246.605000", "102246.608000", "102246.611000", "102246.614000", "102306.533000", "102306.536000", "102306.539000", "102306.542000", "102306.545000", "102306.548000", "102306.551000", "102306.554000", "102306.557000", "102306.560000", "102306.563000", "102306.566000", "102306.569000", "102306.572000", "102306.575000", "102306.578000", "102306.581000", "102306.584000", "102306.587000", "102306.590000", "102326.533000", "102326.536000", "102326.539000", "102326.542000", "102326.545000", "102326.548000", "102326.551000", "102326.554000", "102326.557000", "102326.560000", "102326.563000", "102326.566000", "102326.569000", "102326.572000", "102326.575000", "102326.578000", "102326.591000", "102326.594000", "102326.597000", "102326.600000", "102346.533000", "102346.536000", "102346.539000", "102346.542000", "102346.545000", "102346.548000", "102346.551000", "102346.554000", "102346.557000", "102346.560000", "102346.577000", "102346.580000", "102346.583000", "102346.586000", "102346.589000", "102346.592000", "102346.595000", "102346.598000", "102346.601000", "102346.604000", "102406.533000", "102406.536000", "102406.539000", "102406.542000", "102406.545000", "102406.548000", "102406.551000", "102406.554000", "102406.557000", "102406.560000", "102406.563000", "102406.566000", "102406.569000", "102406.572000", "102406.575000", "102406.578000", "102406.581000", "102406.584000", "102406.587000", "102406.590000", "102426.533000", "102426.536000", "102426.539000", "102426.542000", "102426.545000", "102426.548000", "102426.551000", "102426.554000", "102426.557000", "102426.569000", "102426.572000", "102426.575000", "102426.578000", "102426.581000", "102426.584000", "102426.587000", "102426.590000", "102426.593000", "102426.596000", "102426.599000", "102446.534000", "102446.537000", "102446.540000", "102446.543000", "102446.546000", "102446.549000", "102446.552000", "102446.555000", "102446.558000", "102446.561000", "102446.564000", "102446.567000", "102446.570000", "102446.573000", "102446.576000", "102446.579000", "102446.582000", "102446.585000", "102446.588000", "102446.591000", "102458.833000", "102458.836000", "102458.839000", "102458.842000", "102458.845000", "102458.848000", "102458.851000", "102458.854000", "102458.857000", "102458.860000", "102458.863000", "102458.866000", "102458.869000"],
      "InstanceNumber": [1, 2, 3, 4, 5, 6, 7, 8, 9, 10, 11, 12, 13, 14, 15, 16, 17, 18, 19, 20, 21, 22, 23, 24, 25, 26, 27, 28, 29, 30, 31, 32, 33, 34, 35, 36, 37, 38, 39, 40, 41, 42, 43, 44, 45, 46, 47, 48, 49, 50, 51, 52, 53, 54, 55, 56, 57, 58, 59, 60, 61, 62, 63, 64, 65, 66, 67, 68, 69, 70, 71, 72, 73, 74, 75, 76, 77, 78, 79, 80, 81, 82, 83, 84, 85, 86, 87, 88, 89, 90, 91, 92, 93, 94, 95, 96, 97, 98, 99, 100, 101, 102, 103, 104, 105, 106, 107, 108, 109, 110, 111, 112, 113, 114, 115, 116, 117, 118, 119, 120, 121, 122, 123, 124, 125, 126, 127, 128, 129, 130, 131, 132, 133, 134, 135, 136, 137, 138, 139, 140, 141, 142, 143, 144, 145, 146, 147, 148, 149, 150, 151, 152, 153, 154, 155, 156, 157, 158, 159, 160, 161, 162, 163, 164, 165, 166, 167, 168, 169, 170, 171, 172, 173, 174, 175, 176, 177, 178, 179, 180, 181, 182, 183, 184, 185, 186, 187, 188, 189, 190, 191, 192, 193, 194, 195, 196, 197, 198, 199, 200, 201, 202, 203, 204, 205, 206, 207, 208, 209, 210, 211, 212, 213, 214, 215, 216, 217, 218, 219, 220, 221, 222, 223, 224, 225, 226, 227, 228, 229, 230, 231, 232, 233, 234, 235, 236, 237, 238, 239, 240, 241, 242, 243, 244, 245, 246, 247, 248, 249, 250, 251, 252, 253, 254, 255, 256, 257, 258, 259, 260, 261, 262, 263, 264, 265, 266, 267, 268, 269, 270, 271, 272, 273, 274, 275, 276, 277, 278, 279, 280, 281, 282, 283, 284, 285, 286, 287, 288, 289, 290, 291, 292, 293, 294, 295, 296, 297, 298, 299, 300],
      "LargestImagePixelValue": [42094, 40371, 38772, 38226, 38555, 37983, 38488, 38425, 38499, 37603, 38115, 38147, 39234, 37962, 37033, 36781, 37429, 37905, 37594, 37203, 37174, 36216, 36130, 36287, 37110, 37023, 37389, 37135, 37762, 37302, 37622, 37222, 37212, 37763, 36350, 36797, 36833, 36717, 36740, 36679, 37335, 36910, 36450, 37230, 37389, 36726, 38061, 38851, 38523, 38883, 39170, 39442, 39072, 38103, 38589, 38965, 39168, 36769, 38781, 39367, 39430, 39722, 37842, 38888, 39099, 39344, 39539, 39385, 37745, 39007, 39439, 38721, 38988, 39434, 39722, 40019, 40600, 40120, 39689, 40095, 39666, 38194, 39025, 38981, 38756, 38951, 38117, 37928, 38341, 38185, 38679, 37806, 38264, 37949, 38259, 38699, 37350, 38791, 38404, 38332, 39241, 39282, 38821, 39587, 40196, 39808, 39952, 39695, 39607, 39168, 39774, 39968, 37981, 38116, 38065, 39173, 39670, 39801, 37725, 38054, 38538, 38595, 37225, 37324, 37983, 37595, 36984, 37347, 37880, 38791, 39176, 39058, 39616, 38944, 38864, 38912, 39184, 37940, 38273, 38465, 38293, 39064, 38880, 38664, 38856, 38087, 38192, 38157, 37886, 38136, 37146, 37135, 37877, 37131, 37838, 37960, 38276, 37790, 37848, 37871, 37676, 38119, 38912, 39371, 39234, 39227, 38570, 38754, 38664, 37821, 38619, 38684, 39004, 39154, 38498, 39120, 38876, 39051, 39470, 39275, 39391, 38607, 39101, 39103, 39197, 38613, 39431, 39319, 38825, 39743, 39241, 38062, 38877, 38812, 39660, 39883, 39634, 39290, 38753, 39098, 38655, 39141, 38909, 39091, 38664, 38550, 38904, 39253, 39057, 39295, 39372, 39001, 39755, 39447, 39323, 39135, 39251, 39179, 38501, 38867, 39038, 38564, 38932, 39204, 38265, 38708, 38926, 38171, 38343, 38746, 37758, 39008, 37041, 36934, 37303, 38362, 38780, 38534, 38455, 38856, 37674, 36517, 37019, 37430, 36556, 36964, 36881, 37936, 37565, 37788, 37944, 37995, 37710, 37747, 37767, 38095, 38868, 38996, 39156, 39476, 39146, 39381, 40544, 39655, 39198, 39912, 39249, 39248, 39734, 39151, 39152, 39428, 38819, 38874, 39363, 38576, 39176, 38859, 38940, 39403, 39663, 39280, 38871, 38966, 39023, 39034, 39503, 39173, 39575, 39874, 39526, 40319, 40807, 40277, 39977, 40360, 40865, 37787, 38312, 38296],
      "WindowCenter": [9698.0, 9643.0, 9605.0, 9585.0, 9592.0, 9592.0, 9597.0, 9591.0, 9587.0, 9585.0, 9575.0, 9573.0, 9585.0, 9567.0, 9555.0, 9544.0, 9546.0, 9552.0, 9545.0, 9536.0, 9528.0, 9511.0, 9503.0, 9485.0, 9476.0, 9472.0, 9482.0, 9483.0, 9488.0, 9481.0, 9483.0, 9482.0, 9491.0, 9513.0, 9507.0, 9538.0, 9550.0, 9569.0, 9578.0, 9588.0, 9599.0, 9594.0, 9589.0, 9593.0, 9606.0, 9613.0, 9637.0, 9637.0, 9640.0, 9638.0, 9628.0, 9633.0, 9619.0, 9614.0, 9613.0, 9618.0, 9625.0, 9604.0, 9620.0, 9633.0, 9633.0, 9635.0, 9610.0, 9627.0, 9626.0, 9634.0, 9634.0, 9620.0, 9601.0, 9610.0, 9630.0, 9629.0, 9629.0, 9626.0, 9625.0, 9638.0, 9645.0, 9640.0, 9633.0, 9626.0, 9626.0, 9607.0, 9619.0, 9625.0, 9629.0, 9635.0, 9624.0, 9615.0, 9608.0, 9608.0, 9614.0, 9603.0, 9625.0, 9626.0, 9635.0, 9642.0, 9624.0, 9634.0, 9620.0, 9627.0, 9631.0, 9625.0, 9618.0, 9627.0, 9631.0, 9629.0, 9625.0, 9613.0, 9616.0, 9614.0, 9625.0, 9633.0, 9612.0, 9612.0, 9610.0, 9622.0, 9628.0, 9622.0, 9595.0, 9593.0, 9591.0, 9597.0, 9581.0, 9584.0, 9584.0, 9571.0, 9571.0, 9568.0, 9573.0, 9589.0, 9610.0, 9625.0, 9635.0, 9630.0, 9623.0, 9625.0, 9629.0, 9616.0, 9606.0, 9604.0, 9619.0, 9635.0, 9644.0, 9647.0, 9642.0, 9628.0, 9620.0, 9610.0, 9595.0, 9600.0, 9581.0, 9580.0, 9583.0, 9586.0, 9608.0, 9610.0, 9609.0, 9596.0, 9587.0, 9586.0, 9592.0, 9606.0, 9613.0, 9618.0, 9625.0, 9618.0, 9612.0, 9604.0, 9613.0, 9618.0, 9631.0, 9640.0, 9641.0, 9641.0, 9625.0, 9629.0, 9623.0, 9623.0, 9619.0, 9612.0, 9603.0, 9588.0, 9600.0, 9595.0, 9620.0, 9624.0, 9629.0, 9624.0, 9623.0, 9635.0, 9631.0, 9625.0, 9621.0, 9614.0, 9632.0, 9631.0, 9617.0, 9618.0, 9607.0, 9612.0, 9614.0, 9613.0, 9613.0, 9605.0, 9598.0, 9607.0, 9620.0, 9630.0, 9639.0, 9632.0, 9631.0, 9632.0, 9638.0, 9641.0, 9638.0, 9641.0, 9641.0, 9647.0, 9636.0, 9634.0, 9648.0, 9639.0, 9641.0, 9647.0, 9626.0, 9625.0, 9630.0, 9617.0, 9615.0, 9614.0, 9594.0, 9611.0, 9587.0, 9589.0, 9595.0, 9605.0, 9597.0, 9590.0, 9596.0, 9578.0, 9541.0, 9506.0, 9494.0, 9498.0, 9500.0, 9514.0, 9518.0, 9537.0, 9547.0, 9548.0, 9563.0, 9574.0, 9570.0, 9587.0, 9595.0, 9620.0, 9642.0, 9649.0, 9649.0, 9656.0, 9658.0, 9666.0, 9670.0, 9656.0, 9645.0, 9656.0, 9640.0, 9638.0, 9637.0, 9632.0, 9625.0, 9629.0, 9616.0, 9615.0, 9620.0, 9616.0, 9624.0, 9618.0, 9630.0, 9639.0, 9640.0, 9643.0, 9621.0, 9616.0, 9617.0, 9615.0, 9621.0, 9631.0, 9642.0, 9653.0, 9648.0, 9644.0, 9640.0, 9632.0, 9611.0, 9607.0, 9621.0, 9596.0, 9609.0, 9610.0],
