{
  "AcquisitionMatrixPE": 104,
  "AcquisitionNumber": 1,
  "AcquisitionTime": "10:26:57.787500",
  "BandwidthPerPixelPhaseEncode": 16.297,
  "BaseResolution": 104,
  "BodyPartExamined": "BRAIN",
  "ConsistencyInfo": "N4_VE11C_LATEST_20160120",
  "ConversionSoftware": "dcm2niix",
  "ConversionSoftwareVersion": "v1.0.20210317",
  "DerivedVendorReportedEchoSpacing": 0.000590009,
  "DeviceSerialNumber": "166018",
  "DwellTime": 2.1e-06,
  "EchoTime": 0.0376,
  "EchoTrainLength": 104,
  "EffectiveEchoSpacing": 0.000590009,
  "FlipAngle": 68,
  "ImageComments": "Unaliased MB6/PE3/LB",
  "ImageOrientationPatientDICOM": [0.998614, -0.0429183, -0.0304615, 0.0401085, 0.995355, -0.0875219],
  "ImageType": [
    "ORIGINAL",
    "PRIMARY",
    "M",
    "MB",
    "ND",
    "MOSAIC"
],
  "ImagingFrequency": 123.197,
  "InPlanePhaseEncodingDirectionDICOM": "COL",
  "InstitutionAddress": "Washington Place 6,NYC,NYC,US,10003",
  "InstitutionName": "NYU - CBI",
  "InstitutionalDepartmentName": "Department",
  "MRAcquisitionType": "2D",
  "MagneticFieldStrength": 3,
  "Manufacturer": "Siemens",
  "ManufacturersModelName": "Prisma",
  "Modality": "MR",
  "MultibandAccelerationFactor": 6,
  "PartialFourier": 1,
  "PatientPosition": "HFS",
  "PercentPhaseFOV": 100,
  "PercentSampling": 100,
  "PhaseEncodingDirection": "j",
  "PhaseEncodingSteps": 104,
  "PhaseResolution": 1,
  "PixelBandwidth": 2290,
  "ProcedureStepDescription": "Investigators^Winawer",
  "ProtocolName": "cmrr_mbepi_s6_2mm_66sl_PA_task-bar2",
  "PulseSequenceDetails": "%CustomerSeq%\\cmrr_mbep2d_bold",
  "ReceiveCoilActiveElements": "HC1-7",
  "ReceiveCoilName": "HeadNeck_64",
  "ReconMatrixPE": 104,
  "RepetitionTime": 1,
  "SAR": 0.0729854,
  "ScanOptions": "FS",
  "ScanningSequence": "EP",
  "SequenceName": "epfid2d1_104",
  "SequenceVariant": "SK\\SS",
  "SeriesDescription": "cmrr_mbepi_s6_2mm_66sl_PA_task-bar2",
  "SeriesNumber": 12,
  "ShimSetting": [267, -12591, -8530, 244, -32, 10, -33, 60],
  "SliceThickness": 2,
  "SliceTiming": [0, 0.535, 0.09, 0.625, 0.1775, 0.7125, 0.2675, 0.8025, 0.3575, 0.8925, 0.445, 0, 0.535, 0.09, 0.625, 0.1775, 0.7125, 0.2675, 0.8025, 0.3575, 0.8925, 0.445, 0, 0.535, 0.09, 0.625, 0.1775, 0.7125, 0.2675, 0.8025, 0.3575, 0.8925, 0.445, 0, 0.535, 0.09, 0.625, 0.1775, 0.7125, 0.2675, 0.8025, 0.3575, 0.8925, 0.445, 0, 0.535, 0.09, 0.625, 0.1775, 0.7125, 0.2675, 0.8025, 0.3575, 0.8925, 0.445, 0, 0.535, 0.09, 0.625, 0.1775, 0.7125, 0.2675, 0.8025, 0.3575, 0.8925, 0.445],
  "SoftwareVersions": "syngo MR E11",
  "SpacingBetweenSlices": 2,
  "StationName": "AWP166018",
  "TaskName": "bar2",
  "TotalReadoutTime": 0.060771,
  "TxRefAmp": 213.709,
  "VendorReportedEchoSpacing": 0.00059,
  "WipMemBlock": "3bea75fc-eee9-41a3-96a1-8dfa4ac0c92f||Sequence: R016 ve11c/master r/8780670; Nov 27 2017 15:05:12 by eja",
  "dcmmeta_affine": [
    [-1.9972281455993652, 0.08021703362464905, -0.06815261393785477, 107.39866638183594],
    [0.08583668619394302, 1.990709662437439, -0.17235776782035828, -83.09314727783203],
    [-0.060923021286726, 0.17504389584064484, 1.9913934469223022, -40.47085189819336],
    [0.0, 0.0, 0.0, 1.0]
],
  "dcmmeta_reorient_transform": [
    [0.0, -1.0, 0.0, 103.0],
    [1.0, 0.0, 0.0, 0.0],
    [0.0, 0.0, 1.0, 0.0],
    [0.0, 0.0, 0.0, 1.0]
],
  "dcmmeta_shape": [104, 104, 66, 300],
  "dcmmeta_slice_dim": 2,
  "dcmmeta_version": 0.6,
  "global": {
    "const": {
      "AccessionNumber": "Lesn0ypp",
      "AcquisitionMatrix": [104, 0, 0, 104],
      "AngioFlag": "N",
      "BitsAllocated": 16,
      "BitsStored": 16,
      "BodyPartExamined": "BRAIN",
      "Columns": 936,
      "EchoNumbers": 1,
      "EchoTime": 37.6,
      "EchoTrainLength": 104,
      "FlipAngle": 68.0,
      "HighBit": 15,
      "ImageOrientationPatient": [0.99861409574136, -0.0429183433295, -0.030461510017, 0.04010851562974, 0.99535481870828, -0.0875219506649],
      "ImagePositionPatient": [-979.8782310303, -914.37709017938, 75.720910311533],
      "ImageType": [
        "ORIGINAL",
        "PRIMARY",
        "M",
        "MB",
        "ND",
        "MOSAIC"
],
      "ImagedNucleus": "1H",
      "ImagingFrequency": 123.196845,
      "InPlanePhaseEncodingDirection": "COL",
      "MRAcquisitionType": "2D",
      "MagneticFieldStrength": 3.0,
      "Manufacturer": "SIEMENS",
      "ManufacturerModelName": "Prisma",
      "Modality": "MR",
      "NumberOfAverages": 1.0,
      "NumberOfPhaseEncodingSteps": 104,
      "PercentPhaseFieldOfView": 100.0,
      "PercentSampling": 100.0,
      "PerformedProcedureStepStartTime": "095149.684000",
      "PhotometricInterpretation": "MONOCHROME2",
      "PixelBandwidth": 2290.0,
      "PixelRepresentation": 0,
      "PixelSpacing": [2.0, 2.0],
      "ProtocolName": "cmrr_mbepi_s6_2mm_66sl_PA_task-bar2",
      "RepetitionTime": 1000.0,
      "Rows": 936,
      "SAR": 0.07298536732566,
      "SamplesPerPixel": 1,
      "ScanOptions": "FS",
      "ScanningSequence": "EP",
      "SequenceName": "epfid2d1_104",
      "SequenceVariant": [
        "SK",
        "SS"
],
      "SeriesDescription": "cmrr_mbepi_s6_2mm_66sl_PA_task-bar2",
      "SeriesNumber": 12,
      "SeriesTime": "102806.413000",
      "SliceLocation": -36.795569061026,
      "SliceThickness": 2.0,
      "SmallestImagePixelValue": 0,
      "SoftwareVersions": "syngo MR E11",
      "SpacingBetweenSlices": 1.9999999699856,
      "SpecificCharacterSet": "ISO_IR 100",
      "StudyID": "1",
      "StudyTime": "095149.616000",
      "TransmitCoilName": "Body",
      "VariableFlipAngleFlag": "N",
      "WindowCenterWidthExplanation": "Algo1",
      "dBdt": 0.0},
    "slices": {}
  },
  "time": {
    "samples": {
      "AcquisitionNumber": [1, 2, 3, 4, 5, 6, 7, 8, 9, 10, 11, 12, 13, 14, 15, 16, 17, 18, 19, 20, 21, 22, 23, 24, 25, 26, 27, 28, 29, 30, 31, 32, 33, 34, 35, 36, 37, 38, 39, 40, 41, 42, 43, 44, 45, 46, 47, 48, 49, 50, 51, 52, 53, 54, 55, 56, 57, 58, 59, 60, 61, 62, 63, 64, 65, 66, 67, 68, 69, 70, 71, 72, 73, 74, 75, 76, 77, 78, 79, 80, 81, 82, 83, 84, 85, 86, 87, 88, 89, 90, 91, 92, 93, 94, 95, 96, 97, 98, 99, 100, 101, 102, 103, 104, 105, 106, 107, 108, 109, 110, 111, 112, 113, 114, 115, 116, 117, 118, 119, 120, 121, 122, 123, 124, 125, 126, 127, 128, 129, 130, 131, 132, 133, 134, 135, 136, 137, 138, 139, 140, 141, 142, 143, 144, 145, 146, 147, 148, 149, 150, 151, 152, 153, 154, 155, 156, 157, 158, 159, 160, 161, 162, 163, 164, 165, 166, 167, 168, 169, 170, 171, 172, 173, 174, 175, 176, 177, 178, 179, 180, 181, 182, 183, 184, 185, 186, 187, 188, 189, 190, 191, 192, 193, 194, 195, 196, 197, 198, 199, 200, 201, 202, 203, 204, 205, 206, 207, 208, 209, 210, 211, 212, 213, 214, 215, 216, 217, 218, 219, 220, 221, 222, 223, 224, 225, 226, 227, 228, 229, 230, 231, 232, 233, 234, 235, 236, 237, 238, 239, 240, 241, 242, 243, 244, 245, 246, 247, 248, 249, 250, 251, 252, 253, 254, 255, 256, 257, 258, 259, 260, 261, 262, 263, 264, 265, 266, 267, 268, 269, 270, 271, 272, 273, 274, 275, 276, 277, 278, 279, 280, 281, 282, 283, 284, 285, 286, 287, 288, 289, 290, 291, 292, 293, 294, 295, 296, 297, 298, 299, 300],
      "AcquisitionTime": ["102657.787500", "102658.787500", "102659.787500", "102700.787500", "102701.787500", "102702.787500", "102703.787500", "102704.787500", "102705.787500", "102706.787500", "102707.787500", "102708.787500", "102709.787500", "102710.787500", "102711.787500", "102712.787500", "102713.787500", "102714.787500", "102715.787500", "102716.787500", "102717.787500", "102718.787500", "102719.787500", "102720.787500", "102721.787500", "102722.787500", "102723.787500", "102724.787500", "102725.787500", "102726.787500", "102727.787500", "102728.787500", "102729.787500", "102730.787500", "102731.787500", "102732.787500", "102733.787500", "102734.787500", "102735.787500", "102736.787500", "102737.787500", "102738.787500", "102739.787500", "102740.787500", "102741.787500", "102742.787500", "102743.787500", "102744.787500", "102745.787500", "102746.787500", "102747.787500", "102748.787500", "102749.787500", "102750.787500", "102751.787500", "102752.787500", "102753.787500", "102754.787500", "102755.787500", "102756.787500", "102757.787500", "102758.787500", "102759.787500", "102800.787500", "102801.787500", "102802.787500", "102803.787500", "102804.787500", "102805.787500", "102806.787500", "102807.787500", "102808.787500", "102809.787500", "102810.787500", "102811.787500", "102812.787500", "102813.787500", "102814.787500", "102815.787500", "102816.787500", "102817.787500", "102818.787500", "102819.787500", "102820.787500", "102821.787500", "102822.787500", "102823.787500", "102824.787500", "102825.787500", "102826.787500", "102827.787500", "102828.787500", "102829.787500", "102830.787500", "102831.787500", "102832.787500", "102833.787500", "102834.787500", "102835.787500", "102836.787500", "102837.787500", "102838.787500", "102839.787500", "102840.787500", "102841.787500", "102842.787500", "102843.787500", "102844.787500", "102845.787500", "102846.787500", "102847.787500", "102848.787500", "102849.787500", "102850.787500", "102851.787500", "102852.787500", "102853.787500", "102854.787500", "102855.787500", "102856.787500", "102857.787500", "102858.787500", "102859.787500", "102900.787500", "102901.787500", "102902.787500", "102903.787500", "102904.787500", "102905.787500", "102906.787500", "102907.787500", "102908.787500", "102909.787500", "102910.787500", "102911.787500", "102912.787500", "102913.787500", "102914.787500", "102915.787500", "102916.787500", "102917.787500", "102918.787500", "102919.787500", "102920.787500", "102921.787500", "102922.787500", "102923.787500", "102924.787500", "102925.787500", "102926.787500", "102927.787500", "102928.787500", "102929.787500", "102930.787500", "102931.787500", "102932.787500", "102933.787500", "102934.787500", "102935.787500", "102936.787500", "102937.787500", "102938.787500", "102939.787500", "102940.787500", "102941.787500", "102942.787500", "102943.787500", "102944.787500", "102945.787500", "102946.787500", "102947.787500", "102948.787500", "102949.787500", "102950.787500", "102951.787500", "102952.787500", "102953.787500", "102954.787500", "102955.787500", "102956.787500", "102957.787500", "102958.787500", "102959.787500", "103000.787500", "103001.787500", "103002.787500", "103003.787500", "103004.787500", "103005.787500", "103006.787500", "103007.787500", "103008.787500", "103009.787500", "103010.787500", "103011.787500", "103012.787500", "103013.787500", "103014.787500", "103015.787500", "103016.787500", "103017.787500", "103018.787500", "103019.787500", "103020.787500", "103021.787500", "103022.787500", "103023.787500", "103024.787500", "103025.787500", "103026.787500", "103027.787500", "103028.787500", "103029.787500", "103030.787500", "103031.787500", "103032.787500", "103033.787500", "103034.787500", "103035.787500", "103036.787500", "103037.787500", "103038.787500", "103039.787500", "103040.787500", "103041.787500", "103042.787500", "103043.787500", "103044.787500", "103045.787500", "103046.787500", "103047.787500", "103048.787500", "103049.787500", "103050.787500", "103051.787500", "103052.787500", "103053.787500", "103054.787500", "103055.787500", "103056.787500", "103057.787500", "103058.787500", "103059.787500", "103100.787500", "103101.787500", "103102.787500", "103103.787500", "103104.787500", "103105.787500", "103106.787500", "103107.787500", "103108.787500", "103109.787500", "103110.787500", "103111.787500", "103112.787500", "103113.787500", "103114.787500", "103115.787500", "103116.787500", "103117.787500", "103118.787500", "103119.787500", "103120.787500", "103121.787500", "103122.787500", "103123.787500", "103124.787500", "103125.787500", "103126.787500", "103127.787500", "103128.787500", "103129.787500", "103130.787500", "103131.787500", "103132.787500", "103133.787500", "103134.787500", "103135.787500", "103136.787500", "103137.787500", "103138.787500", "103139.787500", "103140.787500", "103141.787500", "103142.787500", "103143.787500", "103144.787500", "103145.787500", "103146.787500", "103147.787500", "103148.787500", "103149.787500", "103150.787500", "103151.787500", "103152.787500", "103153.787500", "103154.787500", "103155.787500", "103156.787500"],
      "ContentTime": ["102806.417000", "102806.420000", "102806.423000", "102806.426000", "102806.429000", "102806.432000", "102806.435000", "102806.438000", "102806.441000", "102806.444000", "102806.452000", "102806.459000", "102806.463000", "102806.465000", "102806.468000", "102806.471000", "102806.474000", "102806.477000", "102806.480000", "102806.483000", "102806.486000", "102806.489000", "102806.492000", "102806.495000", "102826.384000", "102826.393000", "102826.396000", "102826.399000", "102826.402000", "102826.405000", "102826.408000", "102826.411000", "102826.414000", "102826.417000", "102826.420000", "102826.423000", "102826.426000", "102826.429000", "102826.432000", "102826.435000", "102826.438000", "102826.441000", "102826.444000", "102826.447000", "102826.450000", "102826.452000", "102826.455000", "102826.460000", "102826.463000", "102826.466000", "102826.469000", "102826.472000", "102846.384000", "102846.387000", "102846.390000", "102846.393000", "102846.396000", "102846.399000", "102846.402000", "102846.405000", "102846.408000", "102846.411000", "102846.414000", "102846.417000", "102846.420000", "102846.423000", "102846.426000", "102846.428000", "102846.431000", "102846.434000", "102846.437000", "102846.452000", "102846.455000", "102846.459000", "102846.462000", "102846.465000", "102846.468000", "102846.471000", "102846.474000", "102846.477000", "102906.384000", "102906.387000", "102906.390000", "102906.393000", "102906.396000", "102906.399000", "102906.402000", "102906.405000", "102906.408000", "102906.411000", "102906.414000", "102906.417000", "102906.420000", "102906.423000", "102906.426000", "102906.428000", "102906.431000", "102906.434000", "102906.437000", "102906.440000", "102906.443000", "102906.446000", "102906.449000", "102906.452000", "102906.463000", "102906.466000", "102906.469000", "102906.472000", "102906.475000", "102926.384000", "102926.387000", "102926.398000", "102926.401000", "102926.404000", "102926.407000", "102926.410000", "102926.413000", "102926.416000", "102926.418000", "102926.421000", "102926.424000", "102926.427000", "102926.430000", "102926.433000", "102926.436000", "102926.439000", "102926.442000", "102926.445000", "102926.448000", "102926.451000", "102926.454000", "102926.458000", "102926.462000", "102926.465000", "102926.468000", "102926.471000", "102926.474000", "102946.384000", "102946.387000", "102946.390000", "102946.393000", "102946.396000", "102946.399000", "102946.402000", "102946.405000", "102946.408000", "102946.411000", "102946.414000", "102946.417000", "102946.420000", "102946.423000", "102946.426000", "102946.429000", "102946.432000", "102946.435000", "102946.438000", "102946.441000", "102946.444000", "102946.447000", "102946.450000", "102946.453000", "102946.456000", "102946.461000", "102946.464000", "102946.467000", "103006.384000", "103006.387000", "103006.390000", "103006.393000", "103006.396000", "103006.399000", "103006.402000", "103006.405000", "103006.408000", "103006.411000", "103006.414000", "103006.417000", "103006.420000", "103006.423000", "103006.426000", "103006.429000", "103006.432000", "103006.435000", "103006.438000", "103006.441000", "103006.444000", "103006.447000", "103026.384000", "103026.387000", "103026.390000", "103026.393000", "103026.396000", "103026.399000", "103026.402000", "103026.405000", "103026.408000", "103026.411000", "103026.414000", "103026.417000", "103026.420000", "103026.423000", "103026.426000", "103026.429000", "103026.432000", "103026.435000", "103026.438000", "103026.441000", "103046.384000", "103046.387000", "103046.390000", "103046.393000", "103046.396000", "103046.399000", "103046.402000", "103046.405000", "103046.408000", "103046.411000", "103046.414000", "103046.417000", "103046.420000", "103046.423000", "103046.426000", "103046.429000", "103046.432000", "103046.435000", "103046.438000", "103046.441000", "103106.384000", "103106.387000", "103106.390000", "103106.393000", "103106.396000", "103106.399000", "103106.402000", "103106.405000", "103106.408000", "103106.411000", "103106.414000", "103106.417000", "103106.420000", "103106.423000", "103106.426000", "103106.429000", "103106.432000", "103106.435000", "103106.438000", "103106.441000", "103126.384000", "103126.387000", "103126.399000", "103126.402000", "103126.405000", "103126.408000", "103126.411000", "103126.428000", "103126.431000", "103126.434000", "103126.437000", "103126.440000", "103126.443000", "103126.446000", "103126.449000", "103126.452000", "103126.456000", "103126.459000", "103126.463000", "103126.466000", "103146.384000", "103146.387000", "103146.390000", "103146.393000", "103146.396000", "103146.399000", "103146.402000", "103146.405000", "103146.408000", "103146.411000", "103146.414000", "103146.417000", "103146.420000", "103146.423000", "103146.426000", "103146.429000", "103146.432000", "103146.435000", "103146.438000", "103146.441000", "103158.647000", "103158.650000", "103158.653000", "103158.656000", "103158.660000", "103158.662000", "103158.665000", "103158.668000", "103158.671000", "103158.675000", "103158.677000", "103158.680000", "103158.683000"],
      "InstanceCreationTime": ["102806.417000", "102806.420000", "102806.423000", "102806.426000", "102806.429000", "102806.432000", "102806.435000", "102806.438000", "102806.441000", "102806.444000", "102806.452000", "102806.459000", "102806.463000", "102806.465000", "102806.468000", "102806.471000", "102806.474000", "102806.477000", "102806.480000", "102806.483000", "102806.486000", "102806.489000", "102806.492000", "102806.495000", "102826.384000", "102826.393000", "102826.396000", "102826.399000", "102826.402000", "102826.405000", "102826.408000", "102826.411000", "102826.414000", "102826.417000", "102826.420000", "102826.423000", "102826.426000", "102826.429000", "102826.432000", "102826.435000", "102826.438000", "102826.441000", "102826.444000", "102826.447000", "102826.450000", "102826.452000", "102826.455000", "102826.460000", "102826.463000", "102826.466000", "102826.469000", "102826.472000", "102846.384000", "102846.387000", "102846.390000", "102846.393000", "102846.396000", "102846.399000", "102846.402000", "102846.405000", "102846.408000", "102846.411000", "102846.414000", "102846.417000", "102846.420000", "102846.423000", "102846.426000", "102846.428000", "102846.431000", "102846.434000", "102846.437000", "102846.452000", "102846.455000", "102846.459000", "102846.462000", "102846.465000", "102846.468000", "102846.471000", "102846.474000", "102846.477000", "102906.384000", "102906.387000", "102906.390000", "102906.393000", "102906.396000", "102906.399000", "102906.402000", "102906.405000", "102906.408000", "102906.411000", "102906.414000", "102906.417000", "102906.420000", "102906.423000", "102906.426000", "102906.428000", "102906.431000", "102906.434000", "102906.437000", "102906.440000", "102906.443000", "102906.446000", "102906.449000", "102906.452000", "102906.463000", "102906.466000", "102906.469000", "102906.472000", "102906.475000", "102926.384000", "102926.387000", "102926.398000", "102926.401000", "102926.404000", "102926.407000", "102926.410000", "102926.413000", "102926.416000", "102926.418000", "102926.421000", "102926.424000", "102926.427000", "102926.430000", "102926.433000", "102926.436000", "102926.439000", "102926.442000", "102926.445000", "102926.448000", "102926.451000", "102926.454000", "102926.458000", "102926.462000", "102926.465000", "102926.468000", "102926.471000", "102926.474000", "102946.384000", "102946.387000", "102946.390000", "102946.393000", "102946.396000", "102946.399000", "102946.402000", "102946.405000", "102946.408000", "102946.411000", "102946.414000", "102946.417000", "102946.420000", "102946.423000", "102946.426000", "102946.429000", "102946.432000", "102946.435000", "102946.438000", "102946.441000", "102946.444000", "102946.447000", "102946.450000", "102946.453000", "102946.456000", "102946.461000", "102946.464000", "102946.467000", "103006.384000", "103006.387000", "103006.390000", "103006.393000", "103006.396000", "103006.399000", "103006.402000", "103006.405000", "103006.408000", "103006.411000", "103006.414000", "103006.417000", "103006.420000", "103006.423000", "103006.426000", "103006.429000", "103006.432000", "103006.435000", "103006.438000", "103006.441000", "103006.444000", "103006.447000", "103026.384000", "103026.387000", "103026.390000", "103026.393000", "103026.396000", "103026.399000", "103026.402000", "103026.405000", "103026.408000", "103026.411000", "103026.414000", "103026.417000", "103026.420000", "103026.423000", "103026.426000", "103026.429000", "103026.432000", "103026.435000", "103026.438000", "103026.441000", "103046.384000", "103046.387000", "103046.390000", "103046.393000", "103046.396000", "103046.399000", "103046.402000", "103046.405000", "103046.408000", "103046.411000", "103046.414000", "103046.417000", "103046.420000", "103046.423000", "103046.426000", "103046.429000", "103046.432000", "103046.435000", "103046.438000", "103046.441000", "103106.384000", "103106.387000", "103106.390000", "103106.393000", "103106.396000", "103106.399000", "103106.402000", "103106.405000", "103106.408000", "103106.411000", "103106.414000", "103106.417000", "103106.420000", "103106.423000", "103106.426000", "103106.429000", "103106.432000", "103106.435000", "103106.438000", "103106.441000", "103126.384000", "103126.387000", "103126.399000", "103126.402000", "103126.405000", "103126.408000", "103126.411000", "103126.428000", "103126.431000", "103126.434000", "103126.437000", "103126.440000", "103126.443000", "103126.446000", "103126.449000", "103126.452000", "103126.456000", "103126.459000", "103126.463000", "103126.466000", "103146.384000", "103146.387000", "103146.390000", "103146.393000", "103146.396000", "103146.399000", "103146.402000", "103146.405000", "103146.408000", "103146.411000", "103146.414000", "103146.417000", "103146.420000", "103146.423000", "103146.426000", "103146.429000", "103146.432000", "103146.435000", "103146.438000", "103146.441000", "103158.647000", "103158.650000", "103158.653000", "103158.656000", "103158.660000", "103158.662000", "103158.665000", "103158.668000", "103158.671000", "103158.675000", "103158.677000", "103158.680000", "103158.683000"],
      "InstanceNumber": [1, 2, 3, 4, 5, 6, 7, 8, 9, 10, 11, 12, 13, 14, 15, 16, 17, 18, 19, 20, 21, 22, 23, 24, 25, 26, 27, 28, 29, 30, 31, 32, 33, 34, 35, 36, 37, 38, 39, 40, 41, 42, 43, 44, 45, 46, 47, 48, 49, 50, 51, 52, 53, 54, 55, 56, 57, 58, 59, 60, 61, 62, 63, 64, 65, 66, 67, 68, 69, 70, 71, 72, 73, 74, 75, 76, 77, 78, 79, 80, 81, 82, 83, 84, 85, 86, 87, 88, 89, 90, 91, 92, 93, 94, 95, 96, 97, 98, 99, 100, 101, 102, 103, 104, 105, 106, 107, 108, 109, 110, 111, 112, 113, 114, 115, 116, 117, 118, 119, 120, 121, 122, 123, 124, 125, 126, 127, 128, 129, 130, 131, 132, 133, 134, 135, 136, 137, 138, 139, 140, 141, 142, 143, 144, 145, 146, 147, 148, 149, 150, 151, 152, 153, 154, 155, 156, 157, 158, 159, 160, 161, 162, 163, 164, 165, 166, 167, 168, 169, 170, 171, 172, 173, 174, 175, 176, 177, 178, 179, 180, 181, 182, 183, 184, 185, 186, 187, 188, 189, 190, 191, 192, 193, 194, 195, 196, 197, 198, 199, 200, 201, 202, 203, 204, 205, 206, 207, 208, 209, 210, 211, 212, 213, 214, 215, 216, 217, 218, 219, 220, 221, 222, 223, 224, 225, 226, 227, 228, 229, 230, 231, 232, 233, 234, 235, 236, 237, 238, 239, 240, 241, 242, 243, 244, 245, 246, 247, 248, 249, 250, 251, 252, 253, 254, 255, 256, 257, 258, 259, 260, 261, 262, 263, 264, 265, 266, 267, 268, 269, 270, 271, 272, 273, 274, 275, 276, 277, 278, 279, 280, 281, 282, 283, 284, 285, 286, 287, 288, 289, 290, 291, 292, 293, 294, 295, 296, 297, 298, 299, 300],
      "LargestImagePixelValue": [41638, 38889, 37655, 37165, 36910, 36641, 36677, 37311, 37917, 37856, 38082, 38054, 37812, 37336, 37034, 37145, 37133, 37205, 37143, 37284, 37745, 37238, 36952, 37021, 37461, 36947, 37063, 36776, 36583, 36637, 37145, 36597, 36582, 36949, 37016, 36766, 36334, 36702, 36548, 36716, 36091, 36644, 36111, 36370, 36546, 36052, 36469, 37319, 36462, 36469, 36615, 36842, 36670, 36531, 36321, 36912, 36337, 36886, 36953, 36662, 36835, 36633, 36738, 36574, 36314, 36637, 36708, 36387, 36600, 36888, 36071, 36482, 36318, 36912, 36662, 36938, 37073, 36963, 36556, 36649, 36440, 37076, 36705, 36365, 36190, 37080, 37820, 36790, 37343, 38179, 37579, 36993, 37435, 36760, 37398, 36984, 36616, 36503, 36427, 36608, 36731, 36673, 37700, 38132, 37606, 37668, 36952, 38570, 39095, 37033, 38887, 38828, 38429, 38428, 36945, 36641, 36503, 36345, 36624, 36565, 36282, 36727, 36377, 36264, 36245, 36499, 36483, 36342, 36625, 36828, 36292, 36747, 36496, 37293, 38562, 37228, 37844, 35969, 36502, 36245, 36075, 36171, 36388, 36343, 36309, 36320, 36307, 36388, 36318, 36538, 36516, 36360, 36578, 36264, 36204, 36514, 36217, 36255, 36139, 36401, 37857, 37492, 36528, 36366, 36509, 36672, 38272, 38404, 38379, 38171, 39493, 38658, 36893, 36303, 38840, 39333, 39397, 40086, 39530, 38354, 38770, 38322, 38309, 38660, 39401, 38846, 39524, 39352, 36336, 36232, 37652, 38898, 37377, 36659, 36350, 36303, 36547, 37273, 36425, 36136, 36503, 36408, 37199, 36326, 36253, 36692, 37520, 36301, 36201, 36440, 36525, 36627, 36262, 36481, 37022, 39386, 40515, 39721, 39796, 40266, 40045, 38505, 40434, 39424, 36101, 36104, 36414, 36131, 37648, 38735, 36899, 36506, 36357, 36201, 36494, 36497, 35925, 36179, 36180, 36245, 35847, 36205, 36239, 36267, 36393, 36192, 36271, 36398, 36575, 36221, 36328, 36258, 36079, 35825, 36544, 36345, 36445, 36233, 36380, 36057, 36279, 36347, 36560, 36454, 35920, 36522, 36635, 36209, 36157, 39650, 41146, 41343, 39812, 40208, 40464, 40386, 40096, 39555, 39036, 38664, 38386, 39112, 40466, 39456, 40245, 39785, 38038, 37238, 36262, 36079, 36428, 36444, 36132, 36663, 36112, 36905, 38692, 37225, 36065, 36305],
      "WindowCenter": [9660.0, 9605.0, 9564.0, 9540.0, 9537.0, 9526.0, 9503.0, 9492.0, 9490.0, 9472.0, 9471.0, 9463.0, 9462.0, 9473.0, 9473.0, 9499.0, 9500.0, 9526.0, 9529.0, 9555.0, 9555.0, 9558.0, 9561.0, 9570.0, 9574.0, 9570.0, 9577.0, 9585.0, 9587.0, 9606.0, 9612.0, 9617.0, 9628.0, 9626.0, 9631.0, 9632.0, 9617.0, 9625.0, 9621.0, 9624.0, 9613.0, 9615.0, 9604.0, 9611.0, 9610.0, 9595.0, 9594.0, 9606.0, 9600.0, 9591.0, 9591.0, 9589.0, 9588.0, 9589.0, 9584.0, 9595.0, 9589.0, 9596.0, 9589.0, 9587.0, 9586.0, 9579.0, 9585.0, 9588.0, 9585.0, 9582.0, 9588.0, 9598.0, 9601.0, 9597.0, 9591.0, 9592.0, 9591.0, 9588.0, 9588.0, 9589.0, 9593.0, 9587.0, 9595.0, 9605.0, 9604.0, 9608.0, 9603.0, 9597.0, 9590.0, 9594.0, 9597.0, 9572.0, 9573.0, 9570.0, 9562.0, 9565.0, 9572.0, 9574.0, 9581.0, 9583.0, 9578.0, 9579.0, 9585.0, 9585.0, 9601.0, 9603.0, 9621.0, 9618.0, 9614.0, 9620.0, 9600.0, 9623.0, 9629.0, 9618.0, 9641.0, 9643.0, 9630.0, 9620.0, 9592.0, 9586.0, 9585.0, 9576.0, 9577.0, 9576.0, 9578.0, 9593.0, 9593.0, 9594.0, 9597.0, 9595.0, 9592.0, 9592.0, 9585.0, 9591.0, 9593.0, 9600.0, 9600.0, 9611.0, 9621.0, 9614.0, 9619.0, 9589.0, 9593.0, 9586.0, 9577.0, 9582.0, 9591.0, 9598.0, 9603.0, 9599.0, 9586.0, 9583.0, 9575.0, 9574.0, 9580.0, 9579.0, 9589.0, 9599.0, 9599.0, 9601.0, 9603.0, 9600.0, 9595.0, 9602.0, 9617.0, 9609.0, 9592.0, 9591.0, 9583.0, 9572.0, 9587.0, 9595.0, 9612.0, 9607.0, 9625.0, 9613.0, 9605.0, 9593.0, 9628.0, 9642.0, 9654.0, 9666.0, 9660.0, 9642.0, 9632.0, 9616.0, 9615.0, 9612.0, 9618.0, 9613.0, 9616.0, 9616.0, 9589.0, 9593.0, 9609.0, 9619.0, 9602.0, 9595.0, 9575.0, 9581.0, 9590.0, 9601.0, 9591.0, 9585.0, 9583.0, 9573.0, 9576.0, 9578.0, 9585.0, 9606.0, 9611.0, 9593.0, 9595.0, 9600.0, 9599.0, 9590.0, 9593.0, 9592.0, 9599.0, 9632.0, 9645.0, 9633.0, 9633.0, 9637.0, 9626.0, 9621.0, 9634.0, 9625.0, 9593.0, 9599.0, 9598.0, 9594.0, 9617.0, 9621.0, 9605.0, 9598.0, 9591.0, 9584.0, 9599.0, 9598.0, 9587.0, 9600.0, 9602.0, 9600.0, 9595.0, 9593.0, 9592.0, 9601.0, 9593.0, 9596.0, 9586.0, 9591.0, 9581.0, 9583.0, 9591.0, 9593.0, 9603.0, 9614.0, 9611.0, 9608.0, 9602.0, 9595.0, 9593.0, 9591.0, 9593.0, 9592.0, 9600.0, 9600.0, 9587.0, 9592.0, 9600.0, 9602.0, 9610.0, 9656.0, 9671.0, 9667.0, 9642.0, 9639.0, 9639.0, 9639.0, 9640.0, 9642.0, 9631.0, 9648.0, 9642.0, 9639.0, 9640.0, 9627.0, 9624.0, 9617.0, 9600.0, 9587.0, 9578.0, 9590.0, 9601.0, 9615.0, 9616.0, 9616.0, 9611.0, 9608.0, 9615.0, 9590.0, 9578.0, 9586.0],
