{
  "AcquisitionMatrixPE": 104,
  "AcquisitionNumber": 1,
  "AcquisitionTime": "10:40:6.655000",
  "BandwidthPerPixelPhaseEncode": 16.297,
  "BaseResolution": 104,
  "BodyPartExamined": "BRAIN",
  "ConsistencyInfo": "N4_VE11C_LATEST_20160120",
  "ConversionSoftware": "dcm2niix",
  "ConversionSoftwareVersion": "v1.0.20210317",
  "DerivedVendorReportedEchoSpacing": 0.000590009,
  "DeviceSerialNumber": "166018",
  "DwellTime": 2.1e-06,
  "EchoTime": 0.0376,
  "EchoTrainLength": 104,
  "EffectiveEchoSpacing": 0.000590009,
  "FlipAngle": 68,
  "ImageComments": "Unaliased MB6/PE3/LB",
  "ImageOrientationPatientDICOM": [0.998614, -0.0429183, -0.0304615, 0.0401085, 0.995355, -0.0875219],
  "ImageType": [
    "ORIGINAL",
    "PRIMARY",
    "M",
    "MB",
    "ND",
    "MOSAIC"
],
  "ImagingFrequency": 123.197,
  "InPlanePhaseEncodingDirectionDICOM": "COL",
  "InstitutionAddress": "Washington Place 6,NYC,NYC,US,10003",
  "InstitutionName": "NYU - CBI",
  "InstitutionalDepartmentName": "Department",
  "MRAcquisitionType": "2D",
  "MagneticFieldStrength": 3,
  "Manufacturer": "Siemens",
  "ManufacturersModelName": "Prisma",
  "Modality": "MR",
  "MultibandAccelerationFactor": 6,
  "PartialFourier": 1,
  "PatientPosition": "HFS",
  "PercentPhaseFOV": 100,
  "PercentSampling": 100,
  "PhaseEncodingDirection": "j",
  "PhaseEncodingSteps": 104,
  "PhaseResolution": 1,
  "PixelBandwidth": 2290,
  "ProcedureStepDescription": "Investigators^Winawer",
  "ProtocolName": "cmrr_mbepi_s6_2mm_66sl_PA_task-bar3",
  "PulseSequenceDetails": "%CustomerSeq%\\cmrr_mbep2d_bold",
  "ReceiveCoilActiveElements": "HC1-7",
  "ReceiveCoilName": "HeadNeck_64",
  "ReconMatrixPE": 104,
  "RepetitionTime": 1,
  "SAR": 0.0729854,
  "ScanOptions": "FS",
  "ScanningSequence": "EP",
  "SequenceName": "epfid2d1_104",
  "SequenceVariant": "SK\\SS",
  "SeriesDescription": "cmrr_mbepi_s6_2mm_66sl_PA_task-bar3",
  "SeriesNumber": 16,
  "ShimSetting": [267, -12591, -8530, 244, -32, 10, -33, 60],
  "SliceThickness": 2,
  "SliceTiming": [0, 0.535, 0.09, 0.6225, 0.1775, 0.7125, 0.2675, 0.8025, 0.3575, 0.89, 0.445, 0, 0.535, 0.09, 0.6225, 0.1775, 0.7125, 0.2675, 0.8025, 0.3575, 0.89, 0.445, 0, 0.535, 0.09, 0.6225, 0.1775, 0.7125, 0.2675, 0.8025, 0.3575, 0.89, 0.445, 0, 0.535, 0.09, 0.6225, 0.1775, 0.7125, 0.2675, 0.8025, 0.3575, 0.89, 0.445, 0, 0.535, 0.09, 0.6225, 0.1775, 0.7125, 0.2675, 0.8025, 0.3575, 0.89, 0.445, 0, 0.535, 0.09, 0.6225, 0.1775, 0.7125, 0.2675, 0.8025, 0.3575, 0.89, 0.445],
  "SoftwareVersions": "syngo MR E11",
  "SpacingBetweenSlices": 2,
  "StationName": "AWP166018",
  "TaskName": "bar3",
  "TotalReadoutTime": 0.060771,
  "TxRefAmp": 213.709,
  "VendorReportedEchoSpacing": 0.00059,
  "WipMemBlock": "820db6f5-5bc6-4e8c-853b-c70f2e53ec73||Sequence: R016 ve11c/master r/8780670; Nov 27 2017 15:05:12 by eja",
  "dcmmeta_affine": [
    [-1.9972281455993652, 0.08021703362464905, -0.06815261393785477, 107.39866638183594],
    [0.08583668619394302, 1.990709662437439, -0.17235776782035828, -83.09314727783203],
    [-0.060923021286726, 0.17504389584064484, 1.9913934469223022, -40.47085189819336],
    [0.0, 0.0, 0.0, 1.0]
],
  "dcmmeta_reorient_transform": [
    [0.0, -1.0, 0.0, 103.0],
    [1.0, 0.0, 0.0, 0.0],
    [0.0, 0.0, 1.0, 0.0],
    [0.0, 0.0, 0.0, 1.0]
],
  "dcmmeta_shape": [104, 104, 66, 300],
  "dcmmeta_slice_dim": 2,
  "dcmmeta_version": 0.6,
  "global": {
    "const": {
      "AccessionNumber": "Lesn0ypp",
      "AcquisitionMatrix": [104, 0, 0, 104],
      "AngioFlag": "N",
      "BitsAllocated": 16,
      "BitsStored": 16,
      "BodyPartExamined": "BRAIN",
      "Columns": 936,
      "EchoNumbers": 1,
      "EchoTime": 37.6,
      "EchoTrainLength": 104,
      "FlipAngle": 68.0,
      "HighBit": 15,
      "ImageOrientationPatient": [0.99861409574136, -0.0429183433295, -0.030461510017, 0.04010851562974, 0.99535481870828, -0.0875219506649],
      "ImagePositionPatient": [-979.8782310303, -914.37709017938, 75.720910311533],
      "ImageType": [
        "ORIGINAL",
        "PRIMARY",
        "M",
        "MB",
        "ND",
        "MOSAIC"
],
      "ImagedNucleus": "1H",
      "ImagingFrequency": 123.196849,
      "InPlanePhaseEncodingDirection": "COL",
      "MRAcquisitionType": "2D",
      "MagneticFieldStrength": 3.0,
      "Manufacturer": "SIEMENS",
      "ManufacturerModelName": "Prisma",
      "Modality": "MR",
      "NumberOfAverages": 1.0,
      "NumberOfPhaseEncodingSteps": 104,
      "PercentPhaseFieldOfView": 100.0,
      "PercentSampling": 100.0,
      "PerformedProcedureStepStartTime": "095149.684000",
      "PhotometricInterpretation": "MONOCHROME2",
      "PixelBandwidth": 2290.0,
      "PixelRepresentation": 0,
      "PixelSpacing": [2.0, 2.0],
      "ProtocolName": "cmrr_mbepi_s6_2mm_66sl_PA_task-bar3",
      "RepetitionTime": 1000.0,
      "Rows": 936,
      "SAR": 0.07298536732566,
      "SamplesPerPixel": 1,
      "ScanOptions": "FS",
      "ScanningSequence": "EP",
      "SequenceName": "epfid2d1_104",
      "SequenceVariant": [
        "SK",
        "SS"
],
      "SeriesDescription": "cmrr_mbepi_s6_2mm_66sl_PA_task-bar3",
      "SeriesNumber": 16,
      "SeriesTime": "104126.561000",
      "SliceLocation": -36.795569061026,
      "SliceThickness": 2.0,
      "SmallestImagePixelValue": 0,
      "SoftwareVersions": "syngo MR E11",
      "SpacingBetweenSlices": 1.9999999699856,
      "SpecificCharacterSet": "ISO_IR 100",
      "StudyID": "1",
      "StudyTime": "095149.616000",
      "TransmitCoilName": "Body",
      "VariableFlipAngleFlag": "N",
      "WindowCenterWidthExplanation": "Algo1",
      "dBdt": 0.0},
    "slices": {}
  },
  "time": {
    "samples": {
      "AcquisitionNumber": [1, 2, 3, 4, 5, 6, 7, 8, 9, 10, 11, 12, 13, 14, 15, 16, 17, 18, 19, 20, 21, 22, 23, 24, 25, 26, 27, 28, 29, 30, 31, 32, 33, 34, 35, 36, 37, 38, 39, 40, 41, 42, 43, 44, 45, 46, 47, 48, 49, 50, 51, 52, 53, 54, 55, 56, 57, 58, 59, 60, 61, 62, 63, 64, 65, 66, 67, 68, 69, 70, 71, 72, 73, 74, 75, 76, 77, 78, 79, 80, 81, 82, 83, 84, 85, 86, 87, 88, 89, 90, 91, 92, 93, 94, 95, 96, 97, 98, 99, 100, 101, 102, 103, 104, 105, 106, 107, 108, 109, 110, 111, 112, 113, 114, 115, 116, 117, 118, 119, 120, 121, 122, 123, 124, 125, 126, 127, 128, 129, 130, 131, 132, 133, 134, 135, 136, 137, 138, 139, 140, 141, 142, 143, 144, 145, 146, 147, 148, 149, 150, 151, 152, 153, 154, 155, 156, 157, 158, 159, 160, 161, 162, 163, 164, 165, 166, 167, 168, 169, 170, 171, 172, 173, 174, 175, 176, 177, 178, 179, 180, 181, 182, 183, 184, 185, 186, 187, 188, 189, 190, 191, 192, 193, 194, 195, 196, 197, 198, 199, 200, 201, 202, 203, 204, 205, 206, 207, 208, 209, 210, 211, 212, 213, 214, 215, 216, 217, 218, 219, 220, 221, 222, 223, 224, 225, 226, 227, 228, 229, 230, 231, 232, 233, 234, 235, 236, 237, 238, 239, 240, 241, 242, 243, 244, 245, 246, 247, 248, 249, 250, 251, 252, 253, 254, 255, 256, 257, 258, 259, 260, 261, 262, 263, 264, 265, 266, 267, 268, 269, 270, 271, 272, 273, 274, 275, 276, 277, 278, 279, 280, 281, 282, 283, 284, 285, 286, 287, 288, 289, 290, 291, 292, 293, 294, 295, 296, 297, 298, 299, 300],
      "AcquisitionTime": ["104006.655000", "104007.655000", "104008.655000", "104009.655000", "104010.655000", "104011.655000", "104012.655000", "104013.655000", "104014.655000", "104015.655000", "104016.655000", "104017.655000", "104018.655000", "104019.655000", "104020.655000", "104021.655000", "104022.655000", "104023.655000", "104024.655000", "104025.655000", "104026.655000", "104027.655000", "104028.655000", "104029.655000", "104030.655000", "104031.655000", "104032.655000", "104033.655000", "104034.655000", "104035.655000", "104036.655000", "104037.655000", "104038.655000", "104039.655000", "104040.655000", "104041.655000", "104042.655000", "104043.655000", "104044.655000", "104045.655000", "104046.655000", "104047.655000", "104048.655000", "104049.655000", "104050.655000", "104051.655000", "104052.655000", "104053.655000", "104054.655000", "104055.655000", "104056.655000", "104057.655000", "104058.655000", "104059.655000", "104100.655000", "104101.655000", "104102.655000", "104103.655000", "104104.655000", "104105.655000", "104106.655000", "104107.655000", "104108.655000", "104109.655000", "104110.655000", "104111.655000", "104112.655000", "104113.655000", "104114.655000", "104115.655000", "104116.655000", "104117.655000", "104118.655000", "104119.655000", "104120.655000", "104121.655000", "104122.655000", "104123.655000", "104124.655000", "104125.655000", "104126.655000", "104127.655000", "104128.655000", "104129.655000", "104130.655000", "104131.655000", "104132.655000", "104133.655000", "104134.655000", "104135.655000", "104136.655000", "104137.655000", "104138.655000", "104139.655000", "104140.655000", "104141.655000", "104142.655000", "104143.655000", "104144.655000", "104145.655000", "104146.655000", "104147.655000", "104148.655000", "104149.655000", "104150.655000", "104151.655000", "104152.655000", "104153.655000", "104154.655000", "104155.655000", "104156.655000", "104157.655000", "104158.655000", "104159.655000", "104200.655000", "104201.655000", "104202.655000", "104203.655000", "104204.655000", "104205.655000", "104206.655000", "104207.655000", "104208.655000", "104209.655000", "104210.655000", "104211.655000", "104212.655000", "104213.655000", "104214.655000", "104215.655000", "104216.655000", "104217.655000", "104218.655000", "104219.655000", "104220.655000", "104221.655000", "104222.655000", "104223.655000", "104224.655000", "104225.655000", "104226.655000", "104227.655000", "104228.655000", "104229.655000", "104230.655000", "104231.655000", "104232.655000", "104233.655000", "104234.655000", "104235.655000", "104236.655000", "104237.655000", "104238.655000", "104239.655000", "104240.655000", "104241.655000", "104242.655000", "104243.655000", "104244.655000", "104245.655000", "104246.655000", "104247.655000", "104248.655000", "104249.655000", "104250.655000", "104251.655000", "104252.655000", "104253.655000", "104254.655000", "104255.655000", "104256.655000", "104257.655000", "104258.655000", "104259.655000", "104300.655000", "104301.655000", "104302.655000", "104303.655000", "104304.655000", "104305.655000", "104306.655000", "104307.655000", "104308.655000", "104309.655000", "104310.655000", "104311.655000", "104312.655000", "104313.655000", "104314.655000", "104315.655000", "104316.655000", "104317.655000", "104318.655000", "104319.655000", "104320.655000", "104321.655000", "104322.655000", "104323.655000", "104324.655000", "104325.655000", "104326.655000", "104327.655000", "104328.655000", "104329.655000", "104330.655000", "104331.655000", "104332.655000", "104333.655000", "104334.655000", "104335.655000", "104336.655000", "104337.655000", "104338.655000", "104339.655000", "104340.655000", "104341.655000", "104342.655000", "104343.655000", "104344.655000", "104345.655000", "104346.655000", "104347.655000", "104348.655000", "104349.655000", "104350.655000", "104351.655000", "104352.655000", "104353.655000", "104354.655000", "104355.655000", "104356.655000", "104357.655000", "104358.655000", "104359.655000", "104400.655000", "104401.655000", "104402.655000", "104403.655000", "104404.655000", "104405.655000", "104406.655000", "104407.655000", "104408.655000", "104409.655000", "104410.655000", "104411.655000", "104412.655000", "104413.655000", "104414.655000", "104415.655000", "104416.655000", "104417.655000", "104418.655000", "104419.655000", "104420.655000", "104421.655000", "104422.655000", "104423.655000", "104424.655000", "104425.655000", "104426.655000", "104427.655000", "104428.655000", "104429.655000", "104430.655000", "104431.655000", "104432.655000", "104433.655000", "104434.655000", "104435.655000", "104436.655000", "104437.655000", "104438.655000", "104439.655000", "104440.655000", "104441.655000", "104442.655000", "104443.655000", "104444.655000", "104445.655000", "104446.655000", "104447.655000", "104448.655000", "104449.655000", "104450.655000", "104451.655000", "104452.655000", "104453.655000", "104454.655000", "104455.655000", "104456.655000", "104457.655000", "104458.655000", "104459.655000", "104500.655000", "104501.655000", "104502.655000", "104503.655000", "104504.655000", "104505.655000"],
      "ContentTime": ["104126.564000", "104126.568000", "104126.571000", "104126.574000", "104126.577000", "104126.580000", "104126.583000", "104126.586000", "104126.589000", "104126.592000", "104126.595000", "104126.604000", "104126.607000", "104126.610000", "104126.613000", "104126.616000", "104126.619000", "104126.622000", "104126.625000", "104126.628000", "104126.631000", "104126.634000", "104126.637000", "104126.640000", "104126.643000", "104126.646000", "104126.649000", "104126.652000", "104126.655000", "104126.658000", "104126.661000", "104126.664000", "104126.667000", "104126.670000", "104126.673000", "104126.676000", "104126.679000", "104126.682000", "104126.685000", "104126.688000", "104126.691000", "104126.694000", "104126.697000", "104126.700000", "104126.703000", "104146.533000", "104146.536000", "104146.539000", "104146.542000", "104146.545000", "104146.548000", "104146.551000", "104146.554000", "104146.557000", "104146.560000", "104146.563000", "104146.566000", "104146.569000", "104146.580000", "104146.583000", "104146.587000", "104146.590000", "104146.592000", "104146.595000", "104146.598000", "104146.601000", "104146.604000", "104146.607000", "104146.610000", "104146.613000", "104146.616000", "104146.619000", "104146.622000", "104206.533000", "104206.536000", "104206.539000", "104206.542000", "104206.545000", "104206.548000", "104206.551000", "104206.554000", "104206.557000", "104206.560000", "104206.563000", "104206.566000", "104206.569000", "104206.572000", "104206.575000", "104206.578000", "104206.581000", "104206.584000", "104206.587000", "104206.590000", "104206.593000", "104206.596000", "104206.599000", "104206.602000", "104206.605000", "104206.608000", "104206.611000", "104206.614000", "104206.617000", "104226.533000", "104226.536000", "104226.539000", "104226.542000", "104226.545000", "104226.548000", "104226.551000", "104226.554000", "104226.557000", "104226.560000", "104226.563000", "104226.566000", "104226.569000", "104226.572000", "104226.575000", "104226.578000", "104226.581000", "104226.584000", "104226.587000", "104226.590000", "104226.593000", "104226.596000", "104226.599000", "104226.614000", "104226.617000", "104226.620000", "104226.623000", "104226.626000", "104246.533000", "104246.536000", "104246.539000", "104246.542000", "104246.545000", "104246.548000", "104246.551000", "104246.554000", "104246.557000", "104246.560000", "104246.563000", "104246.566000", "104246.569000", "104246.572000", "104246.575000", "104246.578000", "104246.581000", "104246.584000", "104246.587000", "104246.590000", "104246.593000", "104246.596000", "104246.599000", "104246.602000", "104246.604000", "104246.607000", "104246.610000", "104246.623000", "104306.534000", "104306.537000", "104306.540000", "104306.543000", "104306.546000", "104306.549000", "104306.552000", "104306.555000", "104306.558000", "104306.561000", "104306.564000", "104306.567000", "104306.570000", "104306.573000", "104306.576000", "104306.579000", "104306.582000", "104306.585000", "104306.588000", "104306.591000", "104306.594000", "104326.533000", "104326.536000", "104326.539000", "104326.542000", "104326.545000", "104326.548000", "104326.551000", "104326.554000", "104326.557000", "104326.560000", "104326.563000", "104326.566000", "104326.569000", "104326.572000", "104326.575000", "104326.578000", "104326.581000", "104326.584000", "104326.587000", "104326.590000", "104346.533000", "104346.536000", "104346.539000", "104346.542000", "104346.545000", "104346.548000", "104346.551000", "104346.554000", "104346.557000", "104346.560000", "104346.563000", "104346.566000", "104346.569000", "104346.572000", "104346.575000", "104346.578000", "104346.581000", "104346.584000", "104346.587000", "104346.590000", "104406.533000", "104406.536000", "104406.539000", "104406.542000", "104406.545000", "104406.548000", "104406.551000", "104406.554000", "104406.557000", "104406.560000", "104406.563000", "104406.566000", "104406.569000", "104406.572000", "104406.575000", "104406.578000", "104406.581000", "104406.584000", "104406.587000", "104406.590000", "104426.533000", "104426.536000", "104426.539000", "104426.542000", "104426.545000", "104426.548000", "104426.551000", "104426.554000", "104426.557000", "104426.560000", "104426.563000", "104426.566000", "104426.569000", "104426.572000", "104426.575000", "104426.578000", "104426.581000", "104426.584000", "104426.587000", "104426.590000", "104446.533000", "104446.536000", "104446.539000", "104446.542000", "104446.545000", "104446.548000", "104446.551000", "104446.554000", "104446.557000", "104446.560000", "104446.563000", "104446.566000", "104446.569000", "104446.572000", "104446.575000", "104446.578000", "104446.581000", "104446.584000", "104446.587000", "104446.590000", "104506.533000", "104506.536000", "104506.539000", "104506.542000", "104506.545000", "104506.548000", "104506.551000", "104506.554000", "104506.557000", "104506.560000", "104506.563000", "104506.566000", "104506.569000", "104506.572000", "104506.575000", "104506.578000", "104506.581000", "104506.584000", "104506.587000", "104506.590000", "104507.297000"],
      "InstanceCreationTime": ["104126.564000", "104126.568000", "104126.571000", "104126.574000", "104126.577000", "104126.580000", "104126.583000", "104126.586000", "104126.589000", "104126.592000", "104126.595000", "104126.604000", "104126.607000", "104126.610000", "104126.613000", "104126.616000", "104126.619000", "104126.622000", "104126.625000", "104126.628000", "104126.631000", "104126.634000", "104126.637000", "104126.640000", "104126.643000", "104126.646000", "104126.649000", "104126.652000", "104126.655000", "104126.658000", "104126.661000", "104126.664000", "104126.667000", "104126.670000", "104126.673000", "104126.676000", "104126.679000", "104126.682000", "104126.685000", "104126.688000", "104126.691000", "104126.694000", "104126.697000", "104126.700000", "104126.703000", "104146.533000", "104146.536000", "104146.539000", "104146.542000", "104146.545000", "104146.548000", "104146.551000", "104146.554000", "104146.557000", "104146.560000", "104146.563000", "104146.566000", "104146.569000", "104146.580000", "104146.583000", "104146.587000", "104146.590000", "104146.592000", "104146.595000", "104146.598000", "104146.601000", "104146.604000", "104146.607000", "104146.610000", "104146.613000", "104146.616000", "104146.619000", "104146.622000", "104206.533000", "104206.536000", "104206.539000", "104206.542000", "104206.545000", "104206.548000", "104206.551000", "104206.554000", "104206.557000", "104206.560000", "104206.563000", "104206.566000", "104206.569000", "104206.572000", "104206.575000", "104206.578000", "104206.581000", "104206.584000", "104206.587000", "104206.590000", "104206.593000", "104206.596000", "104206.599000", "104206.602000", "104206.605000", "104206.608000", "104206.611000", "104206.614000", "104206.617000", "104226.533000", "104226.536000", "104226.539000", "104226.542000", "104226.545000", "104226.548000", "104226.551000", "104226.554000", "104226.557000", "104226.560000", "104226.563000", "104226.566000", "104226.569000", "104226.572000", "104226.575000", "104226.578000", "104226.581000", "104226.584000", "104226.587000", "104226.590000", "104226.593000", "104226.596000", "104226.599000", "104226.614000", "104226.617000", "104226.620000", "104226.623000", "104226.626000", "104246.533000", "104246.536000", "104246.539000", "104246.542000", "104246.545000", "104246.548000", "104246.551000", "104246.554000", "104246.557000", "104246.560000", "104246.563000", "104246.566000", "104246.569000", "104246.572000", "104246.575000", "104246.578000", "104246.581000", "104246.584000", "104246.587000", "104246.590000", "104246.593000", "104246.596000", "104246.599000", "104246.602000", "104246.604000", "104246.607000", "104246.610000", "104246.623000", "104306.534000", "104306.537000", "104306.540000", "104306.543000", "104306.546000", "104306.549000", "104306.552000", "104306.555000", "104306.558000", "104306.561000", "104306.564000", "104306.567000", "104306.570000", "104306.573000", "104306.576000", "104306.579000", "104306.582000", "104306.585000", "104306.588000", "104306.591000", "104306.594000", "104326.533000", "104326.536000", "104326.539000", "104326.542000", "104326.545000", "104326.548000", "104326.551000", "104326.554000", "104326.557000", "104326.560000", "104326.563000", "104326.566000", "104326.569000", "104326.572000", "104326.575000", "104326.578000", "104326.581000", "104326.584000", "104326.587000", "104326.590000", "104346.533000", "104346.536000", "104346.539000", "104346.542000", "104346.545000", "104346.548000", "104346.551000", "104346.554000", "104346.557000", "104346.560000", "104346.563000", "104346.566000", "104346.569000", "104346.572000", "104346.575000", "104346.578000", "104346.581000", "104346.584000", "104346.587000", "104346.590000", "104406.533000", "104406.536000", "104406.539000", "104406.542000", "104406.545000", "104406.548000", "104406.551000", "104406.554000", "104406.557000", "104406.560000", "104406.563000", "104406.566000", "104406.569000", "104406.572000", "104406.575000", "104406.578000", "104406.581000", "104406.584000", "104406.587000", "104406.590000", "104426.533000", "104426.536000", "104426.539000", "104426.542000", "104426.545000", "104426.548000", "104426.551000", "104426.554000", "104426.557000", "104426.560000", "104426.563000", "104426.566000", "104426.569000", "104426.572000", "104426.575000", "104426.578000", "104426.581000", "104426.584000", "104426.587000", "104426.590000", "104446.533000", "104446.536000", "104446.539000", "104446.542000", "104446.545000", "104446.548000", "104446.551000", "104446.554000", "104446.557000", "104446.560000", "104446.563000", "104446.566000", "104446.569000", "104446.572000", "104446.575000", "104446.578000", "104446.581000", "104446.584000", "104446.587000", "104446.590000", "104506.533000", "104506.536000", "104506.539000", "104506.542000", "104506.545000", "104506.548000", "104506.551000", "104506.554000", "104506.557000", "104506.560000", "104506.563000", "104506.566000", "104506.569000", "104506.572000", "104506.575000", "104506.578000", "104506.581000", "104506.584000", "104506.587000", "104506.590000", "104507.297000"],
      "InstanceNumber": [1, 2, 3, 4, 5, 6, 7, 8, 9, 10, 11, 12, 13, 14, 15, 16, 17, 18, 19, 20, 21, 22, 23, 24, 25, 26, 27, 28, 29, 30, 31, 32, 33, 34, 35, 36, 37, 38, 39, 40, 41, 42, 43, 44, 45, 46, 47, 48, 49, 50, 51, 52, 53, 54, 55, 56, 57, 58, 59, 60, 61, 62, 63, 64, 65, 66, 67, 68, 69, 70, 71, 72, 73, 74, 75, 76, 77, 78, 79, 80, 81, 82, 83, 84, 85, 86, 87, 88, 89, 90, 91, 92, 93, 94, 95, 96, 97, 98, 99, 100, 101, 102, 103, 104, 105, 106, 107, 108, 109, 110, 111, 112, 113, 114, 115, 116, 117, 118, 119, 120, 121, 122, 123, 124, 125, 126, 127, 128, 129, 130, 131, 132, 133, 134, 135, 136, 137, 138, 139, 140, 141, 142, 143, 144, 145, 146, 147, 148, 149, 150, 151, 152, 153, 154, 155, 156, 157, 158, 159, 160, 161, 162, 163, 164, 165, 166, 167, 168, 169, 170, 171, 172, 173, 174, 175, 176, 177, 178, 179, 180, 181, 182, 183, 184, 185, 186, 187, 188, 189, 190, 191, 192, 193, 194, 195, 196, 197, 198, 199, 200, 201, 202, 203, 204, 205, 206, 207, 208, 209, 210, 211, 212, 213, 214, 215, 216, 217, 218, 219, 220, 221, 222, 223, 224, 225, 226, 227, 228, 229, 230, 231, 232, 233, 234, 235, 236, 237, 238, 239, 240, 241, 242, 243, 244, 245, 246, 247, 248, 249, 250, 251, 252, 253, 254, 255, 256, 257, 258, 259, 260, 261, 262, 263, 264, 265, 266, 267, 268, 269, 270, 271, 272, 273, 274, 275, 276, 277, 278, 279, 280, 281, 282, 283, 284, 285, 286, 287, 288, 289, 290, 291, 292, 293, 294, 295, 296, 297, 298, 299, 300],
      "LargestImagePixelValue": [43239, 41608, 39887, 41059, 39665, 39610, 39945, 40127, 39420, 39984, 39926, 39543, 39340, 40984, 39834, 40513, 42365, 42101, 43025, 42284, 43269, 42896, 42723, 41802, 38690, 38773, 39204, 38787, 39651, 39259, 39689, 38912, 39362, 39027, 39624, 39497, 39698, 40027, 39544, 39814, 42584, 41907, 39955, 40120, 39997, 39975, 40438, 40489, 40127, 39767, 39984, 40121, 40229, 39848, 40299, 40778, 40013, 40683, 40663, 40393, 40598, 40604, 40489, 40257, 39939, 40130, 40021, 39742, 39859, 39636, 40148, 39933, 40016, 39996, 42016, 43633, 42224, 42220, 43380, 42751, 40188, 40797, 40813, 40509, 40779, 40520, 40851, 40870, 40517, 40213, 40483, 40218, 40362, 40636, 40882, 40341, 40963, 40027, 40472, 40622, 40278, 39863, 39997, 40512, 40452, 40534, 40969, 40603, 40129, 40158, 40180, 40374, 40843, 40822, 40437, 40275, 40488, 40622, 40094, 40675, 40547, 40324, 40322, 40580, 40376, 40511, 40217, 40416, 40502, 40406, 40379, 40179, 40255, 40382, 40579, 39741, 41028, 40736, 40221, 40474, 42431, 42970, 42153, 40607, 40838, 40791, 40837, 42654, 43530, 43123, 42757, 40623, 40465, 40471, 40581, 40100, 40119, 39944, 39858, 40433, 40863, 40436, 40296, 40655, 40364, 40202, 40457, 40730, 39892, 40169, 40109, 39940, 40363, 40719, 40540, 40262, 40232, 40002, 40299, 40245, 40239, 39961, 41055, 40966, 40502, 40723, 40037, 40507, 40778, 40238, 40569, 40769, 40269, 40322, 40133, 40360, 40552, 40420, 39859, 40059, 40314, 40490, 40402, 40165, 40183, 40064, 41063, 41821, 41913, 40900, 40351, 40131, 40416, 39927, 41143, 40463, 39942, 40294, 40527, 40079, 40058, 40142, 40221, 40092, 40613, 40666, 40379, 40785, 41830, 41789, 41269, 41467, 41204, 41153, 41797, 42415, 42126, 42031, 42475, 42108, 42165, 41734, 41096, 40588, 40256, 40150, 40513, 40182, 40461, 40215, 40780, 40630, 41196, 41337, 41522, 41919, 40777, 42064, 41594, 41172, 40485, 39847, 40414, 40494, 40369, 40070, 40094, 40147, 40104, 39707, 39864, 39919, 40060, 39831, 40553, 40265, 39874, 39536, 40013, 39831, 39777, 41119, 41080, 40188, 40349, 40578, 40909, 40528, 41115, 41158, 40655, 41170, 40723, 40420, 40611, 41186, 40626, 41049, 41189, 41257],
      "WindowCenter": [9716.0, 9664.0, 9643.0, 9643.0, 9630.0, 9642.0, 9647.0, 9656.0, 9652.0, 9655.0, 9657.0, 9641.0, 9632.0, 9641.0, 9618.0, 9626.0, 9648.0, 9643.0, 9653.0, 9648.0, 9659.0, 9653.0, 9653.0, 9650.0, 9618.0, 9618.0, 9630.0, 9618.0, 9621.0, 9614.0, 9613.0, 9600.0, 9613.0, 9607.0, 9613.0, 9614.0, 9636.0, 9647.0, 9640.0, 9639.0, 9666.0, 9652.0, 9628.0, 9629.0, 9635.0, 9643.0, 9659.0, 9675.0, 9664.0, 9649.0, 9646.0, 9636.0, 9627.0, 9635.0, 9636.0, 9649.0, 9642.0, 9655.0, 9660.0, 9658.0, 9659.0, 9652.0, 9659.0, 9644.0, 9644.0, 9645.0, 9644.0, 9638.0, 9645.0, 9646.0, 9652.0, 9652.0, 9653.0, 9653.0, 9669.0, 9686.0, 9660.0, 9664.0, 9668.0, 9656.0, 9616.0, 9622.0, 9629.0, 9638.0, 9645.0, 9648.0, 9653.0, 9655.0, 9650.0, 9650.0, 9650.0, 9643.0, 9640.0, 9656.0, 9665.0, 9670.0, 9682.0, 9663.0, 9661.0, 9657.0, 9651.0, 9636.0, 9635.0, 9649.0, 9649.0, 9655.0, 9664.0, 9657.0, 9638.0, 9637.0, 9633.0, 9634.0, 9653.0, 9665.0, 9661.0, 9667.0, 9657.0, 9650.0, 9634.0, 9642.0, 9657.0, 9652.0, 9658.0, 9659.0, 9649.0, 9648.0, 9643.0, 9634.0, 9641.0, 9641.0, 9642.0, 9640.0, 9640.0, 9642.0, 9650.0, 9647.0, 9659.0, 9659.0, 9653.0, 9651.0, 9674.0, 9673.0, 9669.0, 9657.0, 9666.0, 9659.0, 9674.0, 9686.0, 9689.0, 9681.0, 9668.0, 9644.0, 9645.0, 9653.0, 9662.0, 9662.0, 9655.0, 9646.0, 9640.0, 9651.0, 9656.0, 9651.0, 9645.0, 9646.0, 9638.0, 9637.0, 9645.0, 9651.0, 9639.0, 9636.0, 9621.0, 9621.0, 9620.0, 9636.0, 9643.0, 9653.0, 9654.0, 9649.0, 9639.0, 9639.0, 9645.0, 9649.0, 9661.0, 9659.0, 9652.0, 9654.0, 9640.0, 9636.0, 9644.0, 9645.0, 9645.0, 9650.0, 9647.0, 9647.0, 9641.0, 9648.0, 9654.0, 9639.0, 9633.0, 9640.0, 9646.0, 9651.0, 9652.0, 9647.0, 9648.0, 9650.0, 9660.0, 9679.0, 9690.0, 9678.0, 9666.0, 9653.0, 9643.0, 9634.0, 9637.0, 9630.0, 9624.0, 9630.0, 9638.0, 9641.0, 9646.0, 9648.0, 9647.0, 9648.0, 9651.0, 9652.0, 9656.0, 9662.0, 9671.0, 9664.0, 9653.0, 9643.0, 9635.0, 9639.0, 9653.0, 9659.0, 9667.0, 9679.0, 9686.0, 9688.0, 9675.0, 9673.0, 9661.0, 9664.0, 9666.0, 9659.0, 9655.0, 9642.0, 9645.0, 9645.0, 9654.0, 9661.0, 9667.0, 9667.0, 9670.0, 9664.0, 9654.0, 9663.0, 9654.0, 9652.0, 9639.0, 9634.0, 9640.0, 9645.0, 9639.0, 9634.0, 9632.0, 9623.0, 9621.0, 9623.0, 9626.0, 9631.0, 9624.0, 9619.0, 9623.0, 9623.0, 9618.0, 9611.0, 9625.0, 9627.0, 9644.0, 9656.0, 9657.0, 9654.0, 9650.0, 9650.0, 9657.0, 9672.0, 9675.0, 9680.0, 9675.0, 9671.0, 9661.0, 9651.0, 9654.0, 9654.0, 9648.0, 9657.0, 9659.0, 9656.0],
