{
  "AcquisitionMatrixPE": 104,
  "AcquisitionNumber": 1,
  "AcquisitionTime": "13:27:8.930000",
  "BandwidthPerPixelPhaseEncode": 16.578,
  "BaseResolution": 104,
  "BodyPartExamined": "BRAIN",
  "ConsistencyInfo": "N4_VE11C_LATEST_20160120",
  "ConversionSoftware": "dcm2niix",
  "ConversionSoftwareVersion": "v1.0.20190902",
  "DerivedVendorReportedEchoSpacing": 0.000580009,
  "DeviceSerialNumber": "166018",
  "DwellTime": 2.1e-06,
  "EchoTime": 0.037,
  "EchoTrainLength": 104,
  "EffectiveEchoSpacing": 0.000580009,
  "FlipAngle": 68,
  "ImageComments": "Unaliased_MB6_PE3_LB",
  "ImageOrientationPatientDICOM": [0.99991, -0.00921518, -0.0097062, 0.00785337, 0.991214, -0.132034],
  "ImageType": [
    "ORIGINAL",
    "PRIMARY",
    "M",
    "MB",
    "ND",
    "MOSAIC"
],
  "ImagingFrequency": 123.191,
  "InPlanePhaseEncodingDirectionDICOM": "COL",
  "InstitutionAddress": "Washington_Place_6_NYC_NYC_US_10003",
  "InstitutionName": "NYU_-_CBI",
  "InstitutionalDepartmentName": "Department",
  "MRAcquisitionType": "2D",
  "MagneticFieldStrength": 3,
  "Manufacturer": "Siemens",
  "ManufacturersModelName": "Prisma",
  "Modality": "MR",
  "MultibandAccelerationFactor": 6,
  "PartialFourier": 1,
  "PatientPosition": "HFS",
  "PercentPhaseFOV": 100,
  "PhaseEncodingDirection": "j",
  "PhaseEncodingSteps": 104,
  "PhaseResolution": 1,
  "PixelBandwidth": 2290,
  "ProcedureStepDescription": "Investigators_Winawer",
  "ProtocolName": "cmrr_mbepi_s6_2mm_66sl_PA_task-prf",
  "PulseSequenceDetails": "%CustomerSeq%_cmrr_mbep2d_bold",
  "ReceiveCoilActiveElements": "HC1-7",
  "ReceiveCoilName": "HeadNeck_64",
  "ReconMatrixPE": 104,
  "RepetitionTime": 1,
  "SAR": 0.0572377,
  "ScanOptions": "FS",
  "ScanningSequence": "EP",
  "SequenceName": "epfid2d1_104",
  "SequenceVariant": "SK_SS",
  "SeriesDescription": "cmrr_mbepi_s6_2mm_66sl_PA_task-prf",
  "SeriesNumber": 8,
  "ShimSetting": [253, -12590, -8467, 315, -14, -34, -74, 25],
  "SliceThickness": 2,
  "SliceTiming": [0, 0.535, 0.09, 0.625, 0.1775, 0.7125, 0.2675, 0.8025, 0.3575, 0.89, 0.445, 0, 0.535, 0.09, 0.625, 0.1775, 0.7125, 0.2675, 0.8025, 0.3575, 0.89, 0.445, 0, 0.535, 0.09, 0.625, 0.1775, 0.7125, 0.2675, 0.8025, 0.3575, 0.89, 0.445, 0, 0.535, 0.09, 0.625, 0.1775, 0.7125, 0.2675, 0.8025, 0.3575, 0.89, 0.445, 0, 0.535, 0.09, 0.625, 0.1775, 0.7125, 0.2675, 0.8025, 0.3575, 0.89, 0.445, 0, 0.535, 0.09, 0.625, 0.1775, 0.7125, 0.2675, 0.8025, 0.3575, 0.89, 0.445],
  "SoftwareVersions": "syngo_MR_E11",
  "SpacingBetweenSlices": 2,
  "StationName": "AWP166018",
  "TaskName": "prf",
  "TotalReadoutTime": 0.0597409,
  "TxRefAmp": 206.833,
  "WipMemBlock": "74b4e339-02b7-49cd-8271-b956540a6e73||Sequence: R016 ve11c/master r/8780670; Nov 27 2017 15:05:12 by eja",
  "dcmmeta_affine": [
    [-1.9998208284378052, 0.015706742182374, -0.02167527936398983, 107.14173126220703],
    [0.01843036152422428, 1.9824281930923462, -0.26389187574386597, -85.84158325195312],
    [-0.01941240206360817, 0.26406800746917725, 1.9823952913284302, -56.82004165649414],
    [0.0, 0.0, 0.0, 1.0]
],
  "dcmmeta_reorient_transform": [
    [0.0, -1.0, 0.0, 103.0],
    [1.0, 0.0, 0.0, 0.0],
    [0.0, 0.0, 1.0, 0.0],
    [0.0, 0.0, 0.0, 1.0]
],
  "dcmmeta_shape": [104, 104, 66, 192],
  "dcmmeta_slice_dim": 2,
  "dcmmeta_version": 0.6,
  "global": {
    "const": {
      "AccessionNumber": "k3ypk7w7",
      "AcquisitionMatrix": [104, 0, 0, 104],
      "AngioFlag": "N",
      "BitsAllocated": 16,
      "BitsStored": 16,
      "BodyPartExamined": "BRAIN",
      "Columns": 936,
      "EchoNumbers": 1,
      "EchoTime": 37.0,
      "EchoTrainLength": 104,
      "FlipAngle": 68.0,
      "HighBit": 15,
      "ImageOrientationPatient": [0.99991043104239, -0.0092151805036, -0.0097062011573, 0.00785337150745, 0.99121407761761, -0.1320339989875],
      "ImagePositionPatient": [-947.2190118342, -935.37160025184, 88.306808750398],
      "ImageType": [
        "ORIGINAL",
        "PRIMARY",
        "M",
        "MB",
        "ND",
        "MOSAIC"
],
      "ImagedNucleus": "1H",
      "ImagingFrequency": 123.190761,
      "InPlanePhaseEncodingDirection": "COL",
      "MRAcquisitionType": "2D",
      "MagneticFieldStrength": 3.0,
      "Manufacturer": "SIEMENS",
      "ManufacturerModelName": "Prisma",
      "Modality": "MR",
      "NumberOfAverages": 1.0,
      "NumberOfPhaseEncodingSteps": 104,
      "PercentPhaseFieldOfView": 100.0,
      "PercentSampling": 100.0,
      "PerformedProcedureStepStartTime": "131411.677000",
      "PhotometricInterpretation": "MONOCHROME2",
      "PixelBandwidth": 2290.0,
      "PixelRepresentation": 0,
      "PixelSpacing": [2.0, 2.0],
      "ProtocolName": "cmrr_mbepi_s6_2mm_66sl_PA_task-prf",
      "RepetitionTime": 1000.0,
      "Rows": 936,
      "SAR": 0.05723768651782,
      "SamplesPerPixel": 1,
      "ScanOptions": "FS",
      "ScanningSequence": "EP",
      "SequenceName": "epfid2d1_104",
      "SequenceVariant": [
        "SK",
        "SS"
],
      "SeriesDescription": "cmrr_mbepi_s6_2mm_66sl_PA_task-prf",
      "SeriesNumber": 8,
      "SeriesTime": "132815.291000",
      "SliceLocation": -46.154607346491,
      "SliceThickness": 2.0,
      "SmallestImagePixelValue": 0,
      "SoftwareVersions": "syngo MR E11",
      "SpacingBetweenSlices": 1.9999999580352,
      "SpecificCharacterSet": "ISO_IR 100",
      "StudyID": "1",
      "StudyTime": "131411.472000",
      "TransmitCoilName": "Body",
      "VariableFlipAngleFlag": "N",
      "WindowCenterWidthExplanation": "Algo1",
      "dBdt": 0.0},
    "slices": {}
  },
  "time": {
    "samples": {
      "AcquisitionNumber": [1, 2, 3, 4, 5, 6, 7, 8, 9, 10, 11, 12, 13, 14, 15, 16, 17, 18, 19, 20, 21, 22, 23, 24, 25, 26, 27, 28, 29, 30, 31, 32, 33, 34, 35, 36, 37, 38, 39, 40, 41, 42, 43, 44, 45, 46, 47, 48, 49, 50, 51, 52, 53, 54, 55, 56, 57, 58, 59, 60, 61, 62, 63, 64, 65, 66, 67, 68, 69, 70, 71, 72, 73, 74, 75, 76, 77, 78, 79, 80, 81, 82, 83, 84, 85, 86, 87, 88, 89, 90, 91, 92, 93, 94, 95, 96, 97, 98, 99, 100, 101, 102, 103, 104, 105, 106, 107, 108, 109, 110, 111, 112, 113, 114, 115, 116, 117, 118, 119, 120, 121, 122, 123, 124, 125, 126, 127, 128, 129, 130, 131, 132, 133, 134, 135, 136, 137, 138, 139, 140, 141, 142, 143, 144, 145, 146, 147, 148, 149, 150, 151, 152, 153, 154, 155, 156, 157, 158, 159, 160, 161, 162, 163, 164, 165, 166, 167, 168, 169, 170, 171, 172, 173, 174, 175, 176, 177, 178, 179, 180, 181, 182, 183, 184, 185, 186, 187, 188, 189, 190, 191, 192],
      "AcquisitionTime": ["132708.930000", "132709.930000", "132710.930000", "132711.930000", "132712.930000", "132713.930000", "132714.930000", "132715.930000", "132716.930000", "132717.930000", "132718.930000", "132719.930000", "132720.930000", "132721.930000", "132722.930000", "132723.930000", "132724.930000", "132725.930000", "132726.930000", "132727.930000", "132728.930000", "132729.930000", "132730.930000", "132731.930000", "132732.930000", "132733.930000", "132734.930000", "132735.930000", "132736.930000", "132737.930000", "132738.930000", "132739.930000", "132740.930000", "132741.930000", "132742.930000", "132743.930000", "132744.930000", "132745.930000", "132746.930000", "132747.930000", "132748.930000", "132749.930000", "132750.930000", "132751.930000", "132752.930000", "132753.930000", "132754.930000", "132755.930000", "132756.930000", "132757.930000", "132758.930000", "132759.930000", "132800.930000", "132801.930000", "132802.930000", "132803.930000", "132804.930000", "132805.930000", "132806.930000", "132807.930000", "132808.930000", "132809.930000", "132810.930000", "132811.930000", "132812.930000", "132813.930000", "132814.930000", "132815.930000", "132816.930000", "132817.930000", "132818.930000", "132819.930000", "132820.930000", "132821.930000", "132822.930000", "132823.930000", "132824.930000", "132825.930000", "132826.930000", "132827.930000", "132828.930000", "132829.930000", "132830.930000", "132831.930000", "132832.930000", "132833.930000", "132834.930000", "132835.930000", "132836.930000", "132837.930000", "132838.930000", "132839.930000", "132840.930000", "132841.930000", "132842.930000", "132843.930000", "132844.930000", "132845.930000", "132846.930000", "132847.930000", "132848.930000", "132849.930000", "132850.930000", "132851.930000", "132852.930000", "132853.930000", "132854.930000", "132855.930000", "132856.930000", "132857.930000", "132858.930000", "132859.930000", "132900.930000", "132901.930000", "132902.930000", "132903.930000", "132904.930000", "132905.930000", "132906.930000", "132907.930000", "132908.930000", "132909.930000", "132910.930000", "132911.930000", "132912.930000", "132913.930000", "132914.930000", "132915.930000", "132916.930000", "132917.930000", "132918.930000", "132919.930000", "132920.930000", "132921.930000", "132922.930000", "132923.930000", "132924.930000", "132925.930000", "132926.930000", "132927.930000", "132928.930000", "132929.930000", "132930.930000", "132931.930000", "132932.930000", "132933.930000", "132934.930000", "132935.930000", "132936.930000", "132937.930000", "132938.930000", "132939.930000", "132940.930000", "132941.930000", "132942.930000", "132943.930000", "132944.930000", "132945.930000", "132946.930000", "132947.930000", "132948.930000", "132949.930000", "132950.930000", "132951.930000", "132952.930000", "132953.930000", "132954.930000", "132955.930000", "132956.930000", "132957.930000", "132958.930000", "132959.930000", "133000.930000", "133001.930000", "133002.930000", "133003.930000", "133004.930000", "133005.930000", "133006.930000", "133007.930000", "133008.930000", "133009.930000", "133010.930000", "133011.930000", "133012.930000", "133013.930000", "133014.930000", "133015.930000", "133016.930000", "133017.930000", "133018.930000", "133019.930000"],
      "ContentTime": ["132815.294000", "132815.297000", "132815.300000", "132815.303000", "132815.306000", "132815.309000", "132815.312000", "132815.315000", "132815.318000", "132815.333000", "132815.336000", "132815.339000", "132815.342000", "132815.345000", "132815.369000", "132815.372000", "132815.375000", "132815.378000", "132815.381000", "132815.383000", "132815.386000", "132815.389000", "132815.392000", "132815.398000", "132835.266000", "132835.269000", "132835.272000", "132835.275000", "132835.277000", "132835.280000", "132835.283000", "132835.292000", "132835.295000", "132835.298000", "132835.300000", "132835.303000", "132835.306000", "132835.309000", "132835.312000", "132835.315000", "132835.318000", "132835.321000", "132835.324000", "132835.327000", "132835.329000", "132835.332000", "132835.335000", "132835.338000", "132835.341000", "132835.344000", "132835.347000", "132835.349000", "132835.352000", "132855.266000", "132855.269000", "132855.272000", "132855.275000", "132855.277000", "132855.280000", "132855.283000", "132855.286000", "132855.289000", "132855.292000", "132855.295000", "132855.297000", "132855.300000", "132855.303000", "132855.306000", "132855.309000", "132855.312000", "132855.315000", "132855.317000", "132855.320000", "132855.323000", "132855.326000", "132855.329000", "132855.332000", "132855.334000", "132855.337000", "132855.340000", "132855.343000", "132915.267000", "132915.270000", "132915.273000", "132915.276000", "132915.278000", "132915.281000", "132915.284000", "132915.287000", "132915.290000", "132915.293000", "132915.295000", "132915.298000", "132915.301000", "132915.304000", "132915.307000", "132915.310000", "132915.313000", "132915.316000", "132915.318000", "132915.321000", "132915.324000", "132915.327000", "132915.330000", "132915.333000", "132915.336000", "132915.339000", "132915.342000", "132915.345000", "132935.267000", "132935.270000", "132935.273000", "132935.275000", "132935.278000", "132935.281000", "132935.284000", "132935.287000", "132935.290000", "132935.293000", "132935.296000", "132935.299000", "132935.301000", "132935.304000", "132935.307000", "132935.310000", "132935.313000", "132935.316000", "132935.319000", "132935.322000", "132935.329000", "132935.332000", "132935.335000", "132935.338000", "132935.341000", "132935.344000", "132935.347000", "132935.349000", "132935.352000", "132955.267000", "132955.270000", "132955.273000", "132955.276000", "132955.278000", "132955.281000", "132955.284000", "132955.287000", "132955.290000", "132955.293000", "132955.296000", "132955.299000", "132955.301000", "132955.304000", "132955.307000", "132955.310000", "132955.313000", "132955.316000", "132955.319000", "132955.321000", "132955.324000", "132955.327000", "132955.330000", "132955.333000", "132955.336000", "132955.339000", "132955.341000", "133015.267000", "133015.270000", "133015.273000", "133015.276000", "133015.279000", "133015.282000", "133015.284000", "133015.287000", "133015.290000", "133015.293000", "133015.296000", "133015.299000", "133015.302000", "133015.304000", "133015.307000", "133015.310000", "133015.313000", "133015.316000", "133015.319000", "133015.322000", "133021.639000", "133021.642000", "133021.645000", "133021.648000", "133021.651000", "133021.654000", "133021.657000"],
      "InstanceCreationTime": ["132815.294000", "132815.297000", "132815.300000", "132815.303000", "132815.306000", "132815.309000", "132815.312000", "132815.315000", "132815.318000", "132815.333000", "132815.336000", "132815.339000", "132815.342000", "132815.345000", "132815.369000", "132815.372000", "132815.375000", "132815.378000", "132815.381000", "132815.383000", "132815.386000", "132815.389000", "132815.392000", "132815.398000", "132835.266000", "132835.269000", "132835.272000", "132835.275000", "132835.277000", "132835.280000", "132835.283000", "132835.292000", "132835.295000", "132835.298000", "132835.300000", "132835.303000", "132835.306000", "132835.309000", "132835.312000", "132835.315000", "132835.318000", "132835.321000", "132835.324000", "132835.327000", "132835.329000", "132835.332000", "132835.335000", "132835.338000", "132835.341000", "132835.344000", "132835.347000", "132835.349000", "132835.352000", "132855.266000", "132855.269000", "132855.272000", "132855.275000", "132855.277000", "132855.280000", "132855.283000", "132855.286000", "132855.289000", "132855.292000", "132855.295000", "132855.297000", "132855.300000", "132855.303000", "132855.306000", "132855.309000", "132855.312000", "132855.315000", "132855.317000", "132855.320000", "132855.323000", "132855.326000", "132855.329000", "132855.332000", "132855.334000", "132855.337000", "132855.340000", "132855.343000", "132915.267000", "132915.270000", "132915.273000", "132915.276000", "132915.278000", "132915.281000", "132915.284000", "132915.287000", "132915.290000", "132915.293000", "132915.295000", "132915.298000", "132915.301000", "132915.304000", "132915.307000", "132915.310000", "132915.313000", "132915.316000", "132915.318000", "132915.321000", "132915.324000", "132915.327000", "132915.330000", "132915.333000", "132915.336000", "132915.339000", "132915.342000", "132915.345000", "132935.267000", "132935.270000", "132935.273000", "132935.275000", "132935.278000", "132935.281000", "132935.284000", "132935.287000", "132935.290000", "132935.293000", "132935.296000", "132935.299000", "132935.301000", "132935.304000", "132935.307000", "132935.310000", "132935.313000", "132935.316000", "132935.319000", "132935.322000", "132935.329000", "132935.332000", "132935.335000", "132935.338000", "132935.341000", "132935.344000", "132935.347000", "132935.349000", "132935.352000", "132955.267000", "132955.270000", "132955.273000", "132955.276000", "132955.278000", "132955.281000", "132955.284000", "132955.287000", "132955.290000", "132955.293000", "132955.296000", "132955.299000", "132955.301000", "132955.304000", "132955.307000", "132955.310000", "132955.313000", "132955.316000", "132955.319000", "132955.321000", "132955.324000", "132955.327000", "132955.330000", "132955.333000", "132955.336000", "132955.339000", "132955.341000", "133015.267000", "133015.270000", "133015.273000", "133015.276000", "133015.279000", "133015.282000", "133015.284000", "133015.287000", "133015.290000", "133015.293000", "133015.296000", "133015.299000", "133015.302000", "133015.304000", "133015.307000", "133015.310000", "133015.313000", "133015.316000", "133015.319000", "133015.322000", "133021.639000", "133021.642000", "133021.645000", "133021.648000", "133021.651000", "133021.654000", "133021.657000"],
      "InstanceNumber": [1, 2, 3, 4, 5, 6, 7, 8, 9, 10, 11, 12, 13, 14, 15, 16, 17, 18, 19, 20, 21, 22, 23, 24, 25, 26, 27, 28, 29, 30, 31, 32, 33, 34, 35, 36, 37, 38, 39, 40, 41, 42, 43, 44, 45, 46, 47, 48, 49, 50, 51, 52, 53, 54, 55, 56, 57, 58, 59, 60, 61, 62, 63, 64, 65, 66, 67, 68, 69, 70, 71, 72, 73, 74, 75, 76, 77, 78, 79, 80, 81, 82, 83, 84, 85, 86, 87, 88, 89, 90, 91, 92, 93, 94, 95, 96, 97, 98, 99, 100, 101, 102, 103, 104, 105, 106, 107, 108, 109, 110, 111, 112, 113, 114, 115, 116, 117, 118, 119, 120, 121, 122, 123, 124, 125, 126, 127, 128, 129, 130, 131, 132, 133, 134, 135, 136, 137, 138, 139, 140, 141, 142, 143, 144, 145, 146, 147, 148, 149, 150, 151, 152, 153, 154, 155, 156, 157, 158, 159, 160, 161, 162, 163, 164, 165, 166, 167, 168, 169, 170, 171, 172, 173, 174, 175, 176, 177, 178, 179, 180, 181, 182, 183, 184, 185, 186, 187, 188, 189, 190, 191, 192],
      "LargestImagePixelValue": [37489, 36553, 36793, 36577, 36734, 36743, 37284, 37050, 37011, 37239, 36958, 37424, 37479, 36996, 36984, 37238, 37060, 36661, 36563, 37177, 37008, 37061, 37393, 37480, 37180, 37345, 37409, 37257, 37111, 37488, 37250, 37051, 37139, 36645, 36981, 37356, 36948, 37105, 37753, 37230, 37452, 36659, 37254, 36328, 36516, 36916, 36759, 36596, 36980, 36982, 36798, 37353, 36485, 36894, 36485, 36128, 36173, 36096, 36088, 35948, 35700, 36068, 36020, 35896, 35985, 36618, 37424, 36948, 37272, 37297, 37598, 37726, 37581, 37852, 37519, 37816, 37420, 37443, 37213, 37188, 37235, 36973, 37103, 36532, 36666, 37064, 37317, 37592, 37587, 36956, 37839, 37082, 36798, 36649, 37005, 36927, 37020, 36861, 37118, 37193, 36998, 36726, 37562, 37616, 36727, 37247, 36998, 36816, 37563, 37910, 37486, 38173, 37611, 37689, 37709, 37248, 37549, 37475, 36793, 37358, 36411, 36457, 36388, 36102, 36538, 36062, 36094, 36387, 36053, 36272, 36437, 35777, 36286, 36350, 36851, 36229, 37159, 36112, 36086, 36262, 36099, 36524, 36787, 36656, 36850, 36970, 37161, 37010, 37323, 37215, 37250, 36819, 36518, 36366, 36330, 36901, 36883, 36967, 37388, 37655, 37224, 37751, 37639, 37856, 37532, 37675, 37894, 37563, 37231, 37450, 37502, 37104, 36583, 36522, 36455, 36198, 35873, 36065, 36090, 35733, 36212, 36396, 36590, 36523, 36602, 36950, 36807, 37187, 36884, 37034, 37312, 37039],
      "WindowCenter": [10207.0, 10175.0, 10172.0, 10171.0, 10179.0, 10193.0, 10207.0, 10206.0, 10197.0, 10196.0, 10188.0, 10180.0, 10179.0, 10177.0, 10176.0, 10171.0, 10170.0, 10164.0, 10163.0, 10165.0, 10155.0, 10163.0, 10168.0, 10174.0, 10184.0, 10177.0, 10176.0, 10177.0, 10171.0, 10169.0, 10170.0, 10164.0, 10162.0, 10155.0, 10152.0, 10149.0, 10136.0, 10132.0, 10143.0, 10123.0, 10130.0, 10128.0, 10131.0, 10128.0, 10138.0, 10150.0, 10154.0, 10155.0, 10159.0, 10160.0, 10155.0, 10150.0, 10140.0, 10141.0, 10133.0, 10130.0, 10130.0, 10138.0, 10131.0, 10123.0, 10123.0, 10129.0, 10127.0, 10125.0, 10133.0, 10147.0, 10157.0, 10162.0, 10167.0, 10169.0, 10170.0, 10174.0, 10169.0, 10175.0, 10162.0, 10166.0, 10161.0, 10151.0, 10147.0, 10154.0, 10154.0, 10162.0, 10161.0, 10163.0, 10166.0, 10168.0, 10168.0, 10152.0, 10148.0, 10132.0, 10131.0, 10125.0, 10118.0, 10118.0, 10126.0, 10141.0, 10156.0, 10161.0, 10179.0, 10180.0, 10188.0, 10177.0, 10181.0, 10185.0, 10169.0, 10164.0, 10162.0, 10151.0, 10153.0, 10162.0, 10158.0, 10151.0, 10158.0, 10162.0, 10165.0, 10162.0, 10169.0, 10170.0, 10173.0, 10179.0, 10175.0, 10173.0, 10159.0, 10146.0, 10142.0, 10135.0, 10125.0, 10131.0, 10125.0, 10131.0, 10137.0, 10128.0, 10134.0, 10139.0, 10133.0, 10133.0, 10139.0, 10128.0, 10140.0, 10142.0, 10136.0, 10147.0, 10148.0, 10147.0, 10148.0, 10153.0, 10145.0, 10145.0, 10142.0, 10145.0, 10145.0, 10139.0, 10139.0, 10139.0, 10134.0, 10139.0, 10139.0, 10147.0, 10145.0, 10157.0, 10149.0, 10152.0, 10160.0, 10176.0, 10179.0, 10187.0, 10193.0, 10196.0, 10190.0, 10188.0, 10187.0, 10174.0, 10159.0, 10153.0, 10144.0, 10136.0, 10128.0, 10118.0, 10117.0, 10110.0, 10116.0, 10123.0, 10130.0, 10142.0, 10154.0, 10165.0, 10168.0, 10173.0, 10167.0, 10164.0, 10162.0, 10157.0],
      "WindowWidth": [21919.0, 21841.0, 21829.0, 21825.0, 21846.0, 21878.0, 21908.0, 21909.0, 21889.0, 21886.0, 21866.0, 21849.0, 21844.0, 21840.0, 21837.0, 21825.0, 21824.0, 21811.0, 21810.0, 21813.0, 21791.0, 21807.0, 21816.0, 21832.0, 21852.0, 21837.0, 21832.0, 21835.0, 21821.0, 21817.0, 21824.0, 21810.0, 21801.0, 21786.0, 21776.0, 21770.0, 21738.0, 21729.0, 21749.0, 21708.0, 21724.0, 21721.0, 21725.0, 21727.0, 21747.0, 21773.0, 21786.0, 21791.0, 21796.0, 21800.0, 21785.0, 21773.0, 21750.0, 21747.0, 21732.0, 21729.0, 21725.0, 21744.0, 21727.0, 21710.0, 21713.0, 21724.0, 21722.0, 21722.0, 21740.0, 21771.0, 21791.0, 21806.0, 21816.0, 21822.0, 21825.0, 21833.0, 21825.0, 21836.0, 21805.0, 21811.0, 21801.0, 21780.0, 21774.0, 21787.0, 21789.0, 21805.0, 21802.0, 21810.0, 21814.0, 21817.0, 21814.0, 21778.0, 21769.0, 21733.0, 21727.0, 21713.0, 21698.0, 21699.0, 21718.0, 21747.0, 21781.0, 21800.0, 21836.0, 21843.0, 21860.0, 21836.0, 21843.0, 21853.0, 21823.0, 21808.0, 21802.0, 21782.0, 21781.0, 21799.0, 21790.0, 21774.0, 21790.0, 21800.0, 21806.0, 21805.0, 21820.0, 21825.0, 21834.0, 21846.0, 21838.0, 21829.0, 21799.0, 21767.0, 21756.0, 21739.0, 21718.0, 21727.0, 21715.0, 21727.0, 21740.0, 21728.0, 21742.0, 21750.0, 21738.0, 21741.0, 21752.0, 21730.0, 21759.0, 21763.0, 21751.0, 21770.0, 21770.0, 21769.0, 21773.0, 21777.0, 21759.0, 21759.0, 21749.0, 21757.0, 21757.0, 21746.0, 21746.0, 21747.0, 21741.0, 21749.0, 21752.0, 21770.0, 21764.0, 21787.0, 21774.0, 21782.0, 21802.0, 21835.0, 21847.0, 21866.0, 21877.0, 21884.0, 21870.0, 21864.0, 21860.0, 21830.0, 21799.0, 21784.0, 21764.0, 21744.0, 21725.0, 21700.0, 21698.0, 21684.0, 21695.0, 21708.0, 21728.0, 21758.0, 21785.0, 21811.0, 21818.0, 21829.0, 21817.0, 21807.0, 21803.0, 21795.0]
    },
    "slices": {}
  },
  "NumberOfVolumes": 192
}