{
  "AcquisitionMatrixPE": 104,
  "AcquisitionNumber": 1,
  "AcquisitionTime": "13:38:49.460000",
  "BandwidthPerPixelPhaseEncode": 16.578,
  "BaseResolution": 104,
  "BodyPartExamined": "BRAIN",
  "ConsistencyInfo": "N4_VE11C_LATEST_20160120",
  "ConversionSoftware": "dcm2niix",
  "ConversionSoftwareVersion": "v1.0.20190902",
  "DerivedVendorReportedEchoSpacing": 0.000580009,
  "DeviceSerialNumber": "166018",
  "DwellTime": 2.1e-06,
  "EchoTime": 0.037,
  "EchoTrainLength": 104,
  "EffectiveEchoSpacing": 0.000580009,
  "FlipAngle": 68,
  "ImageComments": "Unaliased_MB6_PE3_LB",
  "ImageOrientationPatientDICOM": [0.99991, -0.00921518, -0.0097062, 0.00785337, 0.991214, -0.132034],
  "ImageType": [
    "ORIGINAL",
    "PRIMARY",
    "M",
    "MB",
    "ND",
    "MOSAIC"
],
  "ImagingFrequency": 123.191,
  "InPlanePhaseEncodingDirectionDICOM": "COL",
  "InstitutionAddress": "Washington_Place_6_NYC_NYC_US_10003",
  "InstitutionName": "NYU_-_CBI",
  "InstitutionalDepartmentName": "Department",
  "MRAcquisitionType": "2D",
  "MagneticFieldStrength": 3,
  "Manufacturer": "Siemens",
  "ManufacturersModelName": "Prisma",
  "Modality": "MR",
  "MultibandAccelerationFactor": 6,
  "PartialFourier": 1,
  "PatientPosition": "HFS",
  "PercentPhaseFOV": 100,
  "PhaseEncodingDirection": "j",
  "PhaseEncodingSteps": 104,
  "PhaseResolution": 1,
  "PixelBandwidth": 2290,
  "ProcedureStepDescription": "Investigators_Winawer",
  "ProtocolName": "cmrr_mbepi_s6_2mm_66sl_PA_task-prf",
  "PulseSequenceDetails": "%CustomerSeq%_cmrr_mbep2d_bold",
  "ReceiveCoilActiveElements": "HC1-7",
  "ReceiveCoilName": "HeadNeck_64",
  "ReconMatrixPE": 104,
  "RepetitionTime": 1,
  "SAR": 0.0572377,
  "ScanOptions": "FS",
  "ScanningSequence": "EP",
  "SequenceName": "epfid2d1_104",
  "SequenceVariant": "SK_SS",
  "SeriesDescription": "cmrr_mbepi_s6_2mm_66sl_PA_task-prf",
  "SeriesNumber": 14,
  "ShimSetting": [253, -12590, -8467, 315, -14, -34, -74, 25],
  "SliceThickness": 2,
  "SliceTiming": [0, 0.535, 0.0875, 0.6225, 0.1775, 0.7125, 0.2675, 0.8, 0.355, 0.89, 0.445, 0, 0.535, 0.0875, 0.6225, 0.1775, 0.7125, 0.2675, 0.8, 0.355, 0.89, 0.445, 0, 0.535, 0.0875, 0.6225, 0.1775, 0.7125, 0.2675, 0.8, 0.355, 0.89, 0.445, 0, 0.535, 0.0875, 0.6225, 0.1775, 0.7125, 0.2675, 0.8, 0.355, 0.89, 0.445, 0, 0.535, 0.0875, 0.6225, 0.1775, 0.7125, 0.2675, 0.8, 0.355, 0.89, 0.445, 0, 0.535, 0.0875, 0.6225, 0.1775, 0.7125, 0.2675, 0.8, 0.355, 0.89, 0.445],
  "SoftwareVersions": "syngo_MR_E11",
  "SpacingBetweenSlices": 2,
  "StationName": "AWP166018",
  "TaskName": "prf",
  "TotalReadoutTime": 0.0597409,
  "TxRefAmp": 206.833,
  "WipMemBlock": "74b4e339-02b7-49cd-8271-b956540a6e73||Sequence: R016 ve11c/master r/8780670; Nov 27 2017 15:05:12 by eja",
  "dcmmeta_affine": [
    [-1.9998208284378052, 0.015706742182374, -0.02167527936398983, 107.14173126220703],
    [0.01843036152422428, 1.9824281930923462, -0.26389187574386597, -85.84158325195312],
    [-0.01941240206360817, 0.26406800746917725, 1.9823952913284302, -56.82004165649414],
    [0.0, 0.0, 0.0, 1.0]
],
  "dcmmeta_reorient_transform": [
    [0.0, -1.0, 0.0, 103.0],
    [1.0, 0.0, 0.0, 0.0],
    [0.0, 0.0, 1.0, 0.0],
    [0.0, 0.0, 0.0, 1.0]
],
  "dcmmeta_shape": [104, 104, 66, 192],
  "dcmmeta_slice_dim": 2,
  "dcmmeta_version": 0.6,
  "global": {
    "const": {
      "AccessionNumber": "k3ypk7w7",
      "AcquisitionMatrix": [104, 0, 0, 104],
      "AngioFlag": "N",
      "BitsAllocated": 16,
      "BitsStored": 16,
      "BodyPartExamined": "BRAIN",
      "Columns": 936,
      "EchoNumbers": 1,
      "EchoTime": 37.0,
      "EchoTrainLength": 104,
      "FlipAngle": 68.0,
      "HighBit": 15,
      "ImageOrientationPatient": [0.99991043104239, -0.0092151805036, -0.0097062011573, 0.00785337150745, 0.99121407761761, -0.1320339989875],
      "ImagePositionPatient": [-947.2190118342, -935.37160025184, 88.306808750398],
      "ImageType": [
        "ORIGINAL",
        "PRIMARY",
        "M",
        "MB",
        "ND",
        "MOSAIC"
],
      "ImagedNucleus": "1H",
      "ImagingFrequency": 123.190761,
      "InPlanePhaseEncodingDirection": "COL",
      "MRAcquisitionType": "2D",
      "MagneticFieldStrength": 3.0,
      "Manufacturer": "SIEMENS",
      "ManufacturerModelName": "Prisma",
      "Modality": "MR",
      "NumberOfAverages": 1.0,
      "NumberOfPhaseEncodingSteps": 104,
      "PercentPhaseFieldOfView": 100.0,
      "PercentSampling": 100.0,
      "PerformedProcedureStepStartTime": "131411.677000",
      "PhotometricInterpretation": "MONOCHROME2",
      "PixelBandwidth": 2290.0,
      "PixelRepresentation": 0,
      "PixelSpacing": [2.0, 2.0],
      "ProtocolName": "cmrr_mbepi_s6_2mm_66sl_PA_task-prf",
      "RepetitionTime": 1000.0,
      "Rows": 936,
      "SAR": 0.05723768651782,
      "SamplesPerPixel": 1,
      "ScanOptions": "FS",
      "ScanningSequence": "EP",
      "SequenceName": "epfid2d1_104",
      "SequenceVariant": [
        "SK",
        "SS"
],
      "SeriesDescription": "cmrr_mbepi_s6_2mm_66sl_PA_task-prf",
      "SeriesNumber": 14,
      "SeriesTime": "133955.298000",
      "SliceLocation": -46.154607346491,
      "SliceThickness": 2.0,
      "SmallestImagePixelValue": 0,
      "SoftwareVersions": "syngo MR E11",
      "SpacingBetweenSlices": 1.9999999580352,
      "SpecificCharacterSet": "ISO_IR 100",
      "StudyID": "1",
      "StudyTime": "131411.472000",
      "TransmitCoilName": "Body",
      "VariableFlipAngleFlag": "N",
      "WindowCenterWidthExplanation": "Algo1",
      "dBdt": 0.0},
    "slices": {}
  },
  "time": {
    "samples": {
      "AcquisitionNumber": [1, 2, 3, 4, 5, 6, 7, 8, 9, 10, 11, 12, 13, 14, 15, 16, 17, 18, 19, 20, 21, 22, 23, 24, 25, 26, 27, 28, 29, 30, 31, 32, 33, 34, 35, 36, 37, 38, 39, 40, 41, 42, 43, 44, 45, 46, 47, 48, 49, 50, 51, 52, 53, 54, 55, 56, 57, 58, 59, 60, 61, 62, 63, 64, 65, 66, 67, 68, 69, 70, 71, 72, 73, 74, 75, 76, 77, 78, 79, 80, 81, 82, 83, 84, 85, 86, 87, 88, 89, 90, 91, 92, 93, 94, 95, 96, 97, 98, 99, 100, 101, 102, 103, 104, 105, 106, 107, 108, 109, 110, 111, 112, 113, 114, 115, 116, 117, 118, 119, 120, 121, 122, 123, 124, 125, 126, 127, 128, 129, 130, 131, 132, 133, 134, 135, 136, 137, 138, 139, 140, 141, 142, 143, 144, 145, 146, 147, 148, 149, 150, 151, 152, 153, 154, 155, 156, 157, 158, 159, 160, 161, 162, 163, 164, 165, 166, 167, 168, 169, 170, 171, 172, 173, 174, 175, 176, 177, 178, 179, 180, 181, 182, 183, 184, 185, 186, 187, 188, 189, 190, 191, 192],
      "AcquisitionTime": ["133849.460000", "133850.460000", "133851.460000", "133852.460000", "133853.460000", "133854.460000", "133855.460000", "133856.460000", "133857.460000", "133858.460000", "133859.460000", "133900.460000", "133901.460000", "133902.460000", "133903.460000", "133904.460000", "133905.460000", "133906.460000", "133907.460000", "133908.460000", "133909.460000", "133910.460000", "133911.460000", "133912.460000", "133913.460000", "133914.460000", "133915.460000", "133916.460000", "133917.460000", "133918.460000", "133919.460000", "133920.460000", "133921.460000", "133922.460000", "133923.460000", "133924.460000", "133925.460000", "133926.460000", "133927.460000", "133928.460000", "133929.460000", "133930.460000", "133931.460000", "133932.460000", "133933.460000", "133934.460000", "133935.460000", "133936.460000", "133937.460000", "133938.460000", "133939.460000", "133940.460000", "133941.460000", "133942.460000", "133943.460000", "133944.460000", "133945.460000", "133946.460000", "133947.460000", "133948.460000", "133949.460000", "133950.460000", "133951.460000", "133952.460000", "133953.460000", "133954.460000", "133955.460000", "133956.460000", "133957.460000", "133958.460000", "133959.460000", "134000.460000", "134001.460000", "134002.460000", "134003.460000", "134004.460000", "134005.460000", "134006.460000", "134007.460000", "134008.460000", "134009.460000", "134010.460000", "134011.460000", "134012.460000", "134013.460000", "134014.460000", "134015.460000", "134016.460000", "134017.460000", "134018.460000", "134019.460000", "134020.460000", "134021.460000", "134022.460000", "134023.460000", "134024.460000", "134025.460000", "134026.460000", "134027.460000", "134028.460000", "134029.460000", "134030.460000", "134031.460000", "134032.460000", "134033.460000", "134034.460000", "134035.460000", "134036.460000", "134037.460000", "134038.460000", "134039.460000", "134040.460000", "134041.460000", "134042.460000", "134043.460000", "134044.460000", "134045.460000", "134046.460000", "134047.460000", "134048.460000", "134049.460000", "134050.460000", "134051.460000", "134052.460000", "134053.460000", "134054.460000", "134055.460000", "134056.460000", "134057.460000", "134058.460000", "134059.460000", "134100.460000", "134101.460000", "134102.460000", "134103.460000", "134104.460000", "134105.460000", "134106.460000", "134107.460000", "134108.460000", "134109.460000", "134110.460000", "134111.460000", "134112.460000", "134113.460000", "134114.460000", "134115.460000", "134116.460000", "134117.460000", "134118.460000", "134119.460000", "134120.460000", "134121.460000", "134122.460000", "134123.460000", "134124.460000", "134125.460000", "134126.460000", "134127.460000", "134128.460000", "134129.460000", "134130.460000", "134131.460000", "134132.460000", "134133.460000", "134134.460000", "134135.460000", "134136.460000", "134137.460000", "134138.460000", "134139.460000", "134140.460000", "134141.460000", "134142.460000", "134143.460000", "134144.460000", "134145.460000", "134146.460000", "134147.460000", "134148.460000", "134149.460000", "134150.460000", "134151.460000", "134152.460000", "134153.460000", "134154.460000", "134155.460000", "134156.460000", "134157.460000", "134158.460000", "134159.460000", "134200.460000"],
      "ContentTime": ["133955.301000", "133955.304000", "133955.307000", "133955.310000", "133955.313000", "133955.316000", "133955.319000", "133955.321000", "133955.324000", "133955.327000", "133955.330000", "133955.333000", "133955.336000", "133955.346000", "133955.349000", "133955.355000", "133955.358000", "133955.361000", "133955.364000", "133955.366000", "133955.369000", "133955.372000", "133955.375000", "133955.378000", "134015.266000", "134015.269000", "134015.272000", "134015.275000", "134015.277000", "134015.280000", "134015.283000", "134015.286000", "134015.289000", "134015.292000", "134015.295000", "134015.298000", "134015.301000", "134015.303000", "134015.308000", "134015.312000", "134015.314000", "134015.317000", "134015.320000", "134015.323000", "134015.326000", "134015.329000", "134015.332000", "134015.335000", "134015.337000", "134015.340000", "134015.343000", "134015.346000", "134035.266000", "134035.269000", "134035.272000", "134035.274000", "134035.277000", "134035.280000", "134035.283000", "134035.286000", "134035.289000", "134035.292000", "134035.295000", "134035.298000", "134035.300000", "134035.304000", "134035.307000", "134035.310000", "134035.313000", "134035.316000", "134035.319000", "134035.322000", "134035.324000", "134035.327000", "134035.330000", "134035.333000", "134035.336000", "134035.339000", "134035.342000", "134035.344000", "134055.267000", "134055.270000", "134055.273000", "134055.276000", "134055.279000", "134055.281000", "134055.284000", "134055.287000", "134055.290000", "134055.293000", "134055.296000", "134055.299000", "134055.301000", "134055.304000", "134055.307000", "134055.310000", "134055.313000", "134055.316000", "134055.319000", "134055.322000", "134055.324000", "134055.327000", "134055.330000", "134055.333000", "134055.336000", "134055.339000", "134055.342000", "134055.344000", "134055.347000", "134115.267000", "134115.270000", "134115.273000", "134115.275000", "134115.278000", "134115.281000", "134115.284000", "134115.287000", "134115.290000", "134115.293000", "134115.305000", "134115.308000", "134115.310000", "134115.313000", "134115.316000", "134115.319000", "134115.322000", "134115.325000", "134115.328000", "134115.331000", "134115.333000", "134115.336000", "134115.339000", "134115.357000", "134115.360000", "134115.363000", "134115.366000", "134115.369000", "134135.267000", "134135.270000", "134135.273000", "134135.276000", "134135.279000", "134135.281000", "134135.284000", "134135.287000", "134135.290000", "134135.293000", "134135.296000", "134135.299000", "134135.302000", "134135.305000", "134135.307000", "134135.310000", "134135.313000", "134135.316000", "134135.319000", "134135.322000", "134135.325000", "134135.328000", "134135.331000", "134135.333000", "134135.336000", "134135.339000", "134135.342000", "134135.345000", "134155.267000", "134155.270000", "134155.273000", "134155.276000", "134155.279000", "134155.282000", "134155.285000", "134155.287000", "134155.290000", "134155.293000", "134155.296000", "134155.299000", "134155.302000", "134155.305000", "134155.308000", "134155.310000", "134155.313000", "134155.316000", "134155.319000", "134155.322000", "134201.935000", "134201.938000", "134201.941000", "134201.944000", "134201.947000", "134201.950000", "134201.953000"],
      "InstanceCreationTime": ["133955.301000", "133955.304000", "133955.307000", "133955.310000", "133955.313000", "133955.316000", "133955.319000", "133955.321000", "133955.324000", "133955.327000", "133955.330000", "133955.333000", "133955.336000", "133955.346000", "133955.349000", "133955.355000", "133955.358000", "133955.361000", "133955.364000", "133955.366000", "133955.369000", "133955.372000", "133955.375000", "133955.378000", "134015.266000", "134015.269000", "134015.272000", "134015.275000", "134015.277000", "134015.280000", "134015.283000", "134015.286000", "134015.289000", "134015.292000", "134015.295000", "134015.298000", "134015.301000", "134015.303000", "134015.308000", "134015.312000", "134015.314000", "134015.317000", "134015.320000", "134015.323000", "134015.326000", "134015.329000", "134015.332000", "134015.335000", "134015.337000", "134015.340000", "134015.343000", "134015.346000", "134035.266000", "134035.269000", "134035.272000", "134035.274000", "134035.277000", "134035.280000", "134035.283000", "134035.286000", "134035.289000", "134035.292000", "134035.295000", "134035.298000", "134035.300000", "134035.304000", "134035.307000", "134035.310000", "134035.313000", "134035.316000", "134035.319000", "134035.322000", "134035.324000", "134035.327000", "134035.330000", "134035.333000", "134035.336000", "134035.339000", "134035.342000", "134035.344000", "134055.267000", "134055.270000", "134055.273000", "134055.276000", "134055.279000", "134055.281000", "134055.284000", "134055.287000", "134055.290000", "134055.293000", "134055.296000", "134055.299000", "134055.301000", "134055.304000", "134055.307000", "134055.310000", "134055.313000", "134055.316000", "134055.319000", "134055.322000", "134055.324000", "134055.327000", "134055.330000", "134055.333000", "134055.336000", "134055.339000", "134055.342000", "134055.344000", "134055.347000", "134115.267000", "134115.270000", "134115.273000", "134115.275000", "134115.278000", "134115.281000", "134115.284000", "134115.287000", "134115.290000", "134115.293000", "134115.305000", "134115.308000", "134115.310000", "134115.313000", "134115.316000", "134115.319000", "134115.322000", "134115.325000", "134115.328000", "134115.331000", "134115.333000", "134115.336000", "134115.339000", "134115.357000", "134115.360000", "134115.363000", "134115.366000", "134115.369000", "134135.267000", "134135.270000", "134135.273000", "134135.276000", "134135.279000", "134135.281000", "134135.284000", "134135.287000", "134135.290000", "134135.293000", "134135.296000", "134135.299000", "134135.302000", "134135.305000", "134135.307000", "134135.310000", "134135.313000", "134135.316000", "134135.319000", "134135.322000", "134135.325000", "134135.328000", "134135.331000", "134135.333000", "134135.336000", "134135.339000", "134135.342000", "134135.345000", "134155.267000", "134155.270000", "134155.273000", "134155.276000", "134155.279000", "134155.282000", "134155.285000", "134155.287000", "134155.290000", "134155.293000", "134155.296000", "134155.299000", "134155.302000", "134155.305000", "134155.308000", "134155.310000", "134155.313000", "134155.316000", "134155.319000", "134155.322000", "134201.935000", "134201.938000", "134201.941000", "134201.944000", "134201.947000", "134201.950000", "134201.953000"],
      "InstanceNumber": [1, 2, 3, 4, 5, 6, 7, 8, 9, 10, 11, 12, 13, 14, 15, 16, 17, 18, 19, 20, 21, 22, 23, 24, 25, 26, 27, 28, 29, 30, 31, 32, 33, 34, 35, 36, 37, 38, 39, 40, 41, 42, 43, 44, 45, 46, 47, 48, 49, 50, 51, 52, 53, 54, 55, 56, 57, 58, 59, 60, 61, 62, 63, 64, 65, 66, 67, 68, 69, 70, 71, 72, 73, 74, 75, 76, 77, 78, 79, 80, 81, 82, 83, 84, 85, 86, 87, 88, 89, 90, 91, 92, 93, 94, 95, 96, 97, 98, 99, 100, 101, 102, 103, 104, 105, 106, 107, 108, 109, 110, 111, 112, 113, 114, 115, 116, 117, 118, 119, 120, 121, 122, 123, 124, 125, 126, 127, 128, 129, 130, 131, 132, 133, 134, 135, 136, 137, 138, 139, 140, 141, 142, 143, 144, 145, 146, 147, 148, 149, 150, 151, 152, 153, 154, 155, 156, 157, 158, 159, 160, 161, 162, 163, 164, 165, 166, 167, 168, 169, 170, 171, 172, 173, 174, 175, 176, 177, 178, 179, 180, 181, 182, 183, 184, 185, 186, 187, 188, 189, 190, 191, 192],
      "LargestImagePixelValue": [40970, 39840, 39538, 38984, 38626, 39112, 38643, 38649, 38815, 38570, 38817, 38625, 38773, 38617, 38417, 38419, 38311, 38595, 38471, 38311, 38222, 38340, 38146, 38340, 38977, 38577, 39027, 39123, 39201, 38930, 38982, 39037, 39512, 39233, 39329, 38345, 38915, 38602, 38790, 39013, 38876, 38825, 39412, 38986, 39196, 38860, 38844, 39069, 38986, 38629, 38499, 38592, 38862, 38668, 38740, 38621, 38928, 39117, 39231, 39210, 39216, 39495, 39170, 39043, 39111, 38985, 38951, 38869, 38815, 38804, 38649, 38667, 39163, 38920, 39220, 39713, 39268, 39540, 39390, 39365, 39437, 39028, 38468, 38739, 38650, 38771, 38951, 38922, 39304, 38966, 39192, 39635, 39482, 38988, 38825, 38933, 38732, 38904, 38797, 38705, 39167, 38971, 38684, 38774, 38834, 38957, 39012, 39092, 39028, 38972, 39385, 39081, 39354, 38919, 39348, 38749, 39295, 38785, 39036, 38591, 38494, 38909, 38708, 38940, 38809, 38948, 38762, 38849, 38525, 38768, 38687, 38791, 38500, 38389, 38676, 38140, 38537, 38612, 38676, 38834, 39162, 38594, 39044, 38582, 38744, 38833, 38594, 39095, 39253, 39064, 38954, 38836, 38389, 38710, 38535, 38613, 38715, 38529, 38901, 38738, 38304, 38718, 38516, 38291, 38707, 38847, 38583, 38950, 39023, 39370, 38953, 39152, 38726, 39112, 38628, 38651, 38245, 38089, 38275, 38406, 38689, 38589, 38353, 38624, 38296, 38256, 38804, 38465, 38494, 38182, 38121, 38325],
      "WindowCenter": [10280.0, 10241.0, 10231.0, 10210.0, 10200.0, 10200.0, 10191.0, 10189.0, 10189.0, 10187.0, 10190.0, 10196.0, 10196.0, 10198.0, 10192.0, 10191.0, 10200.0, 10199.0, 10202.0, 10213.0, 10220.0, 10230.0, 10229.0, 10229.0, 10233.0, 10217.0, 10220.0, 10201.0, 10195.0, 10189.0, 10179.0, 10177.0, 10181.0, 10181.0, 10191.0, 10183.0, 10201.0, 10199.0, 10200.0, 10206.0, 10199.0, 10206.0, 10211.0, 10205.0, 10214.0, 10214.0, 10215.0, 10223.0, 10230.0, 10233.0, 10235.0, 10241.0, 10243.0, 10227.0, 10225.0, 10217.0, 10213.0, 10212.0, 10203.0, 10201.0, 10199.0, 10192.0, 10188.0, 10185.0, 10185.0, 10184.0, 10180.0, 10188.0, 10188.0, 10196.0, 10198.0, 10197.0, 10205.0, 10197.0, 10199.0, 10192.0, 10184.0, 10181.0, 10175.0, 10166.0, 10179.0, 10177.0, 10180.0, 10189.0, 10196.0, 10197.0, 10203.0, 10197.0, 10201.0, 10191.0, 10194.0, 10193.0, 10195.0, 10202.0, 10199.0, 10205.0, 10206.0, 10210.0, 10207.0, 10215.0, 10229.0, 10230.0, 10232.0, 10227.0, 10224.0, 10216.0, 10207.0, 10202.0, 10195.0, 10193.0, 10199.0, 10198.0, 10203.0, 10212.0, 10221.0, 10210.0, 10221.0, 10217.0, 10222.0, 10219.0, 10213.0, 10224.0, 10221.0, 10224.0, 10226.0, 10227.0, 10227.0, 10240.0, 10228.0, 10227.0, 10226.0, 10222.0, 10219.0, 10217.0, 10212.0, 10213.0, 10211.0, 10215.0, 10211.0, 10210.0, 10216.0, 10211.0, 10207.0, 10202.0, 10200.0, 10193.0, 10199.0, 10204.0, 10211.0, 10208.0, 10213.0, 10210.0, 10217.0, 10217.0, 10221.0, 10219.0, 10218.0, 10213.0, 10210.0, 10217.0, 10213.0, 10213.0, 10220.0, 10215.0, 10220.0, 10218.0, 10210.0, 10209.0, 10199.0, 10203.0, 10190.0, 10187.0, 10189.0, 10195.0, 10191.0, 10197.0, 10199.0, 10204.0, 10215.0, 10219.0, 10226.0, 10234.0, 10231.0, 10243.0, 10242.0, 10242.0, 10241.0, 10236.0, 10226.0, 10221.0, 10212.0, 10215.0],
      "WindowWidth": [22082.0, 21990.0, 21964.0, 21916.0, 21895.0, 21888.0, 21869.0, 21863.0, 21859.0, 21856.0, 21866.0, 21877.0, 21878.0, 21883.0, 21868.0, 21871.0, 21891.0, 21890.0, 21902.0, 21927.0, 21945.0, 21966.0, 21965.0, 21965.0, 21966.0, 21932.0, 21935.0, 21891.0, 21874.0, 21857.0, 21835.0, 21828.0, 21835.0, 21836.0, 21862.0, 21849.0, 21888.0, 21887.0, 21891.0, 21902.0, 21892.0, 21907.0, 21915.0, 21907.0, 21925.0, 21923.0, 21927.0, 21942.0, 21955.0, 21963.0, 21967.0, 21981.0, 21981.0, 21948.0, 21945.0, 21925.0, 21917.0, 21910.0, 21889.0, 21884.0, 21875.0, 21862.0, 21853.0, 21846.0, 21846.0, 21842.0, 21836.0, 21852.0, 21855.0, 21878.0, 21882.0, 21885.0, 21899.0, 21882.0, 21883.0, 21866.0, 21844.0, 21837.0, 21820.0, 21800.0, 21828.0, 21826.0, 21834.0, 21858.0, 21873.0, 21877.0, 21889.0, 21879.0, 21885.0, 21865.0, 21870.0, 21867.0, 21872.0, 21887.0, 21883.0, 21895.0, 21895.0, 21904.0, 21900.0, 21918.0, 21948.0, 21952.0, 21958.0, 21948.0, 21939.0, 21921.0, 21897.0, 21884.0, 21870.0, 21862.0, 21875.0, 21877.0, 21888.0, 21911.0, 21931.0, 21911.0, 21931.0, 21925.0, 21936.0, 21931.0, 21920.0, 21942.0, 21937.0, 21941.0, 21947.0, 21947.0, 21949.0, 21973.0, 21947.0, 21946.0, 21940.0, 21931.0, 21927.0, 21921.0, 21914.0, 21916.0, 21910.0, 21918.0, 21912.0, 21909.0, 21922.0, 21911.0, 21901.0, 21892.0, 21884.0, 21869.0, 21880.0, 21890.0, 21906.0, 21901.0, 21910.0, 21908.0, 21921.0, 21926.0, 21934.0, 21928.0, 21930.0, 21917.0, 21913.0, 21928.0, 21919.0, 21922.0, 21935.0, 21926.0, 21935.0, 21927.0, 21910.0, 21904.0, 21879.0, 21884.0, 21857.0, 21850.0, 21854.0, 21863.0, 21860.0, 21870.0, 21878.0, 21893.0, 21914.0, 21926.0, 21941.0, 21958.0, 21957.0, 21986.0, 21987.0, 21987.0, 21986.0, 21973.0, 21952.0, 21940.0, 21920.0, 21923.0]
    },
    "slices": {}
  },
  "NumberOfVolumes": 192
}