{
  "AcquisitionMatrixPE": 104,
  "AcquisitionNumber": 1,
  "AcquisitionTime": "10:12:26.685000",
  "BandwidthPerPixelPhaseEncode": 16.297,
  "BaseResolution": 104,
  "BodyPartExamined": "BRAIN",
  "ConsistencyInfo": "N4_VE11C_LATEST_20160120",
  "ConversionSoftware": "dcm2niix",
  "ConversionSoftwareVersion": "v1.0.20210317",
  "DerivedVendorReportedEchoSpacing": 0.000590009,
  "DeviceSerialNumber": "166018",
  "DwellTime": 2.1e-06,
  "EchoTime": 0.0376,
  "EchoTrainLength": 104,
  "EffectiveEchoSpacing": 0.000590009,
  "FlipAngle": 68,
  "ImageComments": "Unaliased MB6/PE3/LB",
  "ImageOrientationPatientDICOM": [0.995295, -0.0904075, 0.0348619, 0.094083, 0.987749, -0.124502],
  "ImageType": [
    "ORIGINAL",
    "PRIMARY",
    "M",
    "MB",
    "ND",
    "MOSAIC"
],
  "ImagingFrequency": 123.197,
  "InPlanePhaseEncodingDirectionDICOM": "COL",
  "InstitutionAddress": "Washington Place 6,NYC,NYC,US,10003",
  "InstitutionName": "NYU - CBI",
  "InstitutionalDepartmentName": "Department",
  "MRAcquisitionType": "2D",
  "MagneticFieldStrength": 3,
  "Manufacturer": "Siemens",
  "ManufacturersModelName": "Prisma",
  "Modality": "MR",
  "MultibandAccelerationFactor": 6,
  "PartialFourier": 1,
  "PatientPosition": "HFS",
  "PercentPhaseFOV": 100,
  "PercentSampling": 100,
  "PhaseEncodingDirection": "j",
  "PhaseEncodingSteps": 104,
  "PhaseResolution": 1,
  "PixelBandwidth": 2290,
  "ProcedureStepDescription": "Investigators^Winawer",
  "ProtocolName": "cmrr_mbepi_s6_2mm_66sl_PA_task-wedgering1",
  "PulseSequenceDetails": "%CustomerSeq%\\cmrr_mbep2d_bold",
  "ReceiveCoilActiveElements": "HC1-7",
  "ReceiveCoilName": "HeadNeck_64",
  "ReconMatrixPE": 104,
  "RepetitionTime": 1,
  "SAR": 0.0789361,
  "ScanOptions": "FS",
  "ScanningSequence": "EP",
  "SequenceName": "epfid2d1_104",
  "SequenceVariant": "SK\\SS",
  "SeriesDescription": "cmrr_mbepi_s6_2mm_66sl_PA_task-wedgering1",
  "SeriesNumber": 10,
  "ShimSetting": [310, -12650, -8405, 448, 53, 186, 32, 37],
  "SliceThickness": 2,
  "SliceTiming": [0, 0.5325, 0.0875, 0.6225, 0.1775, 0.7125, 0.265, 0.8, 0.355, 0.89, 0.445, 0, 0.5325, 0.0875, 0.6225, 0.1775, 0.7125, 0.265, 0.8, 0.355, 0.89, 0.445, 0, 0.5325, 0.0875, 0.6225, 0.1775, 0.7125, 0.265, 0.8, 0.355, 0.89, 0.445, 0, 0.5325, 0.0875, 0.6225, 0.1775, 0.7125, 0.265, 0.8, 0.355, 0.89, 0.445, 0, 0.5325, 0.0875, 0.6225, 0.1775, 0.7125, 0.265, 0.8, 0.355, 0.89, 0.445, 0, 0.5325, 0.0875, 0.6225, 0.1775, 0.7125, 0.265, 0.8, 0.355, 0.89, 0.445],
  "SoftwareVersions": "syngo MR E11",
  "SpacingBetweenSlices": 2,
  "StationName": "AWP166018",
  "TaskName": "wedgering1",
  "TotalReadoutTime": 0.060771,
  "TxRefAmp": 233.912,
  "VendorReportedEchoSpacing": 0.00059,
  "WipMemBlock": "d77e5408-1e9c-498d-a942-307be80ff635||Sequence: R016 ve11c/master r/8780670; Nov 27 2017 15:05:12 by eja",
  "dcmmeta_affine": [
    [-1.9905890226364136, 0.18816602230072021, 0.04635784402489662, 97.07295227050781],
    [0.18081504106521606, 1.9754976034164429, -0.254392147064209, -80.26819610595703],
    [0.06972388178110123, 0.24900402128696442, 1.9832134246826172, -64.1136474609375],
    [0.0, 0.0, 0.0, 1.0]
],
  "dcmmeta_reorient_transform": [
    [0.0, -1.0, 0.0, 103.0],
    [1.0, 0.0, 0.0, 0.0],
    [0.0, 0.0, 1.0, 0.0],
    [0.0, 0.0, 0.0, 1.0]
],
  "dcmmeta_shape": [104, 104, 66, 300],
  "dcmmeta_slice_dim": 2,
  "dcmmeta_version": 0.6,
  "global": {
    "const": {
      "AccessionNumber": "Lfka57ou",
      "AcquisitionMatrix": [104, 0, 0, 104],
      "AngioFlag": "N",
      "BitsAllocated": 16,
      "BitsStored": 16,
      "BodyPartExamined": "BRAIN",
      "Columns": 936,
      "EchoNumbers": 1,
      "EchoTime": 37.6,
      "EchoTrainLength": 104,
      "FlipAngle": 68.0,
      "HighBit": 15,
      "ImageOrientationPatient": [0.99529449141174, -0.0904075240855, 0.03486194134274, 0.0940830110109, 0.98774877234445, -0.1245020070969],
      "ImagePositionPatient": [-1022.816131187, -869.79596990911, 36.114298445269],
      "ImageType": [
        "ORIGINAL",
        "PRIMARY",
        "M",
        "MB",
        "ND",
        "MOSAIC"
],
      "ImagedNucleus": "1H",
      "ImagingFrequency": 123.196781,
      "InPlanePhaseEncodingDirection": "COL",
      "MRAcquisitionType": "2D",
      "MagneticFieldStrength": 3.0,
      "Manufacturer": "SIEMENS",
      "ManufacturerModelName": "Prisma",
      "Modality": "MR",
      "NumberOfAverages": 1.0,
      "NumberOfPhaseEncodingSteps": 104,
      "PercentPhaseFieldOfView": 100.0,
      "PercentSampling": 100.0,
      "PerformedProcedureStepStartTime": "095945.733000",
      "PhotometricInterpretation": "MONOCHROME2",
      "PixelBandwidth": 2290.0,
      "PixelRepresentation": 0,
      "PixelSpacing": [2.0, 2.0],
      "ProtocolName": "cmrr_mbepi_s6_2mm_66sl_PA_task-wedgering1",
      "RepetitionTime": 1000.0,
      "Rows": 936,
      "SAR": 0.07893607109521,
      "SamplesPerPixel": 1,
      "ScanOptions": "FS",
      "ScanningSequence": "EP",
      "SequenceName": "epfid2d1_104",
      "SequenceVariant": [
        "SK",
        "SS"
],
      "SeriesDescription": "cmrr_mbepi_s6_2mm_66sl_PA_task-wedgering1",
      "SeriesNumber": 10,
      "SeriesTime": "101331.585000",
      "SliceLocation": -51.115680198291,
      "SliceThickness": 2.0,
      "SmallestImagePixelValue": 0,
      "SoftwareVersions": "syngo MR E11",
      "SpacingBetweenSlices": 2.0000000074991,
      "SpecificCharacterSet": "ISO_IR 100",
      "StudyID": "1",
      "StudyTime": "095945.672000",
      "TransmitCoilName": "Body",
      "VariableFlipAngleFlag": "N",
      "WindowCenterWidthExplanation": "Algo1",
      "dBdt": 0.0},
    "slices": {}
  },
  "time": {
    "samples": {
      "AcquisitionNumber": [1, 2, 3, 4, 5, 6, 7, 8, 9, 10, 11, 12, 13, 14, 15, 16, 17, 18, 19, 20, 21, 22, 23, 24, 25, 26, 27, 28, 29, 30, 31, 32, 33, 34, 35, 36, 37, 38, 39, 40, 41, 42, 43, 44, 45, 46, 47, 48, 49, 50, 51, 52, 53, 54, 55, 56, 57, 58, 59, 60, 61, 62, 63, 64, 65, 66, 67, 68, 69, 70, 71, 72, 73, 74, 75, 76, 77, 78, 79, 80, 81, 82, 83, 84, 85, 86, 87, 88, 89, 90, 91, 92, 93, 94, 95, 96, 97, 98, 99, 100, 101, 102, 103, 104, 105, 106, 107, 108, 109, 110, 111, 112, 113, 114, 115, 116, 117, 118, 119, 120, 121, 122, 123, 124, 125, 126, 127, 128, 129, 130, 131, 132, 133, 134, 135, 136, 137, 138, 139, 140, 141, 142, 143, 144, 145, 146, 147, 148, 149, 150, 151, 152, 153, 154, 155, 156, 157, 158, 159, 160, 161, 162, 163, 164, 165, 166, 167, 168, 169, 170, 171, 172, 173, 174, 175, 176, 177, 178, 179, 180, 181, 182, 183, 184, 185, 186, 187, 188, 189, 190, 191, 192, 193, 194, 195, 196, 197, 198, 199, 200, 201, 202, 203, 204, 205, 206, 207, 208, 209, 210, 211, 212, 213, 214, 215, 216, 217, 218, 219, 220, 221, 222, 223, 224, 225, 226, 227, 228, 229, 230, 231, 232, 233, 234, 235, 236, 237, 238, 239, 240, 241, 242, 243, 244, 245, 246, 247, 248, 249, 250, 251, 252, 253, 254, 255, 256, 257, 258, 259, 260, 261, 262, 263, 264, 265, 266, 267, 268, 269, 270, 271, 272, 273, 274, 275, 276, 277, 278, 279, 280, 281, 282, 283, 284, 285, 286, 287, 288, 289, 290, 291, 292, 293, 294, 295, 296, 297, 298, 299, 300],
      "AcquisitionTime": ["101226.685000", "101227.685000", "101228.685000", "101229.685000", "101230.685000", "101231.685000", "101232.685000", "101233.685000", "101234.685000", "101235.685000", "101236.685000", "101237.685000", "101238.685000", "101239.685000", "101240.685000", "101241.685000", "101242.685000", "101243.685000", "101244.685000", "101245.685000", "101246.685000", "101247.685000", "101248.685000", "101249.685000", "101250.685000", "101251.685000", "101252.685000", "101253.685000", "101254.685000", "101255.685000", "101256.685000", "101257.685000", "101258.685000", "101259.685000", "101300.685000", "101301.685000", "101302.685000", "101303.685000", "101304.685000", "101305.685000", "101306.685000", "101307.685000", "101308.685000", "101309.685000", "101310.685000", "101311.685000", "101312.685000", "101313.685000", "101314.685000", "101315.685000", "101316.685000", "101317.685000", "101318.685000", "101319.685000", "101320.685000", "101321.685000", "101322.685000", "101323.685000", "101324.685000", "101325.685000", "101326.685000", "101327.685000", "101328.685000", "101329.685000", "101330.685000", "101331.685000", "101332.685000", "101333.685000", "101334.685000", "101335.685000", "101336.685000", "101337.685000", "101338.685000", "101339.685000", "101340.685000", "101341.685000", "101342.685000", "101343.685000", "101344.685000", "101345.685000", "101346.685000", "101347.685000", "101348.685000", "101349.685000", "101350.685000", "101351.685000", "101352.685000", "101353.685000", "101354.685000", "101355.685000", "101356.685000", "101357.685000", "101358.685000", "101359.685000", "101400.685000", "101401.685000", "101402.685000", "101403.685000", "101404.685000", "101405.685000", "101406.685000", "101407.685000", "101408.685000", "101409.685000", "101410.685000", "101411.685000", "101412.685000", "101413.685000", "101414.685000", "101415.685000", "101416.685000", "101417.685000", "101418.685000", "101419.685000", "101420.685000", "101421.685000", "101422.685000", "101423.685000", "101424.685000", "101425.685000", "101426.685000", "101427.685000", "101428.685000", "101429.685000", "101430.685000", "101431.685000", "101432.685000", "101433.685000", "101434.685000", "101435.685000", "101436.685000", "101437.685000", "101438.685000", "101439.685000", "101440.685000", "101441.685000", "101442.685000", "101443.685000", "101444.685000", "101445.685000", "101446.685000", "101447.685000", "101448.685000", "101449.685000", "101450.685000", "101451.685000", "101452.685000", "101453.685000", "101454.685000", "101455.685000", "101456.685000", "101457.685000", "101458.685000", "101459.685000", "101500.685000", "101501.685000", "101502.685000", "101503.685000", "101504.685000", "101505.685000", "101506.685000", "101507.685000", "101508.685000", "101509.685000", "101510.685000", "101511.685000", "101512.685000", "101513.685000", "101514.685000", "101515.685000", "101516.685000", "101517.685000", "101518.685000", "101519.685000", "101520.685000", "101521.685000", "101522.685000", "101523.685000", "101524.685000", "101525.685000", "101526.685000", "101527.685000", "101528.685000", "101529.685000", "101530.685000", "101531.685000", "101532.685000", "101533.685000", "101534.685000", "101535.685000", "101536.685000", "101537.685000", "101538.685000", "101539.685000", "101540.685000", "101541.685000", "101542.685000", "101543.685000", "101544.685000", "101545.685000", "101546.685000", "101547.685000", "101548.685000", "101549.685000", "101550.685000", "101551.685000", "101552.685000", "101553.685000", "101554.685000", "101555.685000", "101556.685000", "101557.685000", "101558.685000", "101559.685000", "101600.685000", "101601.685000", "101602.685000", "101603.685000", "101604.685000", "101605.685000", "101606.685000", "101607.685000", "101608.685000", "101609.685000", "101610.685000", "101611.685000", "101612.685000", "101613.685000", "101614.685000", "101615.685000", "101616.685000", "101617.685000", "101618.685000", "101619.685000", "101620.685000", "101621.685000", "101622.685000", "101623.685000", "101624.685000", "101625.685000", "101626.685000", "101627.685000", "101628.685000", "101629.685000", "101630.685000", "101631.685000", "101632.685000", "101633.685000", "101634.685000", "101635.685000", "101636.685000", "101637.685000", "101638.685000", "101639.685000", "101640.685000", "101641.685000", "101642.685000", "101643.685000", "101644.685000", "101645.685000", "101646.685000", "101647.685000", "101648.685000", "101649.685000", "101650.685000", "101651.685000", "101652.685000", "101653.685000", "101654.685000", "101655.685000", "101656.685000", "101657.685000", "101658.685000", "101659.685000", "101700.685000", "101701.685000", "101702.685000", "101703.685000", "101704.685000", "101705.685000", "101706.685000", "101707.685000", "101708.685000", "101709.685000", "101710.685000", "101711.685000", "101712.685000", "101713.685000", "101714.685000", "101715.685000", "101716.685000", "101717.685000", "101718.685000", "101719.685000", "101720.685000", "101721.685000", "101722.685000", "101723.685000", "101724.685000", "101725.685000"],
      "ContentTime": ["101331.588000", "101331.591000", "101331.594000", "101331.597000", "101331.600000", "101331.603000", "101331.610000", "101331.620000", "101331.623000", "101331.626000", "101331.629000", "101331.632000", "101331.635000", "101331.638000", "101331.641000", "101331.644000", "101331.647000", "101331.650000", "101331.653000", "101331.656000", "101331.659000", "101331.668000", "101351.561000", "101351.564000", "101351.567000", "101351.570000", "101351.573000", "101351.576000", "101351.579000", "101351.582000", "101351.585000", "101351.588000", "101351.591000", "101351.594000", "101351.597000", "101351.600000", "101351.603000", "101351.606000", "101351.609000", "101351.612000", "101351.615000", "101351.618000", "101351.621000", "101351.628000", "101351.631000", "101351.634000", "101351.637000", "101351.640000", "101351.643000", "101351.646000", "101411.561000", "101411.564000", "101411.567000", "101411.570000", "101411.573000", "101411.576000", "101411.579000", "101411.582000", "101411.585000", "101411.588000", "101411.591000", "101411.594000", "101411.597000", "101411.600000", "101411.603000", "101411.606000", "101411.609000", "101411.612000", "101411.615000", "101411.618000", "101411.621000", "101411.624000", "101411.626000", "101411.629000", "101411.632000", "101411.635000", "101411.638000", "101411.641000", "101411.644000", "101431.561000", "101431.564000", "101431.567000", "101431.570000", "101431.581000", "101431.584000", "101431.587000", "101431.590000", "101431.593000", "101431.596000", "101431.599000", "101431.602000", "101431.605000", "101431.608000", "101431.611000", "101431.614000", "101431.617000", "101431.620000", "101431.623000", "101431.626000", "101431.629000", "101431.632000", "101431.635000", "101431.638000", "101431.641000", "101431.644000", "101431.647000", "101431.650000", "101451.562000", "101451.565000", "101451.568000", "101451.571000", "101451.574000", "101451.579000", "101451.583000", "101451.588000", "101451.591000", "101451.594000", "101451.597000", "101451.609000", "101451.612000", "101451.615000", "101451.618000", "101451.621000", "101451.624000", "101451.627000", "101451.630000", "101451.633000", "101451.635000", "101451.638000", "101451.641000", "101451.644000", "101451.647000", "101451.650000", "101451.653000", "101451.656000", "101511.561000", "101511.564000", "101511.567000", "101511.570000", "101511.573000", "101511.576000", "101511.579000", "101511.582000", "101511.585000", "101511.588000", "101511.591000", "101511.594000", "101511.597000", "101511.600000", "101511.603000", "101511.606000", "101511.609000", "101511.612000", "101511.615000", "101511.618000", "101511.621000", "101511.624000", "101511.627000", "101511.630000", "101511.633000", "101511.636000", "101511.639000", "101511.642000", "101511.645000", "101531.561000", "101531.564000", "101531.567000", "101531.570000", "101531.573000", "101531.576000", "101531.579000", "101531.582000", "101531.585000", "101531.588000", "101531.591000", "101531.594000", "101531.597000", "101531.600000", "101531.603000", "101531.606000", "101531.609000", "101531.612000", "101531.615000", "101531.618000", "101551.561000", "101551.564000", "101551.567000", "101551.570000", "101551.573000", "101551.576000", "101551.579000", "101551.582000", "101551.585000", "101551.588000", "101551.591000", "101551.594000", "101551.597000", "101551.600000", "101551.603000", "101551.606000", "101551.609000", "101551.612000", "101551.615000", "101551.618000", "101611.561000", "101611.564000", "101611.567000", "101611.570000", "101611.573000", "101611.576000", "101611.579000", "101611.582000", "101611.585000", "101611.588000", "101611.591000", "101611.594000", "101611.597000", "101611.600000", "101611.603000", "101611.606000", "101611.609000", "101611.612000", "101611.615000", "101611.618000", "101631.561000", "101631.564000", "101631.567000", "101631.570000", "101631.573000", "101631.576000", "101631.579000", "101631.582000", "101631.585000", "101631.588000", "101631.591000", "101631.594000", "101631.597000", "101631.600000", "101631.603000", "101631.606000", "101631.609000", "101631.612000", "101631.615000", "101631.618000", "101651.562000", "101651.565000", "101651.568000", "101651.571000", "101651.574000", "101651.577000", "101651.586000", "101651.589000", "101651.592000", "101651.596000", "101651.616000", "101651.619000", "101651.622000", "101651.625000", "101651.628000", "101651.631000", "101651.634000", "101651.637000", "101651.640000", "101651.643000", "101711.562000", "101711.565000", "101711.568000", "101711.571000", "101711.574000", "101711.577000", "101711.580000", "101711.583000", "101711.586000", "101711.589000", "101711.592000", "101711.595000", "101711.598000", "101711.601000", "101711.604000", "101711.607000", "101711.610000", "101711.613000", "101711.616000", "101711.619000", "101727.213000", "101727.216000", "101727.219000", "101727.222000", "101727.225000", "101727.228000", "101727.231000", "101727.234000", "101727.237000", "101727.240000", "101727.243000", "101727.246000", "101727.249000", "101727.252000", "101727.255000", "101727.258000"],
      "InstanceCreationTime": ["101331.588000", "101331.591000", "101331.594000", "101331.597000", "101331.600000", "101331.603000", "101331.610000", "101331.620000", "101331.623000", "101331.626000", "101331.629000", "101331.632000", "101331.635000", "101331.638000", "101331.641000", "101331.644000", "101331.647000", "101331.650000", "101331.653000", "101331.656000", "101331.659000", "101331.668000", "101351.561000", "101351.564000", "101351.567000", "101351.570000", "101351.573000", "101351.576000", "101351.579000", "101351.582000", "101351.585000", "101351.588000", "101351.591000", "101351.594000", "101351.597000", "101351.600000", "101351.603000", "101351.606000", "101351.609000", "101351.612000", "101351.615000", "101351.618000", "101351.621000", "101351.628000", "101351.631000", "101351.634000", "101351.637000", "101351.640000", "101351.643000", "101351.646000", "101411.561000", "101411.564000", "101411.567000", "101411.570000", "101411.573000", "101411.576000", "101411.579000", "101411.582000", "101411.585000", "101411.588000", "101411.591000", "101411.594000", "101411.597000", "101411.600000", "101411.603000", "101411.606000", "101411.609000", "101411.612000", "101411.615000", "101411.618000", "101411.621000", "101411.624000", "101411.626000", "101411.629000", "101411.632000", "101411.635000", "101411.638000", "101411.641000", "101411.644000", "101431.561000", "101431.564000", "101431.567000", "101431.570000", "101431.581000", "101431.584000", "101431.587000", "101431.590000", "101431.593000", "101431.596000", "101431.599000", "101431.602000", "101431.605000", "101431.608000", "101431.611000", "101431.614000", "101431.617000", "101431.620000", "101431.623000", "101431.626000", "101431.629000", "101431.632000", "101431.635000", "101431.638000", "101431.641000", "101431.644000", "101431.647000", "101431.650000", "101451.562000", "101451.565000", "101451.568000", "101451.571000", "101451.574000", "101451.579000", "101451.583000", "101451.588000", "101451.591000", "101451.594000", "101451.597000", "101451.609000", "101451.612000", "101451.615000", "101451.618000", "101451.621000", "101451.624000", "101451.627000", "101451.630000", "101451.633000", "101451.635000", "101451.638000", "101451.641000", "101451.644000", "101451.647000", "101451.650000", "101451.653000", "101451.656000", "101511.561000", "101511.564000", "101511.567000", "101511.570000", "101511.573000", "101511.576000", "101511.579000", "101511.582000", "101511.585000", "101511.588000", "101511.591000", "101511.594000", "101511.597000", "101511.600000", "101511.603000", "101511.606000", "101511.609000", "101511.612000", "101511.615000", "101511.618000", "101511.621000", "101511.624000", "101511.627000", "101511.630000", "101511.633000", "101511.636000", "101511.639000", "101511.642000", "101511.645000", "101531.561000", "101531.564000", "101531.567000", "101531.570000", "101531.573000", "101531.576000", "101531.579000", "101531.582000", "101531.585000", "101531.588000", "101531.591000", "101531.594000", "101531.597000", "101531.600000", "101531.603000", "101531.606000", "101531.609000", "101531.612000", "101531.615000", "101531.618000", "101551.561000", "101551.564000", "101551.567000", "101551.570000", "101551.573000", "101551.576000", "101551.579000", "101551.582000", "101551.585000", "101551.588000", "101551.591000", "101551.594000", "101551.597000", "101551.600000", "101551.603000", "101551.606000", "101551.609000", "101551.612000", "101551.615000", "101551.618000", "101611.561000", "101611.564000", "101611.567000", "101611.570000", "101611.573000", "101611.576000", "101611.579000", "101611.582000", "101611.585000", "101611.588000", "101611.591000", "101611.594000", "101611.597000", "101611.600000", "101611.603000", "101611.606000", "101611.609000", "101611.612000", "101611.615000", "101611.618000", "101631.561000", "101631.564000", "101631.567000", "101631.570000", "101631.573000", "101631.576000", "101631.579000", "101631.582000", "101631.585000", "101631.588000", "101631.591000", "101631.594000", "101631.597000", "101631.600000", "101631.603000", "101631.606000", "101631.609000", "101631.612000", "101631.615000", "101631.618000", "101651.562000", "101651.565000", "101651.568000", "101651.571000", "101651.574000", "101651.577000", "101651.586000", "101651.589000", "101651.592000", "101651.596000", "101651.616000", "101651.619000", "101651.622000", "101651.625000", "101651.628000", "101651.631000", "101651.634000", "101651.637000", "101651.640000", "101651.643000", "101711.562000", "101711.565000", "101711.568000", "101711.571000", "101711.574000", "101711.577000", "101711.580000", "101711.583000", "101711.586000", "101711.589000", "101711.592000", "101711.595000", "101711.598000", "101711.601000", "101711.604000", "101711.607000", "101711.610000", "101711.613000", "101711.616000", "101711.619000", "101727.213000", "101727.216000", "101727.219000", "101727.222000", "101727.225000", "101727.228000", "101727.231000", "101727.234000", "101727.237000", "101727.240000", "101727.243000", "101727.246000", "101727.249000", "101727.252000", "101727.255000", "101727.258000"],
      "InstanceNumber": [1, 2, 3, 4, 5, 6, 7, 8, 9, 10, 11, 12, 13, 14, 15, 16, 17, 18, 19, 20, 21, 22, 23, 24, 25, 26, 27, 28, 29, 30, 31, 32, 33, 34, 35, 36, 37, 38, 39, 40, 41, 42, 43, 44, 45, 46, 47, 48, 49, 50, 51, 52, 53, 54, 55, 56, 57, 58, 59, 60, 61, 62, 63, 64, 65, 66, 67, 68, 69, 70, 71, 72, 73, 74, 75, 76, 77, 78, 79, 80, 81, 82, 83, 84, 85, 86, 87, 88, 89, 90, 91, 92, 93, 94, 95, 96, 97, 98, 99, 100, 101, 102, 103, 104, 105, 106, 107, 108, 109, 110, 111, 112, 113, 114, 115, 116, 117, 118, 119, 120, 121, 122, 123, 124, 125, 126, 127, 128, 129, 130, 131, 132, 133, 134, 135, 136, 137, 138, 139, 140, 141, 142, 143, 144, 145, 146, 147, 148, 149, 150, 151, 152, 153, 154, 155, 156, 157, 158, 159, 160, 161, 162, 163, 164, 165, 166, 167, 168, 169, 170, 171, 172, 173, 174, 175, 176, 177, 178, 179, 180, 181, 182, 183, 184, 185, 186, 187, 188, 189, 190, 191, 192, 193, 194, 195, 196, 197, 198, 199, 200, 201, 202, 203, 204, 205, 206, 207, 208, 209, 210, 211, 212, 213, 214, 215, 216, 217, 218, 219, 220, 221, 222, 223, 224, 225, 226, 227, 228, 229, 230, 231, 232, 233, 234, 235, 236, 237, 238, 239, 240, 241, 242, 243, 244, 245, 246, 247, 248, 249, 250, 251, 252, 253, 254, 255, 256, 257, 258, 259, 260, 261, 262, 263, 264, 265, 266, 267, 268, 269, 270, 271, 272, 273, 274, 275, 276, 277, 278, 279, 280, 281, 282, 283, 284, 285, 286, 287, 288, 289, 290, 291, 292, 293, 294, 295, 296, 297, 298, 299, 300],
      "LargestImagePixelValue": [28227, 26664, 26826, 26626, 26307, 26678, 26729, 26359, 26429, 26667, 26592, 26365, 26464, 26791, 26478, 26486, 26326, 26235, 26582, 26695, 26572, 26395, 26564, 26693, 26467, 26380, 26045, 26376, 26468, 26631, 27057, 26493, 26334, 26811, 26827, 26952, 26739, 26642, 26343, 26965, 28346, 27068, 26822, 26895, 26833, 26593, 26636, 26299, 26758, 26271, 26886, 26175, 26397, 26077, 26168, 26238, 26120, 26044, 26377, 26060, 26120, 26210, 26313, 26227, 26537, 26344, 26271, 27157, 26244, 26517, 26667, 26266, 25863, 26483, 26089, 26645, 26371, 26122, 26420, 26633, 26434, 26602, 26277, 26310, 26717, 26510, 26854, 26763, 26451, 26667, 26511, 26764, 27052, 27011, 27075, 26558, 27027, 26382, 26305, 26296, 26235, 26419, 26407, 26250, 26489, 26380, 26429, 26268, 26554, 26613, 26764, 26418, 26823, 26408, 26386, 26456, 26398, 27440, 26205, 26402, 26135, 26121, 26175, 26214, 26011, 26378, 26241, 26155, 25873, 25949, 26098, 26193, 26128, 26175, 26176, 26324, 26727, 26394, 26350, 25834, 25784, 25890, 25924, 25737, 25757, 25800, 25962, 25953, 26535, 26320, 26223, 26381, 26329, 26377, 26518, 26302, 26463, 26410, 26050, 26011, 25598, 25660, 26184, 25873, 26254, 26225, 25980, 26286, 26265, 25940, 26118, 25832, 25616, 25891, 25665, 25556, 25656, 25575, 25963, 26105, 25450, 25946, 25853, 25871, 25825, 25730, 26029, 25758, 25902, 25852, 26021, 25842, 26367, 25743, 26198, 26265, 26238, 26118, 26256, 25867, 26025, 25947, 25638, 25733, 26089, 25719, 26327, 26123, 26152, 26257, 25904, 26072, 26240, 26222, 26325, 26206, 26041, 25892, 25814, 26384, 25923, 25657, 26084, 25943, 25906, 25524, 25681, 25715, 25365, 26041, 25510, 25633, 25744, 25833, 25999, 26033, 25638, 25634, 25791, 25641, 25562, 25612, 26067, 25968, 25758, 25554, 25453, 25810, 25978, 25569, 26073, 25679, 25556, 25813, 25944, 25913, 26071, 25977, 26045, 25961, 26133, 25745, 25807, 25572, 25702, 25633, 25678, 25612, 25800, 25951, 25872, 26169, 25883, 25845, 26342, 25972, 25736, 26008, 26370, 25596, 25487, 25949, 25917, 25775, 25581, 25572, 25870, 25979, 26312, 26127, 25489, 25837, 26212, 26088, 26361, 26142, 26101, 26316, 26650, 26104],
      "WindowCenter": [8911.0, 8866.0, 8868.0, 8861.0, 8850.0, 8854.0, 8867.0, 8846.0, 8851.0, 8859.0, 8852.0, 8837.0, 8851.0, 8858.0, 8845.0, 8834.0, 8827.0, 8836.0, 8834.0, 8842.0, 8851.0, 8847.0, 8846.0, 8854.0, 8847.0, 8839.0, 8841.0, 8855.0, 8856.0, 8869.0, 8876.0, 8866.0, 8858.0, 8878.0, 8880.0, 8870.0, 8879.0, 8872.0, 8859.0, 8871.0, 8904.0, 8877.0, 8869.0, 8863.0, 8860.0, 8852.0, 8852.0, 8839.0, 8851.0, 8847.0, 8860.0, 8856.0, 8857.0, 8852.0, 8856.0, 8848.0, 8839.0, 8832.0, 8844.0, 8830.0, 8827.0, 8826.0, 8827.0, 8826.0, 8841.0, 8847.0, 8856.0, 8877.0, 8858.0, 8863.0, 8854.0, 8839.0, 8824.0, 8835.0, 8837.0, 8844.0, 8838.0, 8840.0, 8852.0, 8845.0, 8852.0, 8851.0, 8846.0, 8839.0, 8844.0, 8851.0, 8859.0, 8851.0, 8853.0, 8852.0, 8849.0, 8865.0, 8873.0, 8876.0, 8892.0, 8889.0, 8879.0, 8863.0, 8856.0, 8857.0, 8848.0, 8854.0, 8847.0, 8846.0, 8852.0, 8847.0, 8853.0, 8848.0, 8862.0, 8862.0, 8867.0, 8863.0, 8875.0, 8854.0, 8848.0, 8853.0, 8839.0, 8873.0, 8857.0, 8861.0, 8849.0, 8847.0, 8848.0, 8849.0, 8840.0, 8848.0, 8847.0, 8845.0, 8831.0, 8832.0, 8845.0, 8846.0, 8854.0, 8846.0, 8853.0, 8854.0, 8877.0, 8864.0, 8856.0, 8848.0, 8840.0, 8840.0, 8841.0, 8826.0, 8833.0, 8848.0, 8840.0, 8849.0, 8863.0, 8847.0, 8855.0, 8849.0, 8847.0, 8857.0, 8864.0, 8864.0, 8871.0, 8871.0, 8850.0, 8851.0, 8843.0, 8835.0, 8848.0, 8840.0, 8839.0, 8839.0, 8834.0, 8840.0, 8839.0, 8834.0, 8831.0, 8830.0, 8826.0, 8821.0, 8815.0, 8824.0, 8807.0, 8816.0, 8840.0, 8838.0, 8824.0, 8829.0, 8815.0, 8814.0, 8819.0, 8808.0, 8813.0, 8824.0, 8839.0, 8841.0, 8839.0, 8834.0, 8848.0, 8827.0, 8849.0, 8850.0, 8849.0, 8850.0, 8857.0, 8836.0, 8840.0, 8842.0, 8836.0, 8836.0, 8849.0, 8837.0, 8839.0, 8839.0, 8842.0, 8845.0, 8840.0, 8844.0, 8858.0, 8859.0, 8859.0, 8857.0, 8848.0, 8840.0, 8841.0, 8846.0, 8840.0, 8835.0, 8838.0, 8838.0, 8840.0, 8823.0, 8831.0, 8827.0, 8818.0, 8837.0, 8828.0, 8833.0, 8834.0, 8841.0, 8839.0, 8831.0, 8832.0, 8823.0, 8830.0, 8825.0, 8826.0, 8834.0, 8848.0, 8847.0, 8834.0, 8840.0, 8834.0, 8839.0, 8840.0, 8834.0, 8832.0, 8834.0, 8826.0, 8830.0, 8823.0, 8831.0, 8831.0, 8839.0, 8841.0, 8841.0, 8847.0, 8835.0, 8840.0, 8833.0, 8827.0, 8826.0, 8826.0, 8833.0, 8842.0, 8849.0, 8858.0, 8858.0, 8850.0, 8850.0, 8848.0, 8841.0, 8829.0, 8840.0, 8839.0, 8827.0, 8833.0, 8847.0, 8850.0, 8843.0, 8834.0, 8835.0, 8831.0, 8833.0, 8838.0, 8829.0, 8819.0, 8825.0, 8838.0, 8849.0, 8851.0, 8851.0, 8853.0, 8850.0, 8850.0, 8843.0],
