{
  "AcquisitionMatrixPE": 104,
  "AcquisitionNumber": 1,
  "AcquisitionTime": "10:12:2.997500",
  "BandwidthPerPixelPhaseEncode": 16.297,
  "BaseResolution": 104,
  "BodyPartExamined": "BRAIN",
  "ConsistencyInfo": "N4_VE11C_LATEST_20160120",
  "ConversionSoftware": "dcm2niix",
  "ConversionSoftwareVersion": "v1.0.20210317",
  "DerivedVendorReportedEchoSpacing": 0.000590009,
  "DeviceSerialNumber": "166018",
  "DwellTime": 2.1e-06,
  "EchoTime": 0.0376,
  "EchoTrainLength": 104,
  "EffectiveEchoSpacing": 0.000590009,
  "FlipAngle": 68,
  "ImageComments": "Unaliased MB6/PE3/LB",
  "ImageOrientationPatientDICOM": [0.996675, 0.04704, 0.0665357, -0.034108, 0.982404, -0.183626],
  "ImageType": [
    "ORIGINAL",
    "PRIMARY",
    "M",
    "MB",
    "ND",
    "MOSAIC"
],
  "ImagingFrequency": 123.197,
  "InPlanePhaseEncodingDirectionDICOM": "COL",
  "InstitutionAddress": "Washington Place 6,NYC,NYC,US,10003",
  "InstitutionName": "NYU - CBI",
  "InstitutionalDepartmentName": "Department",
  "MRAcquisitionType": "2D",
  "MagneticFieldStrength": 3,
  "Manufacturer": "Siemens",
  "ManufacturersModelName": "Prisma",
  "Modality": "MR",
  "MultibandAccelerationFactor": 6,
  "PartialFourier": 1,
  "PatientPosition": "HFS",
  "PercentPhaseFOV": 100,
  "PercentSampling": 100,
  "PhaseEncodingDirection": "j",
  "PhaseEncodingSteps": 104,
  "PhaseResolution": 1,
  "PixelBandwidth": 2290,
  "ProcedureStepDescription": "Investigators^Winawer",
  "ProtocolName": "cmrr_mbepi_s6_2mm_66sl_PA_task-bar1",
  "PulseSequenceDetails": "%CustomerSeq%\\cmrr_mbep2d_bold",
  "ReceiveCoilActiveElements": "HC1-7",
  "ReceiveCoilName": "HeadNeck_64",
  "ReconMatrixPE": 104,
  "RepetitionTime": 1,
  "SAR": 0.0807159,
  "ScanOptions": "FS",
  "ScanningSequence": "EP",
  "SequenceName": "epfid2d1_104",
  "SequenceVariant": "SK\\SS",
  "SeriesDescription": "cmrr_mbepi_s6_2mm_66sl_PA_task-bar1",
  "SeriesNumber": 8,
  "ShimSetting": [301, -12662, -8531, 236, 6, -174, -108, 17],
  "SliceThickness": 2,
  "SliceTiming": [0, 0.535, 0.09, 0.625, 0.18, 0.7125, 0.2675, 0.8025, 0.3575, 0.8925, 0.445, 0, 0.535, 0.09, 0.625, 0.18, 0.7125, 0.2675, 0.8025, 0.3575, 0.8925, 0.445, 0, 0.535, 0.09, 0.625, 0.18, 0.7125, 0.2675, 0.8025, 0.3575, 0.8925, 0.445, 0, 0.535, 0.09, 0.625, 0.18, 0.7125, 0.2675, 0.8025, 0.3575, 0.8925, 0.445, 0, 0.535, 0.09, 0.625, 0.18, 0.7125, 0.2675, 0.8025, 0.3575, 0.8925, 0.445, 0, 0.535, 0.09, 0.625, 0.18, 0.7125, 0.2675, 0.8025, 0.3575, 0.8925, 0.445],
  "SoftwareVersions": "syngo MR E11",
  "SpacingBetweenSlices": 2,
  "StationName": "AWP166018",
  "TaskName": "bar1",
  "TotalReadoutTime": 0.060771,
  "TxRefAmp": 212.876,
  "VendorReportedEchoSpacing": 0.00059,
  "WipMemBlock": "39114698-5ba2-43dc-a609-fab401788357||Sequence: R016 ve11c/master r/8780670; Nov 27 2017 15:05:12 by eja",
  "dcmmeta_affine": [
    [-1.9933491945266724, -0.06821606308221817, 0.14800551533699036, 108.71761322021484],
    [-0.09408003091812134, 1.964808464050293, -0.3614922761917114, -71.12004089355469],
    [0.13307145237922668, 0.367252379655838, 1.9614834785461426, -56.41318130493164],
    [0.0, 0.0, 0.0, 1.0]
],
  "dcmmeta_reorient_transform": [
    [0.0, -1.0, 0.0, 103.0],
    [1.0, 0.0, 0.0, 0.0],
    [0.0, 0.0, 1.0, 0.0],
    [0.0, 0.0, 0.0, 1.0]
],
  "dcmmeta_shape": [104, 104, 66, 300],
  "dcmmeta_slice_dim": 2,
  "dcmmeta_version": 0.6,
  "global": {
    "const": {
      "AccessionNumber": "Lf73u5oL",
      "AcquisitionMatrix": [104, 0, 0, 104],
      "AngioFlag": "N",
      "BitsAllocated": 16,
      "BitsStored": 16,
      "BodyPartExamined": "BRAIN",
      "Columns": 936,
      "EchoNumbers": 1,
      "EchoTime": 37.6,
      "EchoTrainLength": 104,
      "FlipAngle": 68.0,
      "HighBit": 15,
      "ImageOrientationPatient": [0.99667458779889, 0.04704001506101, 0.06653572738743, -0.0341080311943, 0.98240422772995, -0.1836261842613],
      "ImagePositionPatient": [-902.54673232564, -987.75284065602, 78.833073960262],
      "ImageType": [
        "ORIGINAL",
        "PRIMARY",
        "M",
        "MB",
        "ND",
        "MOSAIC"
],
      "ImagedNucleus": "1H",
      "ImagingFrequency": 123.196815,
      "InPlanePhaseEncodingDirection": "COL",
      "MRAcquisitionType": "2D",
      "MagneticFieldStrength": 3.0,
      "Manufacturer": "SIEMENS",
      "ManufacturerModelName": "Prisma",
      "Modality": "MR",
      "NumberOfAverages": 1.0,
      "NumberOfPhaseEncodingSteps": 104,
      "PercentPhaseFieldOfView": 100.0,
      "PercentSampling": 100.0,
      "PerformedProcedureStepStartTime": "095717.433000",
      "PhotometricInterpretation": "MONOCHROME2",
      "PixelBandwidth": 2290.0,
      "PixelRepresentation": 0,
      "PixelSpacing": [2.0, 2.0],
      "ProtocolName": "cmrr_mbepi_s6_2mm_66sl_PA_task-bar1",
      "RepetitionTime": 1000.0,
      "Rows": 936,
      "SAR": 0.08071586686958,
      "SamplesPerPixel": 1,
      "ScanOptions": "FS",
      "ScanningSequence": "EP",
      "SequenceName": "epfid2d1_104",
      "SequenceVariant": [
        "SK",
        "SS"
],
      "SeriesDescription": "cmrr_mbepi_s6_2mm_66sl_PA_task-bar1",
      "SeriesNumber": 8,
      "SeriesTime": "101313.414000",
      "SliceLocation": -34.426685650345,
      "SliceThickness": 2.0,
      "SmallestImagePixelValue": 0,
      "SoftwareVersions": "syngo MR E11",
      "SpacingBetweenSlices": 1.9999999584751,
      "SpecificCharacterSet": "ISO_IR 100",
      "StudyID": "1",
      "StudyTime": "095717.380000",
      "TransmitCoilName": "Body",
      "VariableFlipAngleFlag": "N",
      "WindowCenterWidthExplanation": "Algo1",
      "dBdt": 0.0},
    "slices": {}
  },
  "time": {
    "samples": {
      "AcquisitionNumber": [1, 2, 3, 4, 5, 6, 7, 8, 9, 10, 11, 12, 13, 14, 15, 16, 17, 18, 19, 20, 21, 22, 23, 24, 25, 26, 27, 28, 29, 30, 31, 32, 33, 34, 35, 36, 37, 38, 39, 40, 41, 42, 43, 44, 45, 46, 47, 48, 49, 50, 51, 52, 53, 54, 55, 56, 57, 58, 59, 60, 61, 62, 63, 64, 65, 66, 67, 68, 69, 70, 71, 72, 73, 74, 75, 76, 77, 78, 79, 80, 81, 82, 83, 84, 85, 86, 87, 88, 89, 90, 91, 92, 93, 94, 95, 96, 97, 98, 99, 100, 101, 102, 103, 104, 105, 106, 107, 108, 109, 110, 111, 112, 113, 114, 115, 116, 117, 118, 119, 120, 121, 122, 123, 124, 125, 126, 127, 128, 129, 130, 131, 132, 133, 134, 135, 136, 137, 138, 139, 140, 141, 142, 143, 144, 145, 146, 147, 148, 149, 150, 151, 152, 153, 154, 155, 156, 157, 158, 159, 160, 161, 162, 163, 164, 165, 166, 167, 168, 169, 170, 171, 172, 173, 174, 175, 176, 177, 178, 179, 180, 181, 182, 183, 184, 185, 186, 187, 188, 189, 190, 191, 192, 193, 194, 195, 196, 197, 198, 199, 200, 201, 202, 203, 204, 205, 206, 207, 208, 209, 210, 211, 212, 213, 214, 215, 216, 217, 218, 219, 220, 221, 222, 223, 224, 225, 226, 227, 228, 229, 230, 231, 232, 233, 234, 235, 236, 237, 238, 239, 240, 241, 242, 243, 244, 245, 246, 247, 248, 249, 250, 251, 252, 253, 254, 255, 256, 257, 258, 259, 260, 261, 262, 263, 264, 265, 266, 267, 268, 269, 270, 271, 272, 273, 274, 275, 276, 277, 278, 279, 280, 281, 282, 283, 284, 285, 286, 287, 288, 289, 290, 291, 292, 293, 294, 295, 296, 297, 298, 299, 300],
      "AcquisitionTime": ["101202.997500", "101203.997500", "101204.997500", "101205.997500", "101206.997500", "101207.997500", "101208.997500", "101209.997500", "101210.997500", "101211.997500", "101212.997500", "101213.997500", "101214.997500", "101215.997500", "101216.997500", "101217.997500", "101218.997500", "101219.997500", "101220.997500", "101221.997500", "101222.997500", "101223.997500", "101224.997500", "101225.997500", "101226.997500", "101227.997500", "101228.997500", "101229.997500", "101230.997500", "101231.997500", "101232.997500", "101233.997500", "101234.997500", "101235.997500", "101236.997500", "101237.997500", "101238.997500", "101239.997500", "101240.997500", "101241.997500", "101242.997500", "101243.997500", "101244.997500", "101245.997500", "101246.997500", "101247.997500", "101248.997500", "101249.997500", "101250.997500", "101251.997500", "101252.997500", "101253.997500", "101254.997500", "101255.997500", "101256.997500", "101257.997500", "101258.997500", "101259.997500", "101300.997500", "101301.997500", "101302.997500", "101303.997500", "101304.997500", "101305.997500", "101306.997500", "101307.997500", "101308.997500", "101309.997500", "101310.997500", "101311.997500", "101312.997500", "101313.997500", "101314.997500", "101315.997500", "101316.997500", "101317.997500", "101318.997500", "101319.997500", "101320.997500", "101321.997500", "101322.997500", "101323.997500", "101324.997500", "101325.997500", "101326.997500", "101327.997500", "101328.997500", "101329.997500", "101330.997500", "101331.997500", "101332.997500", "101333.997500", "101334.997500", "101335.997500", "101336.997500", "101337.997500", "101338.997500", "101339.997500", "101340.997500", "101341.997500", "101342.997500", "101343.997500", "101344.997500", "101345.997500", "101346.997500", "101347.997500", "101348.997500", "101349.997500", "101350.997500", "101351.997500", "101352.997500", "101353.997500", "101354.997500", "101355.997500", "101356.997500", "101357.997500", "101358.997500", "101359.997500", "101400.997500", "101401.997500", "101402.997500", "101403.997500", "101404.997500", "101405.997500", "101406.997500", "101407.997500", "101408.997500", "101409.997500", "101410.997500", "101411.997500", "101412.997500", "101413.997500", "101414.997500", "101415.997500", "101416.997500", "101417.997500", "101418.997500", "101419.997500", "101420.997500", "101421.997500", "101422.997500", "101423.997500", "101424.997500", "101425.997500", "101426.997500", "101427.997500", "101428.997500", "101429.997500", "101430.997500", "101431.997500", "101432.997500", "101433.997500", "101434.997500", "101435.997500", "101436.997500", "101437.997500", "101438.997500", "101439.997500", "101440.997500", "101441.997500", "101442.997500", "101443.997500", "101444.997500", "101445.997500", "101446.997500", "101447.997500", "101448.997500", "101449.997500", "101450.997500", "101451.997500", "101452.997500", "101453.997500", "101454.997500", "101455.997500", "101456.997500", "101457.997500", "101458.997500", "101459.997500", "101500.997500", "101501.997500", "101502.997500", "101503.997500", "101504.997500", "101505.997500", "101506.997500", "101507.997500", "101508.997500", "101509.997500", "101510.997500", "101511.997500", "101512.997500", "101513.997500", "101514.997500", "101515.997500", "101516.997500", "101517.997500", "101518.997500", "101519.997500", "101520.997500", "101521.997500", "101522.997500", "101523.997500", "101524.997500", "101525.997500", "101526.997500", "101527.997500", "101528.997500", "101529.997500", "101530.997500", "101531.997500", "101532.997500", "101533.997500", "101534.997500", "101535.997500", "101536.997500", "101537.997500", "101538.997500", "101539.997500", "101540.997500", "101541.997500", "101542.997500", "101543.997500", "101544.997500", "101545.997500", "101546.997500", "101547.997500", "101548.997500", "101549.997500", "101550.997500", "101551.997500", "101552.997500", "101553.997500", "101554.997500", "101555.997500", "101556.997500", "101557.997500", "101558.997500", "101559.997500", "101600.997500", "101601.997500", "101602.997500", "101603.997500", "101604.997500", "101605.997500", "101606.997500", "101607.997500", "101608.997500", "101609.997500", "101610.997500", "101611.997500", "101612.997500", "101613.997500", "101614.997500", "101615.997500", "101616.997500", "101617.997500", "101618.997500", "101619.997500", "101620.997500", "101621.997500", "101622.997500", "101623.997500", "101624.997500", "101625.997500", "101626.997500", "101627.997500", "101628.997500", "101629.997500", "101630.997500", "101631.997500", "101632.997500", "101633.997500", "101634.997500", "101635.997500", "101636.997500", "101637.997500", "101638.997500", "101639.997500", "101640.997500", "101641.997500", "101642.997500", "101643.997500", "101644.997500", "101645.997500", "101646.997500", "101647.997500", "101648.997500", "101649.997500", "101650.997500", "101651.997500", "101652.997500", "101653.997500", "101654.997500", "101655.997500", "101656.997500", "101657.997500", "101658.997500", "101659.997500", "101700.997500", "101701.997500"],
      "ContentTime": ["101313.417000", "101313.420000", "101313.433000", "101313.436000", "101313.439000", "101313.442000", "101313.445000", "101313.448000", "101313.451000", "101313.454000", "101313.457000", "101313.467000", "101313.470000", "101313.473000", "101313.476000", "101313.479000", "101313.482000", "101313.485000", "101313.488000", "101313.492000", "101333.385000", "101333.388000", "101333.391000", "101333.394000", "101333.397000", "101333.400000", "101333.403000", "101333.406000", "101333.409000", "101333.416000", "101333.419000", "101333.422000", "101333.429000", "101333.432000", "101333.435000", "101333.438000", "101333.441000", "101333.444000", "101333.447000", "101333.450000", "101333.453000", "101333.457000", "101333.460000", "101333.463000", "101333.466000", "101333.469000", "101333.472000", "101333.482000", "101333.485000", "101353.385000", "101353.388000", "101353.391000", "101353.394000", "101353.397000", "101353.400000", "101353.404000", "101353.407000", "101353.410000", "101353.413000", "101353.416000", "101353.419000", "101353.422000", "101353.425000", "101353.428000", "101353.431000", "101353.434000", "101353.437000", "101353.440000", "101353.443000", "101353.446000", "101353.449000", "101353.453000", "101353.456000", "101353.459000", "101353.462000", "101353.465000", "101353.468000", "101413.385000", "101413.388000", "101413.391000", "101413.394000", "101413.397000", "101413.400000", "101413.404000", "101413.407000", "101413.410000", "101413.413000", "101413.416000", "101413.419000", "101413.422000", "101413.425000", "101413.428000", "101413.431000", "101413.434000", "101413.437000", "101413.440000", "101413.443000", "101413.447000", "101413.450000", "101413.453000", "101413.456000", "101413.459000", "101413.462000", "101413.465000", "101413.475000", "101433.386000", "101433.389000", "101433.392000", "101433.395000", "101433.398000", "101433.401000", "101433.404000", "101433.407000", "101433.410000", "101433.415000", "101433.418000", "101433.421000", "101433.424000", "101433.427000", "101433.430000", "101433.433000", "101433.436000", "101433.439000", "101433.442000", "101433.445000", "101433.448000", "101433.451000", "101433.454000", "101433.457000", "101433.460000", "101433.463000", "101433.466000", "101433.469000", "101453.386000", "101453.389000", "101453.392000", "101453.395000", "101453.398000", "101453.401000", "101453.404000", "101453.407000", "101453.411000", "101453.414000", "101453.417000", "101453.420000", "101453.423000", "101453.426000", "101453.429000", "101453.432000", "101453.435000", "101453.438000", "101453.441000", "101453.444000", "101453.447000", "101453.450000", "101453.453000", "101453.456000", "101453.459000", "101453.462000", "101453.465000", "101453.468000", "101513.386000", "101513.389000", "101513.392000", "101513.395000", "101513.398000", "101513.401000", "101513.404000", "101513.407000", "101513.411000", "101513.414000", "101513.417000", "101513.420000", "101513.423000", "101513.426000", "101513.429000", "101513.432000", "101513.435000", "101513.438000", "101513.441000", "101513.444000", "101513.447000", "101513.450000", "101513.453000", "101513.456000", "101513.459000", "101513.462000", "101513.465000", "101513.468000", "101533.386000", "101533.389000", "101533.392000", "101533.395000", "101533.399000", "101533.402000", "101533.405000", "101533.408000", "101533.411000", "101533.414000", "101533.417000", "101533.420000", "101533.423000", "101533.426000", "101533.429000", "101533.432000", "101533.435000", "101533.447000", "101533.450000", "101533.453000", "101553.385000", "101553.388000", "101553.391000", "101553.394000", "101553.397000", "101553.400000", "101553.403000", "101553.406000", "101553.410000", "101553.413000", "101553.416000", "101553.419000", "101553.422000", "101553.425000", "101553.428000", "101553.431000", "101553.434000", "101553.437000", "101553.440000", "101553.443000", "101613.385000", "101613.398000", "101613.401000", "101613.404000", "101613.408000", "101613.411000", "101613.414000", "101613.417000", "101613.420000", "101613.423000", "101613.426000", "101613.429000", "101613.432000", "101613.435000", "101613.438000", "101613.441000", "101613.445000", "101613.448000", "101613.451000", "101613.454000", "101633.385000", "101633.388000", "101633.391000", "101633.394000", "101633.398000", "101633.401000", "101633.404000", "101633.407000", "101633.410000", "101633.413000", "101633.416000", "101633.419000", "101633.422000", "101633.425000", "101633.428000", "101633.431000", "101633.442000", "101633.445000", "101633.448000", "101633.451000", "101653.386000", "101653.389000", "101653.392000", "101653.395000", "101653.398000", "101653.402000", "101653.405000", "101653.408000", "101653.411000", "101653.414000", "101653.417000", "101653.420000", "101653.423000", "101653.426000", "101653.429000", "101653.432000", "101653.435000", "101653.438000", "101653.441000", "101653.444000", "101703.857000", "101703.860000", "101703.863000", "101703.866000", "101703.869000", "101703.872000", "101703.876000", "101703.879000", "101703.882000", "101703.885000", "101703.888000"],
      "InstanceCreationTime": ["101313.417000", "101313.420000", "101313.433000", "101313.436000", "101313.439000", "101313.442000", "101313.445000", "101313.448000", "101313.451000", "101313.454000", "101313.457000", "101313.467000", "101313.470000", "101313.473000", "101313.476000", "101313.479000", "101313.482000", "101313.485000", "101313.488000", "101313.492000", "101333.385000", "101333.388000", "101333.391000", "101333.394000", "101333.397000", "101333.400000", "101333.403000", "101333.406000", "101333.409000", "101333.416000", "101333.419000", "101333.422000", "101333.429000", "101333.432000", "101333.435000", "101333.438000", "101333.441000", "101333.444000", "101333.447000", "101333.450000", "101333.453000", "101333.457000", "101333.460000", "101333.463000", "101333.466000", "101333.469000", "101333.472000", "101333.482000", "101333.485000", "101353.385000", "101353.388000", "101353.391000", "101353.394000", "101353.397000", "101353.400000", "101353.404000", "101353.407000", "101353.410000", "101353.413000", "101353.416000", "101353.419000", "101353.422000", "101353.425000", "101353.428000", "101353.431000", "101353.434000", "101353.437000", "101353.440000", "101353.443000", "101353.446000", "101353.449000", "101353.453000", "101353.456000", "101353.459000", "101353.462000", "101353.465000", "101353.468000", "101413.385000", "101413.388000", "101413.391000", "101413.394000", "101413.397000", "101413.400000", "101413.404000", "101413.407000", "101413.410000", "101413.413000", "101413.416000", "101413.419000", "101413.422000", "101413.425000", "101413.428000", "101413.431000", "101413.434000", "101413.437000", "101413.440000", "101413.443000", "101413.447000", "101413.450000", "101413.453000", "101413.456000", "101413.459000", "101413.462000", "101413.465000", "101413.475000", "101433.386000", "101433.389000", "101433.392000", "101433.395000", "101433.398000", "101433.401000", "101433.404000", "101433.407000", "101433.410000", "101433.415000", "101433.418000", "101433.421000", "101433.424000", "101433.427000", "101433.430000", "101433.433000", "101433.436000", "101433.439000", "101433.442000", "101433.445000", "101433.448000", "101433.451000", "101433.454000", "101433.457000", "101433.460000", "101433.463000", "101433.466000", "101433.469000", "101453.386000", "101453.389000", "101453.392000", "101453.395000", "101453.398000", "101453.401000", "101453.404000", "101453.407000", "101453.411000", "101453.414000", "101453.417000", "101453.420000", "101453.423000", "101453.426000", "101453.429000", "101453.432000", "101453.435000", "101453.438000", "101453.441000", "101453.444000", "101453.447000", "101453.450000", "101453.453000", "101453.456000", "101453.459000", "101453.462000", "101453.465000", "101453.468000", "101513.386000", "101513.389000", "101513.392000", "101513.395000", "101513.398000", "101513.401000", "101513.404000", "101513.407000", "101513.411000", "101513.414000", "101513.417000", "101513.420000", "101513.423000", "101513.426000", "101513.429000", "101513.432000", "101513.435000", "101513.438000", "101513.441000", "101513.444000", "101513.447000", "101513.450000", "101513.453000", "101513.456000", "101513.459000", "101513.462000", "101513.465000", "101513.468000", "101533.386000", "101533.389000", "101533.392000", "101533.395000", "101533.399000", "101533.402000", "101533.405000", "101533.408000", "101533.411000", "101533.414000", "101533.417000", "101533.420000", "101533.423000", "101533.426000", "101533.429000", "101533.432000", "101533.435000", "101533.447000", "101533.450000", "101533.453000", "101553.385000", "101553.388000", "101553.391000", "101553.394000", "101553.397000", "101553.400000", "101553.403000", "101553.406000", "101553.410000", "101553.413000", "101553.416000", "101553.419000", "101553.422000", "101553.425000", "101553.428000", "101553.431000", "101553.434000", "101553.437000", "101553.440000", "101553.443000", "101613.385000", "101613.398000", "101613.401000", "101613.404000", "101613.408000", "101613.411000", "101613.414000", "101613.417000", "101613.420000", "101613.423000", "101613.426000", "101613.429000", "101613.432000", "101613.435000", "101613.438000", "101613.441000", "101613.445000", "101613.448000", "101613.451000", "101613.454000", "101633.385000", "101633.388000", "101633.391000", "101633.394000", "101633.398000", "101633.401000", "101633.404000", "101633.407000", "101633.410000", "101633.413000", "101633.416000", "101633.419000", "101633.422000", "101633.425000", "101633.428000", "101633.431000", "101633.442000", "101633.445000", "101633.448000", "101633.451000", "101653.386000", "101653.389000", "101653.392000", "101653.395000", "101653.398000", "101653.402000", "101653.405000", "101653.408000", "101653.411000", "101653.414000", "101653.417000", "101653.420000", "101653.423000", "101653.426000", "101653.429000", "101653.432000", "101653.435000", "101653.438000", "101653.441000", "101653.444000", "101703.857000", "101703.860000", "101703.863000", "101703.866000", "101703.869000", "101703.872000", "101703.876000", "101703.879000", "101703.882000", "101703.885000", "101703.888000"],
      "InstanceNumber": [1, 2, 3, 4, 5, 6, 7, 8, 9, 10, 11, 12, 13, 14, 15, 16, 17, 18, 19, 20, 21, 22, 23, 24, 25, 26, 27, 28, 29, 30, 31, 32, 33, 34, 35, 36, 37, 38, 39, 40, 41, 42, 43, 44, 45, 46, 47, 48, 49, 50, 51, 52, 53, 54, 55, 56, 57, 58, 59, 60, 61, 62, 63, 64, 65, 66, 67, 68, 69, 70, 71, 72, 73, 74, 75, 76, 77, 78, 79, 80, 81, 82, 83, 84, 85, 86, 87, 88, 89, 90, 91, 92, 93, 94, 95, 96, 97, 98, 99, 100, 101, 102, 103, 104, 105, 106, 107, 108, 109, 110, 111, 112, 113, 114, 115, 116, 117, 118, 119, 120, 121, 122, 123, 124, 125, 126, 127, 128, 129, 130, 131, 132, 133, 134, 135, 136, 137, 138, 139, 140, 141, 142, 143, 144, 145, 146, 147, 148, 149, 150, 151, 152, 153, 154, 155, 156, 157, 158, 159, 160, 161, 162, 163, 164, 165, 166, 167, 168, 169, 170, 171, 172, 173, 174, 175, 176, 177, 178, 179, 180, 181, 182, 183, 184, 185, 186, 187, 188, 189, 190, 191, 192, 193, 194, 195, 196, 197, 198, 199, 200, 201, 202, 203, 204, 205, 206, 207, 208, 209, 210, 211, 212, 213, 214, 215, 216, 217, 218, 219, 220, 221, 222, 223, 224, 225, 226, 227, 228, 229, 230, 231, 232, 233, 234, 235, 236, 237, 238, 239, 240, 241, 242, 243, 244, 245, 246, 247, 248, 249, 250, 251, 252, 253, 254, 255, 256, 257, 258, 259, 260, 261, 262, 263, 264, 265, 266, 267, 268, 269, 270, 271, 272, 273, 274, 275, 276, 277, 278, 279, 280, 281, 282, 283, 284, 285, 286, 287, 288, 289, 290, 291, 292, 293, 294, 295, 296, 297, 298, 299, 300],
      "LargestImagePixelValue": [37272, 35895, 35542, 34627, 34501, 34268, 34035, 34227, 33724, 34311, 33567, 33808, 34080, 34083, 34320, 33632, 34182, 34000, 33985, 34264, 33619, 34434, 34114, 34174, 34104, 33822, 34379, 34035, 33908, 34341, 34432, 34244, 34274, 34112, 34511, 34260, 34277, 34540, 34420, 33768, 34406, 34330, 34169, 34089, 33936, 34069, 33930, 34255, 34594, 34023, 33971, 34958, 34139, 34240, 34613, 34207, 34189, 35078, 34651, 34364, 34295, 34718, 34261, 34248, 34247, 34337, 34216, 34193, 34144, 34464, 34791, 34571, 34430, 34792, 34254, 34483, 34682, 34085, 34404, 34214, 34144, 34383, 33717, 34063, 34465, 34178, 34057, 34249, 34056, 34491, 34420, 34167, 34628, 33970, 34084, 34064, 34109, 33994, 33904, 33943, 34126, 34056, 34004, 33919, 34615, 34168, 34234, 34594, 34595, 34097, 34740, 34379, 34248, 34330, 33924, 34663, 33868, 33914, 34830, 34271, 34222, 34133, 34490, 34280, 34393, 34158, 34207, 34467, 34290, 34370, 34370, 34382, 34241, 34111, 34289, 34601, 34305, 34721, 34532, 34583, 34776, 34542, 34890, 34916, 34248, 34441, 34087, 33925, 34597, 34332, 34516, 33939, 34062, 34397, 34709, 34029, 34233, 34456, 34470, 34501, 34324, 34763, 34620, 34233, 34825, 34295, 34217, 34447, 34388, 34710, 34583, 34410, 34464, 34194, 34616, 34562, 36266, 34386, 34281, 35187, 34289, 34464, 34734, 34305, 34666, 34680, 34541, 35089, 34413, 34567, 34712, 34222, 34832, 34674, 34069, 34668, 34053, 34425, 34388, 34174, 34515, 34209, 34109, 34382, 34789, 34318, 34577, 34392, 34641, 34329, 34493, 34266, 34239, 34482, 34263, 34248, 34384, 34117, 34367, 34287, 34396, 34415, 34059, 33757, 34662, 34238, 34103, 34301, 33973, 35069, 34601, 34841, 34200, 34283, 34443, 34517, 34278, 34197, 34496, 34764, 34463, 34165, 34783, 34322, 34216, 34696, 34507, 34486, 33613, 34013, 34249, 34065, 34971, 36987, 36765, 36420, 35740, 35505, 35964, 35633, 36105, 34794, 35989, 35710, 34602, 35375, 34243, 34876, 35243, 34308, 34978, 36335, 35324, 34496, 35241, 35747, 35158, 36272, 35250, 35015, 36820, 35596, 35227, 34994, 34692, 35198, 35321, 35138, 35446, 35761, 34128, 36810, 35284, 34994, 35464, 35029, 35424, 34925, 34381, 36007],
      "WindowCenter": [9719.0, 9673.0, 9656.0, 9636.0, 9642.0, 9646.0, 9636.0, 9633.0, 9621.0, 9620.0, 9605.0, 9612.0, 9619.0, 9618.0, 9634.0, 9630.0, 9633.0, 9621.0, 9604.0, 9609.0, 9598.0, 9623.0, 9623.0, 9618.0, 9627.0, 9626.0, 9643.0, 9653.0, 9661.0, 9658.0, 9656.0, 9657.0, 9660.0, 9673.0, 9689.0, 9686.0, 9678.0, 9668.0, 9666.0, 9652.0, 9662.0, 9646.0, 9652.0, 9658.0, 9654.0, 9669.0, 9663.0, 9668.0, 9674.0, 9662.0, 9652.0, 9655.0, 9649.0, 9651.0, 9663.0, 9664.0, 9675.0, 9686.0, 9681.0, 9682.0, 9667.0, 9665.0, 9660.0, 9667.0, 9665.0, 9667.0, 9666.0, 9666.0, 9660.0, 9664.0, 9664.0, 9659.0, 9673.0, 9676.0, 9671.0, 9668.0, 9660.0, 9646.0, 9641.0, 9641.0, 9625.0, 9633.0, 9630.0, 9628.0, 9641.0, 9649.0, 9645.0, 9660.0, 9655.0, 9667.0, 9667.0, 9666.0, 9665.0, 9648.0, 9651.0, 9637.0, 9641.0, 9628.0, 9628.0, 9634.0, 9634.0, 9634.0, 9628.0, 9623.0, 9642.0, 9645.0, 9651.0, 9652.0, 9657.0, 9653.0, 9664.0, 9653.0, 9653.0, 9659.0, 9645.0, 9651.0, 9647.0, 9653.0, 9679.0, 9669.0, 9664.0, 9661.0, 9659.0, 9653.0, 9653.0, 9653.0, 9655.0, 9668.0, 9669.0, 9668.0, 9675.0, 9668.0, 9669.0, 9661.0, 9652.0, 9655.0, 9658.0, 9663.0, 9671.0, 9674.0, 9675.0, 9677.0, 9669.0, 9660.0, 9646.0, 9651.0, 9653.0, 9640.0, 9650.0, 9637.0, 9635.0, 9623.0, 9629.0, 9627.0, 9640.0, 9637.0, 9658.0, 9667.0, 9673.0, 9676.0, 9678.0, 9698.0, 9699.0, 9695.0, 9704.0, 9688.0, 9689.0, 9692.0, 9680.0, 9676.0, 9673.0, 9676.0, 9676.0, 9676.0, 9677.0, 9676.0, 9695.0, 9673.0, 9672.0, 9681.0, 9671.0, 9677.0, 9675.0, 9665.0, 9671.0, 9671.0, 9684.0, 9677.0, 9671.0, 9660.0, 9663.0, 9671.0, 9674.0, 9670.0, 9656.0, 9655.0, 9644.0, 9662.0, 9656.0, 9655.0, 9661.0, 9656.0, 9653.0, 9652.0, 9653.0, 9650.0, 9653.0, 9652.0, 9646.0, 9643.0, 9644.0, 9645.0, 9645.0, 9659.0, 9660.0, 9657.0, 9654.0, 9649.0, 9648.0, 9650.0, 9645.0, 9641.0, 9628.0, 9623.0, 9628.0, 9629.0, 9638.0, 9634.0, 9638.0, 9653.0, 9644.0, 9660.0, 9670.0, 9664.0, 9665.0, 9670.0, 9663.0, 9663.0, 9661.0, 9666.0, 9661.0, 9653.0, 9651.0, 9640.0, 9643.0, 9629.0, 9620.0, 9617.0, 9599.0, 9606.0, 9611.0, 9613.0, 9626.0, 9685.0, 9699.0, 9700.0, 9713.0, 9715.0, 9716.0, 9691.0, 9680.0, 9654.0, 9649.0, 9638.0, 9620.0, 9631.0, 9630.0, 9652.0, 9660.0, 9656.0, 9652.0, 9679.0, 9658.0, 9640.0, 9642.0, 9638.0, 9629.0, 9643.0, 9641.0, 9634.0, 9665.0, 9655.0, 9647.0, 9637.0, 9635.0, 9641.0, 9656.0, 9667.0, 9680.0, 9688.0, 9672.0, 9699.0, 9681.0, 9668.0, 9681.0, 9655.0, 9649.0, 9641.0, 9614.0, 9625.0],
