{
  "AcquisitionMatrixPE": 104,
  "AcquisitionNumber": 1,
  "AcquisitionTime": "19:19:57.450000",
  "BandwidthPerPixelPhaseEncode": 16.297,
  "BaseResolution": 104,
  "BodyPartExamined": "BRAIN",
  "ConsistencyInfo": "N4_VE11C_LATEST_20160120",
  "ConversionSoftware": "dcm2niix",
  "ConversionSoftwareVersion": "v1.0.20190902",
  "DerivedVendorReportedEchoSpacing": 0.000590009,
  "DeviceSerialNumber": "166018",
  "DwellTime": 2.1e-06,
  "EchoTime": 0.0376,
  "EchoTrainLength": 104,
  "EffectiveEchoSpacing": 0.000590009,
  "FlipAngle": 68,
  "ImageComments": "Unaliased_MB6_PE3_LB",
  "ImageOrientationPatientDICOM": [0.99982, -0.0125353, -0.0142533, 0.0111685, 0.995675, -0.0922301],
  "ImageType": [
    "ORIGINAL",
    "PRIMARY",
    "M",
    "MB",
    "ND",
    "MOSAIC"
],
  "ImagingFrequency": 123.197,
  "InPlanePhaseEncodingDirectionDICOM": "COL",
  "InstitutionAddress": "Washington_Place_6_NYC_NYC_US_10003",
  "InstitutionName": "NYU_-_CBI",
  "InstitutionalDepartmentName": "Department",
  "MRAcquisitionType": "2D",
  "MagneticFieldStrength": 3,
  "Manufacturer": "Siemens",
  "ManufacturersModelName": "Prisma",
  "Modality": "MR",
  "MultibandAccelerationFactor": 6,
  "PartialFourier": 1,
  "PatientPosition": "HFS",
  "PercentPhaseFOV": 100,
  "PhaseEncodingDirection": "j",
  "PhaseEncodingSteps": 104,
  "PhaseResolution": 1,
  "PixelBandwidth": 2290,
  "ProcedureStepDescription": "Investigators_Winawer",
  "ProtocolName": "cmrr_mbepi_s6_2mm_66sl_PA_task-prf",
  "PulseSequenceDetails": "%CustomerSeq%_cmrr_mbep2d_bold",
  "ReceiveCoilActiveElements": "HC1-7",
  "ReceiveCoilName": "HeadNeck_64",
  "ReconMatrixPE": 104,
  "RepetitionTime": 1,
  "SAR": 0.0646521,
  "ScanOptions": "FS",
  "ScanningSequence": "EP",
  "SequenceName": "epfid2d1_104",
  "SequenceVariant": "SK_SS",
  "SeriesDescription": "cmrr_mbepi_s6_2mm_66sl_PA_task-prf",
  "SeriesNumber": 10,
  "ShimSetting": [285, -12614, -8462, 344, 17, -70, 37, 72],
  "SliceThickness": 2,
  "SliceTiming": [0, 0.5325, 0.0875, 0.6225, 0.1775, 0.7125, 0.2675, 0.8, 0.355, 0.89, 0.445, 0, 0.5325, 0.0875, 0.6225, 0.1775, 0.7125, 0.2675, 0.8, 0.355, 0.89, 0.445, 0, 0.5325, 0.0875, 0.6225, 0.1775, 0.7125, 0.2675, 0.8, 0.355, 0.89, 0.445, 0, 0.5325, 0.0875, 0.6225, 0.1775, 0.7125, 0.2675, 0.8, 0.355, 0.89, 0.445, 0, 0.5325, 0.0875, 0.6225, 0.1775, 0.7125, 0.2675, 0.8, 0.355, 0.89, 0.445, 0, 0.5325, 0.0875, 0.6225, 0.1775, 0.7125, 0.2675, 0.8, 0.355, 0.89, 0.445],
  "SoftwareVersions": "syngo_MR_E11",
  "SpacingBetweenSlices": 2,
  "StationName": "AWP166018",
  "TaskName": "prf",
  "TotalReadoutTime": 0.060771,
  "TxRefAmp": 206.58,
  "VendorReportedEchoSpacing": 0.00059,
  "WipMemBlock": "e08fe50f-6a08-4b97-99c7-510ed046b681||Sequence: R016 ve11c/master r/8780670; Nov 27 2017 15:05:12 by eja",
  "dcmmeta_affine": [
    [-1.999639630317688, 0.022337082773447037, -0.0306955985724926, 104.43843841552734],
    [0.025070656090974808, 1.9913501739501953, -0.18410862982273102, -73.31676483154297],
    [-0.02850661799311638, 0.18446023762226105, 1.9912714958190918, -51.61579895019531],
    [0.0, 0.0, 0.0, 1.0]
],
  "dcmmeta_reorient_transform": [
    [0.0, -1.0, 0.0, 103.0],
    [1.0, 0.0, 0.0, 0.0],
    [0.0, 0.0, 1.0, 0.0],
    [0.0, 0.0, 0.0, 1.0]
],
  "dcmmeta_shape": [104, 104, 66, 192],
  "dcmmeta_slice_dim": 2,
  "dcmmeta_version": 0.6,
  "global": {
    "const": {
      "AccessionNumber": "L80dmaio",
      "AcquisitionMatrix": [104, 0, 0, 104],
      "AngioFlag": "N",
      "BitsAllocated": 16,
      "BitsStored": 16,
      "BodyPartExamined": "BRAIN",
      "Columns": 936,
      "EchoNumbers": 1,
      "EchoTime": 37.6,
      "EchoTrainLength": 104,
      "FlipAngle": 68.0,
      "HighBit": 15,
      "ImageOrientationPatient": [0.99981983813936, -0.0125353278327, -0.0142533090581, 0.01116854137735, 0.99567508229194, -0.0922301153986],
      "ImagePositionPatient": [-947.88148665289, -949.76457700428, 55.97781527806],
      "ImageType": [
        "ORIGINAL",
        "PRIMARY",
        "M",
        "MB",
        "ND",
        "MOSAIC"
],
      "ImagedNucleus": "1H",
      "ImagingFrequency": 123.196836,
      "InPlanePhaseEncodingDirection": "COL",
      "MRAcquisitionType": "2D",
      "MagneticFieldStrength": 3.0,
      "Manufacturer": "SIEMENS",
      "ManufacturerModelName": "Prisma",
      "Modality": "MR",
      "NumberOfAverages": 1.0,
      "NumberOfPhaseEncodingSteps": 104,
      "PercentPhaseFieldOfView": 100.0,
      "PercentSampling": 100.0,
      "PerformedProcedureStepStartTime": "184723.689000",
      "PhotometricInterpretation": "MONOCHROME2",
      "PixelBandwidth": 2290.0,
      "PixelRepresentation": 0,
      "PixelSpacing": [2.0, 2.0],
      "ProtocolName": "cmrr_mbepi_s6_2mm_66sl_PA_task-prf",
      "RepetitionTime": 1000.0,
      "Rows": 936,
      "SAR": 0.06465207866915,
      "SamplesPerPixel": 1,
      "ScanOptions": "FS",
      "ScanningSequence": "EP",
      "SequenceName": "epfid2d1_104",
      "SequenceVariant": [
        "SK",
        "SS"
],
      "SeriesDescription": "cmrr_mbepi_s6_2mm_66sl_PA_task-prf",
      "SeriesNumber": 10,
      "SeriesTime": "192049.278000",
      "SliceLocation": -46.244306719308,
      "SliceThickness": 2.0,
      "SmallestImagePixelValue": 0,
      "SoftwareVersions": "syngo MR E11",
      "SpacingBetweenSlices": 2.0000000420824,
      "SpecificCharacterSet": "ISO_IR 100",
      "StudyID": "1",
      "StudyTime": "184723.598000",
      "TransmitCoilName": "Body",
      "VariableFlipAngleFlag": "N",
      "WindowCenterWidthExplanation": "Algo1",
      "dBdt": 0.0},
    "slices": {}
  },
  "time": {
    "samples": {
      "AcquisitionNumber": [1, 2, 3, 4, 5, 6, 7, 8, 9, 10, 11, 12, 13, 14, 15, 16, 17, 18, 19, 20, 21, 22, 23, 24, 25, 26, 27, 28, 29, 30, 31, 32, 33, 34, 35, 36, 37, 38, 39, 40, 41, 42, 43, 44, 45, 46, 47, 48, 49, 50, 51, 52, 53, 54, 55, 56, 57, 58, 59, 60, 61, 62, 63, 64, 65, 66, 67, 68, 69, 70, 71, 72, 73, 74, 75, 76, 77, 78, 79, 80, 81, 82, 83, 84, 85, 86, 87, 88, 89, 90, 91, 92, 93, 94, 95, 96, 97, 98, 99, 100, 101, 102, 103, 104, 105, 106, 107, 108, 109, 110, 111, 112, 113, 114, 115, 116, 117, 118, 119, 120, 121, 122, 123, 124, 125, 126, 127, 128, 129, 130, 131, 132, 133, 134, 135, 136, 137, 138, 139, 140, 141, 142, 143, 144, 145, 146, 147, 148, 149, 150, 151, 152, 153, 154, 155, 156, 157, 158, 159, 160, 161, 162, 163, 164, 165, 166, 167, 168, 169, 170, 171, 172, 173, 174, 175, 176, 177, 178, 179, 180, 181, 182, 183, 184, 185, 186, 187, 188, 189, 190, 191, 192],
      "AcquisitionTime": ["191957.450000", "191958.450000", "191959.450000", "192000.450000", "192001.450000", "192002.450000", "192003.450000", "192004.450000", "192005.450000", "192006.450000", "192007.450000", "192008.450000", "192009.450000", "192010.450000", "192011.450000", "192012.450000", "192013.450000", "192014.450000", "192015.450000", "192016.450000", "192017.450000", "192018.450000", "192019.450000", "192020.450000", "192021.450000", "192022.450000", "192023.450000", "192024.450000", "192025.450000", "192026.450000", "192027.450000", "192028.450000", "192029.450000", "192030.450000", "192031.450000", "192032.450000", "192033.450000", "192034.450000", "192035.450000", "192036.450000", "192037.450000", "192038.450000", "192039.450000", "192040.450000", "192041.450000", "192042.450000", "192043.450000", "192044.450000", "192045.450000", "192046.450000", "192047.450000", "192048.450000", "192049.450000", "192050.450000", "192051.450000", "192052.450000", "192053.450000", "192054.450000", "192055.450000", "192056.450000", "192057.450000", "192058.450000", "192059.450000", "192100.450000", "192101.450000", "192102.450000", "192103.450000", "192104.450000", "192105.450000", "192106.450000", "192107.450000", "192108.450000", "192109.450000", "192110.450000", "192111.450000", "192112.450000", "192113.450000", "192114.450000", "192115.450000", "192116.450000", "192117.450000", "192118.450000", "192119.450000", "192120.450000", "192121.450000", "192122.450000", "192123.450000", "192124.450000", "192125.450000", "192126.450000", "192127.450000", "192128.450000", "192129.450000", "192130.450000", "192131.450000", "192132.450000", "192133.450000", "192134.450000", "192135.450000", "192136.450000", "192137.450000", "192138.450000", "192139.450000", "192140.450000", "192141.450000", "192142.450000", "192143.450000", "192144.450000", "192145.450000", "192146.450000", "192147.450000", "192148.450000", "192149.450000", "192150.450000", "192151.450000", "192152.450000", "192153.450000", "192154.450000", "192155.450000", "192156.450000", "192157.450000", "192158.450000", "192159.450000", "192200.450000", "192201.450000", "192202.450000", "192203.450000", "192204.450000", "192205.450000", "192206.450000", "192207.450000", "192208.450000", "192209.450000", "192210.450000", "192211.450000", "192212.450000", "192213.450000", "192214.450000", "192215.450000", "192216.450000", "192217.450000", "192218.450000", "192219.450000", "192220.450000", "192221.450000", "192222.450000", "192223.450000", "192224.450000", "192225.450000", "192226.450000", "192227.450000", "192228.450000", "192229.450000", "192230.450000", "192231.450000", "192232.450000", "192233.450000", "192234.450000", "192235.450000", "192236.450000", "192237.450000", "192238.450000", "192239.450000", "192240.450000", "192241.450000", "192242.450000", "192243.450000", "192244.450000", "192245.450000", "192246.450000", "192247.450000", "192248.450000", "192249.450000", "192250.450000", "192251.450000", "192252.450000", "192253.450000", "192254.450000", "192255.450000", "192256.450000", "192257.450000", "192258.450000", "192259.450000", "192300.450000", "192301.450000", "192302.450000", "192303.450000", "192304.450000", "192305.450000", "192306.450000", "192307.450000", "192308.450000"],
      "ContentTime": ["192049.281000", "192049.284000", "192109.243000", "192109.246000", "192109.253000", "192109.256000", "192109.259000", "192109.262000", "192109.265000", "192109.274000", "192109.282000", "192109.285000", "192109.288000", "192109.291000", "192109.294000", "192109.297000", "192109.299000", "192109.302000", "192109.314000", "192109.317000", "192109.320000", "192109.322000", "192109.331000", "192109.334000", "192109.337000", "192109.340000", "192109.343000", "192109.346000", "192109.349000", "192109.352000", "192129.243000", "192129.246000", "192129.249000", "192129.252000", "192129.255000", "192129.258000", "192129.261000", "192129.264000", "192129.266000", "192129.269000", "192129.272000", "192129.275000", "192129.278000", "192129.281000", "192129.284000", "192129.287000", "192129.290000", "192129.293000", "192129.296000", "192129.299000", "192129.302000", "192129.305000", "192129.307000", "192129.310000", "192129.313000", "192129.323000", "192129.326000", "192129.329000", "192149.243000", "192149.246000", "192149.249000", "192149.252000", "192149.255000", "192149.258000", "192149.262000", "192149.265000", "192149.268000", "192149.271000", "192149.274000", "192149.277000", "192149.280000", "192149.283000", "192149.286000", "192149.289000", "192149.292000", "192149.295000", "192149.297000", "192149.300000", "192149.303000", "192149.306000", "192149.309000", "192149.312000", "192149.315000", "192149.318000", "192149.321000", "192149.324000", "192209.243000", "192209.246000", "192209.249000", "192209.252000", "192209.255000", "192209.258000", "192209.261000", "192209.264000", "192209.266000", "192209.269000", "192209.272000", "192209.275000", "192209.278000", "192209.281000", "192209.284000", "192209.287000", "192209.290000", "192209.293000", "192209.296000", "192209.299000", "192209.302000", "192209.309000", "192209.312000", "192209.315000", "192209.318000", "192209.321000", "192209.324000", "192209.327000", "192209.330000", "192229.244000", "192229.247000", "192229.250000", "192229.253000", "192229.256000", "192229.259000", "192229.262000", "192229.264000", "192229.267000", "192229.270000", "192229.273000", "192229.276000", "192229.279000", "192229.282000", "192229.285000", "192229.288000", "192229.291000", "192229.294000", "192229.297000", "192229.300000", "192229.311000", "192229.322000", "192229.325000", "192229.328000", "192229.331000", "192229.334000", "192229.343000", "192229.346000", "192249.244000", "192249.247000", "192249.250000", "192249.253000", "192249.256000", "192249.259000", "192249.262000", "192249.265000", "192249.268000", "192249.271000", "192249.273000", "192249.277000", "192249.279000", "192249.282000", "192249.285000", "192249.288000", "192249.291000", "192249.294000", "192249.297000", "192249.300000", "192249.303000", "192249.306000", "192249.309000", "192249.312000", "192249.315000", "192249.318000", "192249.321000", "192249.324000", "192309.243000", "192309.246000", "192309.249000", "192309.252000", "192309.255000", "192309.258000", "192309.261000", "192309.264000", "192309.267000", "192309.270000", "192309.272000", "192309.275000", "192309.278000", "192309.281000", "192309.284000", "192309.287000", "192309.290000", "192309.293000", "192309.296000", "192309.299000", "192309.792000"],
      "InstanceCreationTime": ["192049.281000", "192049.284000", "192109.243000", "192109.246000", "192109.253000", "192109.256000", "192109.259000", "192109.262000", "192109.265000", "192109.274000", "192109.282000", "192109.285000", "192109.288000", "192109.291000", "192109.294000", "192109.297000", "192109.299000", "192109.302000", "192109.314000", "192109.317000", "192109.320000", "192109.322000", "192109.331000", "192109.334000", "192109.337000", "192109.340000", "192109.343000", "192109.346000", "192109.349000", "192109.352000", "192129.243000", "192129.246000", "192129.249000", "192129.252000", "192129.255000", "192129.258000", "192129.261000", "192129.264000", "192129.266000", "192129.269000", "192129.272000", "192129.275000", "192129.278000", "192129.281000", "192129.284000", "192129.287000", "192129.290000", "192129.293000", "192129.296000", "192129.299000", "192129.302000", "192129.305000", "192129.307000", "192129.310000", "192129.313000", "192129.323000", "192129.326000", "192129.329000", "192149.243000", "192149.246000", "192149.249000", "192149.252000", "192149.255000", "192149.258000", "192149.262000", "192149.265000", "192149.268000", "192149.271000", "192149.274000", "192149.277000", "192149.280000", "192149.283000", "192149.286000", "192149.289000", "192149.292000", "192149.295000", "192149.297000", "192149.300000", "192149.303000", "192149.306000", "192149.309000", "192149.312000", "192149.315000", "192149.318000", "192149.321000", "192149.324000", "192209.243000", "192209.246000", "192209.249000", "192209.252000", "192209.255000", "192209.258000", "192209.261000", "192209.264000", "192209.266000", "192209.269000", "192209.272000", "192209.275000", "192209.278000", "192209.281000", "192209.284000", "192209.287000", "192209.290000", "192209.293000", "192209.296000", "192209.299000", "192209.302000", "192209.309000", "192209.312000", "192209.315000", "192209.318000", "192209.321000", "192209.324000", "192209.327000", "192209.330000", "192229.244000", "192229.247000", "192229.250000", "192229.253000", "192229.256000", "192229.259000", "192229.262000", "192229.264000", "192229.267000", "192229.270000", "192229.273000", "192229.276000", "192229.279000", "192229.282000", "192229.285000", "192229.288000", "192229.291000", "192229.294000", "192229.297000", "192229.300000", "192229.311000", "192229.322000", "192229.325000", "192229.328000", "192229.331000", "192229.334000", "192229.343000", "192229.346000", "192249.244000", "192249.247000", "192249.250000", "192249.253000", "192249.256000", "192249.259000", "192249.262000", "192249.265000", "192249.268000", "192249.271000", "192249.273000", "192249.277000", "192249.279000", "192249.282000", "192249.285000", "192249.288000", "192249.291000", "192249.294000", "192249.297000", "192249.300000", "192249.303000", "192249.306000", "192249.309000", "192249.312000", "192249.315000", "192249.318000", "192249.321000", "192249.324000", "192309.243000", "192309.246000", "192309.249000", "192309.252000", "192309.255000", "192309.258000", "192309.261000", "192309.264000", "192309.267000", "192309.270000", "192309.272000", "192309.275000", "192309.278000", "192309.281000", "192309.284000", "192309.287000", "192309.290000", "192309.293000", "192309.296000", "192309.299000", "192309.792000"],
      "InstanceNumber": [1, 2, 3, 4, 5, 6, 7, 8, 9, 10, 11, 12, 13, 14, 15, 16, 17, 18, 19, 20, 21, 22, 23, 24, 25, 26, 27, 28, 29, 30, 31, 32, 33, 34, 35, 36, 37, 38, 39, 40, 41, 42, 43, 44, 45, 46, 47, 48, 49, 50, 51, 52, 53, 54, 55, 56, 57, 58, 59, 60, 61, 62, 63, 64, 65, 66, 67, 68, 69, 70, 71, 72, 73, 74, 75, 76, 77, 78, 79, 80, 81, 82, 83, 84, 85, 86, 87, 88, 89, 90, 91, 92, 93, 94, 95, 96, 97, 98, 99, 100, 101, 102, 103, 104, 105, 106, 107, 108, 109, 110, 111, 112, 113, 114, 115, 116, 117, 118, 119, 120, 121, 122, 123, 124, 125, 126, 127, 128, 129, 130, 131, 132, 133, 134, 135, 136, 137, 138, 139, 140, 141, 142, 143, 144, 145, 146, 147, 148, 149, 150, 151, 152, 153, 154, 155, 156, 157, 158, 159, 160, 161, 162, 163, 164, 165, 166, 167, 168, 169, 170, 171, 172, 173, 174, 175, 176, 177, 178, 179, 180, 181, 182, 183, 184, 185, 186, 187, 188, 189, 190, 191, 192],
      "LargestImagePixelValue": [34538, 33708, 33476, 33451, 32969, 33332, 33068, 33253, 33237, 33315, 33205, 32900, 33367, 33004, 33348, 32953, 33251, 33242, 32916, 33593, 33324, 33756, 33699, 33675, 33082, 33602, 33593, 33022, 32849, 32813, 33151, 33021, 33123, 33515, 33286, 33064, 32947, 33245, 33491, 32999, 32291, 33125, 33487, 33170, 32949, 33166, 33471, 33181, 32742, 32072, 33167, 33237, 32641, 32044, 33183, 33352, 32881, 32089, 32980, 33194, 32769, 32170, 32833, 33035, 32761, 32204, 33002, 33180, 32973, 32276, 32699, 32987, 33266, 32431, 32762, 32992, 33181, 32196, 32368, 33697, 33243, 32854, 32579, 33169, 32710, 32189, 32423, 32971, 32926, 32637, 31811, 32969, 32896, 32337, 32814, 32995, 33445, 32334, 32498, 33064, 33061, 32558, 32462, 32929, 33083, 32731, 32044, 33076, 32866, 32542, 31907, 32962, 33095, 32369, 32522, 32995, 32491, 32730, 33180, 33608, 32887, 32967, 33434, 33255, 32367, 32620, 33135, 33096, 32342, 33228, 33417, 32958, 32685, 32644, 33287, 32763, 32836, 32794, 33285, 33674, 32969, 32716, 33278, 33418, 32974, 32808, 32648, 33439, 33209, 32581, 32415, 32551, 33228, 32581, 33051, 32498, 32718, 33108, 32879, 32915, 33125, 33137, 32994, 32249, 33416, 33482, 32789, 32861, 33598, 33272, 32842, 33514, 33286, 32559, 32585, 33101, 33106, 32494, 32960, 33241, 32783, 32204, 32983, 32966, 32953, 32393, 32237, 32697, 32857, 32480, 32257, 33341],
      "WindowCenter": [9684.0, 9652.0, 9631.0, 9629.0, 9619.0, 9618.0, 9617.0, 9621.0, 9615.0, 9615.0, 9607.0, 9600.0, 9603.0, 9605.0, 9612.0, 9607.0, 9612.0, 9628.0, 9648.0, 9672.0, 9674.0, 9674.0, 9674.0, 9668.0, 9654.0, 9648.0, 9642.0, 9631.0, 9627.0, 9610.0, 9624.0, 9609.0, 9615.0, 9619.0, 9613.0, 9615.0, 9615.0, 9614.0, 9619.0, 9614.0, 9605.0, 9619.0, 9621.0, 9629.0, 9623.0, 9622.0, 9627.0, 9630.0, 9619.0, 9614.0, 9630.0, 9638.0, 9629.0, 9624.0, 9639.0, 9649.0, 9634.0, 9616.0, 9625.0, 9656.0, 9645.0, 9640.0, 9643.0, 9634.0, 9629.0, 9623.0, 9631.0, 9630.0, 9625.0, 9613.0, 9617.0, 9616.0, 9624.0, 9607.0, 9610.0, 9622.0, 9638.0, 9608.0, 9606.0, 9620.0, 9613.0, 9609.0, 9609.0, 9622.0, 9625.0, 9620.0, 9611.0, 9622.0, 9616.0, 9609.0, 9592.0, 9607.0, 9615.0, 9619.0, 9633.0, 9642.0, 9657.0, 9634.0, 9621.0, 9618.0, 9615.0, 9603.0, 9602.0, 9607.0, 9608.0, 9610.0, 9600.0, 9608.0, 9617.0, 9620.0, 9624.0, 9642.0, 9654.0, 9642.0, 9640.0, 9651.0, 9639.0, 9630.0, 9626.0, 9622.0, 9610.0, 9603.0, 9606.0, 9618.0, 9598.0, 9578.0, 9581.0, 9582.0, 9580.0, 9596.0, 9592.0, 9592.0, 9586.0, 9577.0, 9580.0, 9583.0, 9591.0, 9599.0, 9603.0, 9619.0, 9608.0, 9603.0, 9607.0, 9608.0, 9616.0, 9610.0, 9602.0, 9606.0, 9614.0, 9603.0, 9599.0, 9609.0, 9629.0, 9621.0, 9626.0, 9611.0, 9625.0, 9631.0, 9634.0, 9636.0, 9649.0, 9659.0, 9654.0, 9642.0, 9650.0, 9665.0, 9666.0, 9661.0, 9673.0, 9663.0, 9655.0, 9650.0, 9630.0, 9617.0, 9607.0, 9605.0, 9602.0, 9597.0, 9594.0, 9590.0, 9579.0, 9579.0, 9582.0, 9583.0, 9584.0, 9581.0, 9585.0, 9586.0, 9599.0, 9588.0, 9587.0, 9604.0],
      "WindowWidth": [20582.0, 20507.0, 20450.0, 20443.0, 20427.0, 20422.0, 20419.0, 20424.0, 20412.0, 20411.0, 20394.0, 20378.0, 20381.0, 20386.0, 20401.0, 20394.0, 20403.0, 20441.0, 20490.0, 20543.0, 20549.0, 20549.0, 20551.0, 20537.0, 20506.0, 20485.0, 20474.0, 20454.0, 20442.0, 20405.0, 20435.0, 20402.0, 20411.0, 20416.0, 20404.0, 20411.0, 20410.0, 20408.0, 20418.0, 20410.0, 20395.0, 20420.0, 20427.0, 20444.0, 20432.0, 20426.0, 20436.0, 20444.0, 20425.0, 20418.0, 20448.0, 20465.0, 20453.0, 20442.0, 20469.0, 20493.0, 20460.0, 20426.0, 20438.0, 20510.0, 20485.0, 20475.0, 20475.0, 20457.0, 20446.0, 20437.0, 20448.0, 20445.0, 20436.0, 20415.0, 20418.0, 20418.0, 20433.0, 20401.0, 20403.0, 20427.0, 20465.0, 20405.0, 20396.0, 20419.0, 20406.0, 20401.0, 20398.0, 20428.0, 20435.0, 20429.0, 20407.0, 20424.0, 20413.0, 20398.0, 20368.0, 20394.0, 20414.0, 20426.0, 20455.0, 20478.0, 20507.0, 20463.0, 20428.0, 20417.0, 20407.0, 20385.0, 20383.0, 20391.0, 20398.0, 20403.0, 20385.0, 20397.0, 20420.0, 20431.0, 20442.0, 20478.0, 20507.0, 20485.0, 20476.0, 20498.0, 20471.0, 20448.0, 20436.0, 20423.0, 20402.0, 20386.0, 20388.0, 20421.0, 20376.0, 20324.0, 20330.0, 20335.0, 20336.0, 20363.0, 20356.0, 20359.0, 20344.0, 20324.0, 20326.0, 20339.0, 20357.0, 20375.0, 20379.0, 20415.0, 20395.0, 20384.0, 20388.0, 20393.0, 20410.0, 20399.0, 20382.0, 20388.0, 20407.0, 20390.0, 20381.0, 20398.0, 20441.0, 20430.0, 20437.0, 20405.0, 20436.0, 20450.0, 20461.0, 20464.0, 20494.0, 20516.0, 20507.0, 20482.0, 20494.0, 20529.0, 20538.0, 20520.0, 20545.0, 20527.0, 20505.0, 20488.0, 20449.0, 20423.0, 20398.0, 20392.0, 20385.0, 20375.0, 20362.0, 20350.0, 20330.0, 20332.0, 20332.0, 20337.0, 20340.0, 20338.0, 20346.0, 20348.0, 20373.0, 20352.0, 20349.0, 20381.0]
    },
    "slices": {}
  },
  "NumberOfVolumes": 192
}