{
  "AcquisitionMatrixPE": 104,
  "AcquisitionNumber": 1,
  "AcquisitionTime": "19:31:15.487500",
  "BandwidthPerPixelPhaseEncode": 16.297,
  "BaseResolution": 104,
  "BodyPartExamined": "BRAIN",
  "ConsistencyInfo": "N4_VE11C_LATEST_20160120",
  "ConversionSoftware": "dcm2niix",
  "ConversionSoftwareVersion": "v1.0.20190902",
  "DerivedVendorReportedEchoSpacing": 0.000590009,
  "DeviceSerialNumber": "166018",
  "DwellTime": 2.1e-06,
  "EchoTime": 0.0376,
  "EchoTrainLength": 104,
  "EffectiveEchoSpacing": 0.000590009,
  "FlipAngle": 68,
  "ImageComments": "Unaliased_MB6_PE3_LB",
  "ImageOrientationPatientDICOM": [0.99982, -0.0125353, -0.0142533, 0.0111685, 0.995675, -0.0922301],
  "ImageType": [
    "ORIGINAL",
    "PRIMARY",
    "M",
    "MB",
    "ND",
    "MOSAIC"
],
  "ImagingFrequency": 123.197,
  "InPlanePhaseEncodingDirectionDICOM": "COL",
  "InstitutionAddress": "Washington_Place_6_NYC_NYC_US_10003",
  "InstitutionName": "NYU_-_CBI",
  "InstitutionalDepartmentName": "Department",
  "MRAcquisitionType": "2D",
  "MagneticFieldStrength": 3,
  "Manufacturer": "Siemens",
  "ManufacturersModelName": "Prisma",
  "Modality": "MR",
  "MultibandAccelerationFactor": 6,
  "PartialFourier": 1,
  "PatientPosition": "HFS",
  "PercentPhaseFOV": 100,
  "PhaseEncodingDirection": "j",
  "PhaseEncodingSteps": 104,
  "PhaseResolution": 1,
  "PixelBandwidth": 2290,
  "ProcedureStepDescription": "Investigators_Winawer",
  "ProtocolName": "cmrr_mbepi_s6_2mm_66sl_PA_task-prf",
  "PulseSequenceDetails": "%CustomerSeq%_cmrr_mbep2d_bold",
  "ReceiveCoilActiveElements": "HC1-7",
  "ReceiveCoilName": "HeadNeck_64",
  "ReconMatrixPE": 104,
  "RepetitionTime": 1,
  "SAR": 0.0646521,
  "ScanOptions": "FS",
  "ScanningSequence": "EP",
  "SequenceName": "epfid2d1_104",
  "SequenceVariant": "SK_SS",
  "SeriesDescription": "cmrr_mbepi_s6_2mm_66sl_PA_task-prf",
  "SeriesNumber": 16,
  "ShimSetting": [285, -12614, -8462, 344, 17, -70, 37, 72],
  "SliceThickness": 2,
  "SliceTiming": [0, 0.535, 0.0875, 0.6225, 0.1775, 0.7125, 0.2675, 0.8, 0.355, 0.89, 0.445, 0, 0.535, 0.0875, 0.6225, 0.1775, 0.7125, 0.2675, 0.8, 0.355, 0.89, 0.445, 0, 0.535, 0.0875, 0.6225, 0.1775, 0.7125, 0.2675, 0.8, 0.355, 0.89, 0.445, 0, 0.535, 0.0875, 0.6225, 0.1775, 0.7125, 0.2675, 0.8, 0.355, 0.89, 0.445, 0, 0.535, 0.0875, 0.6225, 0.1775, 0.7125, 0.2675, 0.8, 0.355, 0.89, 0.445, 0, 0.535, 0.0875, 0.6225, 0.1775, 0.7125, 0.2675, 0.8, 0.355, 0.89, 0.445],
  "SoftwareVersions": "syngo_MR_E11",
  "SpacingBetweenSlices": 2,
  "StationName": "AWP166018",
  "TaskName": "prf",
  "TotalReadoutTime": 0.060771,
  "TxRefAmp": 206.58,
  "VendorReportedEchoSpacing": 0.00059,
  "WipMemBlock": "e08fe50f-6a08-4b97-99c7-510ed046b681||Sequence: R016 ve11c/master r/8780670; Nov 27 2017 15:05:12 by eja",
  "dcmmeta_affine": [
    [-1.999639630317688, 0.022337082773447037, -0.0306955985724926, 104.43843841552734],
    [0.025070656090974808, 1.9913501739501953, -0.18410862982273102, -73.31676483154297],
    [-0.02850661799311638, 0.18446023762226105, 1.9912714958190918, -51.61579895019531],
    [0.0, 0.0, 0.0, 1.0]
],
  "dcmmeta_reorient_transform": [
    [0.0, -1.0, 0.0, 103.0],
    [1.0, 0.0, 0.0, 0.0],
    [0.0, 0.0, 1.0, 0.0],
    [0.0, 0.0, 0.0, 1.0]
],
  "dcmmeta_shape": [104, 104, 66, 192],
  "dcmmeta_slice_dim": 2,
  "dcmmeta_version": 0.6,
  "global": {
    "const": {
      "AccessionNumber": "L80dmaio",
      "AcquisitionMatrix": [104, 0, 0, 104],
      "AngioFlag": "N",
      "BitsAllocated": 16,
      "BitsStored": 16,
      "BodyPartExamined": "BRAIN",
      "Columns": 936,
      "EchoNumbers": 1,
      "EchoTime": 37.6,
      "EchoTrainLength": 104,
      "FlipAngle": 68.0,
      "HighBit": 15,
      "ImageOrientationPatient": [0.99981983813936, -0.0125353278327, -0.0142533090581, 0.01116854137735, 0.99567508229194, -0.0922301153986],
      "ImagePositionPatient": [-947.88148665289, -949.76457700428, 55.97781527806],
      "ImageType": [
        "ORIGINAL",
        "PRIMARY",
        "M",
        "MB",
        "ND",
        "MOSAIC"
],
      "ImagedNucleus": "1H",
      "ImagingFrequency": 123.196836,
      "InPlanePhaseEncodingDirection": "COL",
      "MRAcquisitionType": "2D",
      "MagneticFieldStrength": 3.0,
      "Manufacturer": "SIEMENS",
      "ManufacturerModelName": "Prisma",
      "Modality": "MR",
      "NumberOfAverages": 1.0,
      "NumberOfPhaseEncodingSteps": 104,
      "PercentPhaseFieldOfView": 100.0,
      "PercentSampling": 100.0,
      "PerformedProcedureStepStartTime": "184723.689000",
      "PhotometricInterpretation": "MONOCHROME2",
      "PixelBandwidth": 2290.0,
      "PixelRepresentation": 0,
      "PixelSpacing": [2.0, 2.0],
      "ProtocolName": "cmrr_mbepi_s6_2mm_66sl_PA_task-prf",
      "RepetitionTime": 1000.0,
      "Rows": 936,
      "SAR": 0.06465207866915,
      "SamplesPerPixel": 1,
      "ScanOptions": "FS",
      "ScanningSequence": "EP",
      "SequenceName": "epfid2d1_104",
      "SequenceVariant": [
        "SK",
        "SS"
],
      "SeriesDescription": "cmrr_mbepi_s6_2mm_66sl_PA_task-prf",
      "SeriesNumber": 16,
      "SeriesTime": "193229.275000",
      "SliceLocation": -46.244306719308,
      "SliceThickness": 2.0,
      "SmallestImagePixelValue": 0,
      "SoftwareVersions": "syngo MR E11",
      "SpacingBetweenSlices": 2.0000000420824,
      "SpecificCharacterSet": "ISO_IR 100",
      "StudyID": "1",
      "StudyTime": "184723.598000",
      "TransmitCoilName": "Body",
      "VariableFlipAngleFlag": "N",
      "WindowCenterWidthExplanation": "Algo1",
      "dBdt": 0.0},
    "slices": {}
  },
  "time": {
    "samples": {
      "AcquisitionNumber": [1, 2, 3, 4, 5, 6, 7, 8, 9, 10, 11, 12, 13, 14, 15, 16, 17, 18, 19, 20, 21, 22, 23, 24, 25, 26, 27, 28, 29, 30, 31, 32, 33, 34, 35, 36, 37, 38, 39, 40, 41, 42, 43, 44, 45, 46, 47, 48, 49, 50, 51, 52, 53, 54, 55, 56, 57, 58, 59, 60, 61, 62, 63, 64, 65, 66, 67, 68, 69, 70, 71, 72, 73, 74, 75, 76, 77, 78, 79, 80, 81, 82, 83, 84, 85, 86, 87, 88, 89, 90, 91, 92, 93, 94, 95, 96, 97, 98, 99, 100, 101, 102, 103, 104, 105, 106, 107, 108, 109, 110, 111, 112, 113, 114, 115, 116, 117, 118, 119, 120, 121, 122, 123, 124, 125, 126, 127, 128, 129, 130, 131, 132, 133, 134, 135, 136, 137, 138, 139, 140, 141, 142, 143, 144, 145, 146, 147, 148, 149, 150, 151, 152, 153, 154, 155, 156, 157, 158, 159, 160, 161, 162, 163, 164, 165, 166, 167, 168, 169, 170, 171, 172, 173, 174, 175, 176, 177, 178, 179, 180, 181, 182, 183, 184, 185, 186, 187, 188, 189, 190, 191, 192],
      "AcquisitionTime": ["193115.487500", "193116.487500", "193117.487500", "193118.487500", "193119.487500", "193120.487500", "193121.487500", "193122.487500", "193123.487500", "193124.487500", "193125.487500", "193126.487500", "193127.487500", "193128.487500", "193129.487500", "193130.487500", "193131.487500", "193132.487500", "193133.487500", "193134.487500", "193135.487500", "193136.487500", "193137.487500", "193138.487500", "193139.487500", "193140.487500", "193141.487500", "193142.487500", "193143.487500", "193144.487500", "193145.487500", "193146.487500", "193147.487500", "193148.487500", "193149.487500", "193150.487500", "193151.487500", "193152.487500", "193153.487500", "193154.487500", "193155.487500", "193156.487500", "193157.487500", "193158.487500", "193159.487500", "193200.487500", "193201.487500", "193202.487500", "193203.487500", "193204.487500", "193205.487500", "193206.487500", "193207.487500", "193208.487500", "193209.487500", "193210.487500", "193211.487500", "193212.487500", "193213.487500", "193214.487500", "193215.487500", "193216.487500", "193217.487500", "193218.487500", "193219.487500", "193220.487500", "193221.487500", "193222.487500", "193223.487500", "193224.487500", "193225.487500", "193226.487500", "193227.487500", "193228.487500", "193229.487500", "193230.487500", "193231.487500", "193232.487500", "193233.487500", "193234.487500", "193235.487500", "193236.487500", "193237.487500", "193238.487500", "193239.487500", "193240.487500", "193241.487500", "193242.487500", "193243.487500", "193244.487500", "193245.487500", "193246.487500", "193247.487500", "193248.487500", "193249.487500", "193250.487500", "193251.487500", "193252.487500", "193253.487500", "193254.487500", "193255.487500", "193256.487500", "193257.487500", "193258.487500", "193259.487500", "193300.487500", "193301.487500", "193302.487500", "193303.487500", "193304.487500", "193305.487500", "193306.487500", "193307.487500", "193308.487500", "193309.487500", "193310.487500", "193311.487500", "193312.487500", "193313.487500", "193314.487500", "193315.487500", "193316.487500", "193317.487500", "193318.487500", "193319.487500", "193320.487500", "193321.487500", "193322.487500", "193323.487500", "193324.487500", "193325.487500", "193326.487500", "193327.487500", "193328.487500", "193329.487500", "193330.487500", "193331.487500", "193332.487500", "193333.487500", "193334.487500", "193335.487500", "193336.487500", "193337.487500", "193338.487500", "193339.487500", "193340.487500", "193341.487500", "193342.487500", "193343.487500", "193344.487500", "193345.487500", "193346.487500", "193347.487500", "193348.487500", "193349.487500", "193350.487500", "193351.487500", "193352.487500", "193353.487500", "193354.487500", "193355.487500", "193356.487500", "193357.487500", "193358.487500", "193359.487500", "193400.487500", "193401.487500", "193402.487500", "193403.487500", "193404.487500", "193405.487500", "193406.487500", "193407.487500", "193408.487500", "193409.487500", "193410.487500", "193411.487500", "193412.487500", "193413.487500", "193414.487500", "193415.487500", "193416.487500", "193417.487500", "193418.487500", "193419.487500", "193420.487500", "193421.487500", "193422.487500", "193423.487500", "193424.487500", "193425.487500", "193426.487500"],
      "ContentTime": ["193229.278000", "193229.281000", "193229.284000", "193229.287000", "193229.290000", "193229.293000", "193229.296000", "193229.299000", "193229.302000", "193229.305000", "193229.308000", "193229.311000", "193229.319000", "193229.322000", "193229.325000", "193229.328000", "193229.331000", "193229.334000", "193229.337000", "193229.339000", "193229.342000", "193229.345000", "193229.348000", "193229.357000", "193229.360000", "193229.363000", "193229.366000", "193229.368000", "193229.371000", "193229.374000", "193229.377000", "193229.380000", "193229.383000", "193229.386000", "193249.243000", "193249.246000", "193249.249000", "193249.252000", "193249.255000", "193249.258000", "193249.261000", "193249.264000", "193249.266000", "193249.269000", "193249.272000", "193249.275000", "193249.278000", "193249.281000", "193249.284000", "193249.287000", "193249.290000", "193249.293000", "193249.301000", "193249.304000", "193249.307000", "193249.310000", "193249.313000", "193249.315000", "193249.318000", "193249.321000", "193249.324000", "193249.327000", "193309.243000", "193309.246000", "193309.249000", "193309.252000", "193309.255000", "193309.257000", "193309.260000", "193309.263000", "193309.266000", "193309.269000", "193309.272000", "193309.275000", "193309.278000", "193309.281000", "193309.284000", "193309.287000", "193309.290000", "193309.293000", "193309.295000", "193309.298000", "193309.301000", "193309.315000", "193309.317000", "193309.320000", "193309.333000", "193309.336000", "193309.339000", "193309.342000", "193309.345000", "193329.243000", "193329.246000", "193329.249000", "193329.252000", "193329.255000", "193329.258000", "193329.261000", "193329.264000", "193329.267000", "193329.269000", "193329.272000", "193329.275000", "193329.278000", "193329.281000", "193329.284000", "193329.287000", "193329.290000", "193329.293000", "193329.296000", "193329.299000", "193329.302000", "193329.305000", "193329.308000", "193329.311000", "193329.313000", "193329.316000", "193329.319000", "193329.322000", "193349.243000", "193349.246000", "193349.258000", "193349.261000", "193349.264000", "193349.267000", "193349.270000", "193349.272000", "193349.275000", "193349.278000", "193349.281000", "193349.284000", "193349.287000", "193349.290000", "193349.293000", "193349.296000", "193349.299000", "193349.302000", "193349.304000", "193349.307000", "193349.310000", "193349.313000", "193349.316000", "193349.319000", "193349.322000", "193349.325000", "193349.328000", "193349.330000", "193409.244000", "193409.247000", "193409.250000", "193409.253000", "193409.256000", "193409.259000", "193409.270000", "193409.273000", "193409.276000", "193409.279000", "193409.282000", "193409.285000", "193409.288000", "193409.291000", "193409.294000", "193409.297000", "193409.300000", "193409.302000", "193409.305000", "193409.308000", "193409.311000", "193409.314000", "193409.317000", "193409.320000", "193409.323000", "193409.326000", "193427.858000", "193427.861000", "193427.865000", "193427.868000", "193427.873000", "193427.876000", "193427.881000", "193427.886000", "193427.891000", "193427.895000", "193427.898000", "193427.901000", "193427.904000", "193427.908000", "193427.913000", "193427.916000", "193427.919000", "193427.924000", "193427.926000"],
      "InstanceCreationTime": ["193229.278000", "193229.281000", "193229.284000", "193229.287000", "193229.290000", "193229.293000", "193229.296000", "193229.299000", "193229.302000", "193229.305000", "193229.308000", "193229.311000", "193229.319000", "193229.322000", "193229.325000", "193229.328000", "193229.331000", "193229.334000", "193229.337000", "193229.339000", "193229.342000", "193229.345000", "193229.348000", "193229.357000", "193229.360000", "193229.363000", "193229.366000", "193229.368000", "193229.371000", "193229.374000", "193229.377000", "193229.380000", "193229.383000", "193229.386000", "193249.243000", "193249.246000", "193249.249000", "193249.252000", "193249.255000", "193249.258000", "193249.261000", "193249.264000", "193249.266000", "193249.269000", "193249.272000", "193249.275000", "193249.278000", "193249.281000", "193249.284000", "193249.287000", "193249.290000", "193249.293000", "193249.301000", "193249.304000", "193249.307000", "193249.310000", "193249.313000", "193249.315000", "193249.318000", "193249.321000", "193249.324000", "193249.327000", "193309.243000", "193309.246000", "193309.249000", "193309.252000", "193309.255000", "193309.257000", "193309.260000", "193309.263000", "193309.266000", "193309.269000", "193309.272000", "193309.275000", "193309.278000", "193309.281000", "193309.284000", "193309.287000", "193309.290000", "193309.293000", "193309.295000", "193309.298000", "193309.301000", "193309.315000", "193309.317000", "193309.320000", "193309.333000", "193309.336000", "193309.339000", "193309.342000", "193309.345000", "193329.243000", "193329.246000", "193329.249000", "193329.252000", "193329.255000", "193329.258000", "193329.261000", "193329.264000", "193329.267000", "193329.269000", "193329.272000", "193329.275000", "193329.278000", "193329.281000", "193329.284000", "193329.287000", "193329.290000", "193329.293000", "193329.296000", "193329.299000", "193329.302000", "193329.305000", "193329.308000", "193329.311000", "193329.313000", "193329.316000", "193329.319000", "193329.322000", "193349.243000", "193349.246000", "193349.258000", "193349.261000", "193349.264000", "193349.267000", "193349.270000", "193349.272000", "193349.275000", "193349.278000", "193349.281000", "193349.284000", "193349.287000", "193349.290000", "193349.293000", "193349.296000", "193349.299000", "193349.302000", "193349.304000", "193349.307000", "193349.310000", "193349.313000", "193349.316000", "193349.319000", "193349.322000", "193349.325000", "193349.328000", "193349.330000", "193409.244000", "193409.247000", "193409.250000", "193409.253000", "193409.256000", "193409.259000", "193409.270000", "193409.273000", "193409.276000", "193409.279000", "193409.282000", "193409.285000", "193409.288000", "193409.291000", "193409.294000", "193409.297000", "193409.300000", "193409.302000", "193409.305000", "193409.308000", "193409.311000", "193409.314000", "193409.317000", "193409.320000", "193409.323000", "193409.326000", "193427.858000", "193427.861000", "193427.865000", "193427.868000", "193427.873000", "193427.876000", "193427.881000", "193427.886000", "193427.891000", "193427.895000", "193427.898000", "193427.901000", "193427.904000", "193427.908000", "193427.913000", "193427.916000", "193427.919000", "193427.924000", "193427.926000"],
      "InstanceNumber": [1, 2, 3, 4, 5, 6, 7, 8, 9, 10, 11, 12, 13, 14, 15, 16, 17, 18, 19, 20, 21, 22, 23, 24, 25, 26, 27, 28, 29, 30, 31, 32, 33, 34, 35, 36, 37, 38, 39, 40, 41, 42, 43, 44, 45, 46, 47, 48, 49, 50, 51, 52, 53, 54, 55, 56, 57, 58, 59, 60, 61, 62, 63, 64, 65, 66, 67, 68, 69, 70, 71, 72, 73, 74, 75, 76, 77, 78, 79, 80, 81, 82, 83, 84, 85, 86, 87, 88, 89, 90, 91, 92, 93, 94, 95, 96, 97, 98, 99, 100, 101, 102, 103, 104, 105, 106, 107, 108, 109, 110, 111, 112, 113, 114, 115, 116, 117, 118, 119, 120, 121, 122, 123, 124, 125, 126, 127, 128, 129, 130, 131, 132, 133, 134, 135, 136, 137, 138, 139, 140, 141, 142, 143, 144, 145, 146, 147, 148, 149, 150, 151, 152, 153, 154, 155, 156, 157, 158, 159, 160, 161, 162, 163, 164, 165, 166, 167, 168, 169, 170, 171, 172, 173, 174, 175, 176, 177, 178, 179, 180, 181, 182, 183, 184, 185, 186, 187, 188, 189, 190, 191, 192],
      "LargestImagePixelValue": [36313, 34742, 33692, 34193, 33717, 33855, 33455, 33222, 33499, 32620, 33574, 33169, 33260, 33952, 33076, 33574, 33207, 33945, 33234, 33967, 33788, 33384, 33893, 33105, 33996, 33580, 34017, 32987, 33398, 33343, 33809, 33122, 34083, 33320, 33981, 33466, 33562, 33582, 33847, 33438, 34061, 33492, 34061, 33254, 34351, 33479, 33706, 33636, 32471, 33192, 33339, 32790, 33632, 33085, 33218, 33360, 33556, 33754, 33564, 34229, 32840, 33181, 32598, 33079, 32965, 32417, 33080, 32446, 32494, 32722, 33123, 33373, 33770, 32595, 33570, 33231, 32522, 33564, 33047, 33285, 33328, 33827, 33089, 33513, 32635, 33665, 33617, 33005, 32813, 33496, 33470, 32514, 33804, 33122, 34138, 32553, 33385, 33540, 32494, 33280, 32946, 32849, 32205, 32529, 32840, 31815, 33311, 32910, 32990, 32044, 33313, 33365, 32547, 33574, 32576, 33494, 32109, 32441, 33814, 33111, 32785, 33747, 33453, 33493, 32782, 34048, 32809, 33187, 32204, 33289, 32659, 33088, 32720, 32911, 33073, 33343, 32603, 33583, 32989, 33323, 32498, 32950, 33197, 33172, 33134, 32156, 31865, 32596, 32447, 32882, 32312, 33320, 33227, 33662, 32354, 33312, 33400, 33008, 32386, 33120, 33053, 33220, 32385, 33797, 33195, 33257, 33111, 33316, 33015, 33053, 32731, 32601, 33217, 32988, 32826, 33120, 33404, 33670, 32837, 33612, 33220, 33702, 32982, 32862, 33912, 34098, 33361, 34206, 33675, 33507, 33162, 33823],
      "WindowCenter": [9708.0, 9670.0, 9651.0, 9664.0, 9651.0, 9656.0, 9665.0, 9652.0, 9658.0, 9650.0, 9660.0, 9653.0, 9654.0, 9657.0, 9645.0, 9650.0, 9652.0, 9657.0, 9644.0, 9654.0, 9651.0, 9643.0, 9655.0, 9647.0, 9655.0, 9657.0, 9657.0, 9646.0, 9644.0, 9644.0, 9657.0, 9646.0, 9654.0, 9634.0, 9641.0, 9634.0, 9627.0, 9624.0, 9640.0, 9636.0, 9645.0, 9648.0, 9655.0, 9650.0, 9659.0, 9649.0, 9651.0, 9658.0, 9641.0, 9643.0, 9644.0, 9648.0, 9660.0, 9663.0, 9664.0, 9663.0, 9668.0, 9666.0, 9667.0, 9657.0, 9619.0, 9633.0, 9633.0, 9639.0, 9638.0, 9635.0, 9640.0, 9632.0, 9631.0, 9632.0, 9633.0, 9627.0, 9631.0, 9614.0, 9615.0, 9616.0, 9607.0, 9617.0, 9613.0, 9618.0, 9626.0, 9633.0, 9621.0, 9633.0, 9617.0, 9633.0, 9640.0, 9637.0, 9640.0, 9645.0, 9643.0, 9635.0, 9649.0, 9639.0, 9655.0, 9633.0, 9635.0, 9634.0, 9626.0, 9637.0, 9630.0, 9629.0, 9619.0, 9623.0, 9621.0, 9604.0, 9620.0, 9619.0, 9621.0, 9611.0, 9626.0, 9625.0, 9622.0, 9632.0, 9623.0, 9635.0, 9626.0, 9615.0, 9664.0, 9690.0, 9672.0, 9662.0, 9654.0, 9639.0, 9612.0, 9609.0, 9590.0, 9594.0, 9582.0, 9593.0, 9580.0, 9587.0, 9589.0, 9594.0, 9596.0, 9609.0, 9604.0, 9615.0, 9611.0, 9627.0, 9623.0, 9631.0, 9628.0, 9636.0, 9635.0, 9612.0, 9606.0, 9628.0, 9642.0, 9640.0, 9636.0, 9648.0, 9641.0, 9646.0, 9620.0, 9621.0, 9603.0, 9597.0, 9584.0, 9592.0, 9595.0, 9603.0, 9600.0, 9613.0, 9609.0, 9604.0, 9597.0, 9602.0, 9596.0, 9604.0, 9607.0, 9606.0, 9613.0, 9606.0, 9606.0, 9619.0, 9623.0, 9642.0, 9623.0, 9626.0, 9619.0, 9626.0, 9622.0, 9632.0, 9650.0, 9665.0, 9642.0, 9650.0, 9654.0, 9654.0, 9640.0, 9644.0],
      "WindowWidth": [20627.0, 20540.0, 20498.0, 20522.0, 20495.0, 20503.0, 20523.0, 20497.0, 20510.0, 20499.0, 20513.0, 20499.0, 20500.0, 20501.0, 20480.0, 20491.0, 20494.0, 20503.0, 20478.0, 20496.0, 20491.0, 20475.0, 20498.0, 20485.0, 20498.0, 20503.0, 20502.0, 20485.0, 20476.0, 20477.0, 20506.0, 20484.0, 20493.0, 20454.0, 20466.0, 20451.0, 20436.0, 20430.0, 20463.0, 20458.0, 20475.0, 20485.0, 20497.0, 20489.0, 20503.0, 20486.0, 20494.0, 20508.0, 20475.0, 20476.0, 20481.0, 20495.0, 20516.0, 20528.0, 20530.0, 20523.0, 20531.0, 20526.0, 20529.0, 20503.0, 20420.0, 20449.0, 20456.0, 20466.0, 20465.0, 20463.0, 20469.0, 20453.0, 20452.0, 20452.0, 20449.0, 20439.0, 20441.0, 20410.0, 20407.0, 20409.0, 20395.0, 20414.0, 20407.0, 20417.0, 20435.0, 20447.0, 20425.0, 20450.0, 20420.0, 20449.0, 20463.0, 20461.0, 20470.0, 20478.0, 20474.0, 20463.0, 20484.0, 20469.0, 20494.0, 20452.0, 20453.0, 20450.0, 20437.0, 20457.0, 20442.0, 20441.0, 20423.0, 20426.0, 20422.0, 20393.0, 20418.0, 20418.0, 20425.0, 20407.0, 20432.0, 20429.0, 20425.0, 20443.0, 20432.0, 20454.0, 20443.0, 20418.0, 20519.0, 20586.0, 20546.0, 20514.0, 20494.0, 20462.0, 20407.0, 20389.0, 20351.0, 20357.0, 20334.0, 20355.0, 20330.0, 20346.0, 20352.0, 20361.0, 20366.0, 20390.0, 20384.0, 20403.0, 20400.0, 20433.0, 20429.0, 20447.0, 20438.0, 20456.0, 20452.0, 20407.0, 20391.0, 20440.0, 20477.0, 20468.0, 20464.0, 20487.0, 20472.0, 20479.0, 20426.0, 20418.0, 20378.0, 20365.0, 20342.0, 20352.0, 20360.0, 20378.0, 20375.0, 20395.0, 20389.0, 20380.0, 20366.0, 20372.0, 20363.0, 20383.0, 20392.0, 20388.0, 20404.0, 20389.0, 20391.0, 20415.0, 20431.0, 20469.0, 20427.0, 20430.0, 20418.0, 20432.0, 20425.0, 20452.0, 20487.0, 20517.0, 20475.0, 20486.0, 20498.0, 20499.0, 20468.0, 20474.0]
    },
    "slices": {}
  },
  "NumberOfVolumes": 192
}