{
  "AcquisitionMatrixPE": 104,
  "AcquisitionNumber": 1,
  "AcquisitionTime": "19:40:20.507500",
  "BandwidthPerPixelPhaseEncode": 16.297,
  "BaseResolution": 104,
  "BodyPartExamined": "BRAIN",
  "ConsistencyInfo": "N4_VE11C_LATEST_20160120",
  "ConversionSoftware": "dcm2niix",
  "ConversionSoftwareVersion": "v1.0.20190902",
  "DerivedVendorReportedEchoSpacing": 0.000590009,
  "DeviceSerialNumber": "166018",
  "DwellTime": 2.1e-06,
  "EchoTime": 0.0376,
  "EchoTrainLength": 104,
  "EffectiveEchoSpacing": 0.000590009,
  "FlipAngle": 68,
  "ImageComments": "Unaliased_MB6_PE3_LB",
  "ImageOrientationPatientDICOM": [0.99982, -0.0125353, -0.0142533, 0.0111685, 0.995675, -0.0922301],
  "ImageType": [
    "ORIGINAL",
    "PRIMARY",
    "M",
    "MB",
    "ND",
    "MOSAIC"
],
  "ImagingFrequency": 123.197,
  "InPlanePhaseEncodingDirectionDICOM": "COL",
  "InstitutionAddress": "Washington_Place_6_NYC_NYC_US_10003",
  "InstitutionName": "NYU_-_CBI",
  "InstitutionalDepartmentName": "Department",
  "MRAcquisitionType": "2D",
  "MagneticFieldStrength": 3,
  "Manufacturer": "Siemens",
  "ManufacturersModelName": "Prisma",
  "Modality": "MR",
  "MultibandAccelerationFactor": 6,
  "PartialFourier": 1,
  "PatientPosition": "HFS",
  "PercentPhaseFOV": 100,
  "PhaseEncodingDirection": "j",
  "PhaseEncodingSteps": 104,
  "PhaseResolution": 1,
  "PixelBandwidth": 2290,
  "ProcedureStepDescription": "Investigators_Winawer",
  "ProtocolName": "cmrr_mbepi_s6_2mm_66sl_PA_task-prf",
  "PulseSequenceDetails": "%CustomerSeq%_cmrr_mbep2d_bold",
  "ReceiveCoilActiveElements": "HC1-7",
  "ReceiveCoilName": "HeadNeck_64",
  "ReconMatrixPE": 104,
  "RepetitionTime": 1,
  "SAR": 0.0646521,
  "ScanOptions": "FS",
  "ScanningSequence": "EP",
  "SequenceName": "epfid2d1_104",
  "SequenceVariant": "SK_SS",
  "SeriesDescription": "cmrr_mbepi_s6_2mm_66sl_PA_task-prf",
  "SeriesNumber": 20,
  "ShimSetting": [285, -12614, -8462, 344, 17, -70, 37, 72],
  "SliceThickness": 2,
  "SliceTiming": [0, 0.535, 0.0875, 0.6225, 0.1775, 0.7125, 0.2675, 0.8, 0.355, 0.89, 0.445, 0, 0.535, 0.0875, 0.6225, 0.1775, 0.7125, 0.2675, 0.8, 0.355, 0.89, 0.445, 0, 0.535, 0.0875, 0.6225, 0.1775, 0.7125, 0.2675, 0.8, 0.355, 0.89, 0.445, 0, 0.535, 0.0875, 0.6225, 0.1775, 0.7125, 0.2675, 0.8, 0.355, 0.89, 0.445, 0, 0.535, 0.0875, 0.6225, 0.1775, 0.7125, 0.2675, 0.8, 0.355, 0.89, 0.445, 0, 0.535, 0.0875, 0.6225, 0.1775, 0.7125, 0.2675, 0.8, 0.355, 0.89, 0.445],
  "SoftwareVersions": "syngo_MR_E11",
  "SpacingBetweenSlices": 2,
  "StationName": "AWP166018",
  "TaskName": "prf",
  "TotalReadoutTime": 0.060771,
  "TxRefAmp": 206.58,
  "VendorReportedEchoSpacing": 0.00059,
  "WipMemBlock": "e08fe50f-6a08-4b97-99c7-510ed046b681||Sequence: R016 ve11c/master r/8780670; Nov 27 2017 15:05:12 by eja",
  "dcmmeta_affine": [
    [-1.999639630317688, 0.022337082773447037, -0.0306955985724926, 104.43843841552734],
    [0.025070656090974808, 1.9913501739501953, -0.18410862982273102, -73.31676483154297],
    [-0.02850661799311638, 0.18446023762226105, 1.9912714958190918, -51.61579895019531],
    [0.0, 0.0, 0.0, 1.0]
],
  "dcmmeta_reorient_transform": [
    [0.0, -1.0, 0.0, 103.0],
    [1.0, 0.0, 0.0, 0.0],
    [0.0, 0.0, 1.0, 0.0],
    [0.0, 0.0, 0.0, 1.0]
],
  "dcmmeta_shape": [104, 104, 66, 192],
  "dcmmeta_slice_dim": 2,
  "dcmmeta_version": 0.6,
  "global": {
    "const": {
      "AccessionNumber": "L80dmaio",
      "AcquisitionMatrix": [104, 0, 0, 104],
      "AngioFlag": "N",
      "BitsAllocated": 16,
      "BitsStored": 16,
      "BodyPartExamined": "BRAIN",
      "Columns": 936,
      "EchoNumbers": 1,
      "EchoTime": 37.6,
      "EchoTrainLength": 104,
      "FlipAngle": 68.0,
      "HighBit": 15,
      "ImageOrientationPatient": [0.99981983813936, -0.0125353278327, -0.0142533090581, 0.01116854137735, 0.99567508229194, -0.0922301153986],
      "ImagePositionPatient": [-947.88148665289, -949.76457700428, 55.97781527806],
      "ImageType": [
        "ORIGINAL",
        "PRIMARY",
        "M",
        "MB",
        "ND",
        "MOSAIC"
],
      "ImagedNucleus": "1H",
      "ImagingFrequency": 123.196836,
      "InPlanePhaseEncodingDirection": "COL",
      "MRAcquisitionType": "2D",
      "MagneticFieldStrength": 3.0,
      "Manufacturer": "SIEMENS",
      "ManufacturerModelName": "Prisma",
      "Modality": "MR",
      "NumberOfAverages": 1.0,
      "NumberOfPhaseEncodingSteps": 104,
      "PercentPhaseFieldOfView": 100.0,
      "PercentSampling": 100.0,
      "PerformedProcedureStepStartTime": "184723.689000",
      "PhotometricInterpretation": "MONOCHROME2",
      "PixelBandwidth": 2290.0,
      "PixelRepresentation": 0,
      "PixelSpacing": [2.0, 2.0],
      "ProtocolName": "cmrr_mbepi_s6_2mm_66sl_PA_task-prf",
      "RepetitionTime": 1000.0,
      "Rows": 936,
      "SAR": 0.06465207866915,
      "SamplesPerPixel": 1,
      "ScanOptions": "FS",
      "ScanningSequence": "EP",
      "SequenceName": "epfid2d1_104",
      "SequenceVariant": [
        "SK",
        "SS"
],
      "SeriesDescription": "cmrr_mbepi_s6_2mm_66sl_PA_task-prf",
      "SeriesNumber": 20,
      "SeriesTime": "194129.200000",
      "SliceLocation": -46.244306719308,
      "SliceThickness": 2.0,
      "SmallestImagePixelValue": 0,
      "SoftwareVersions": "syngo MR E11",
      "SpacingBetweenSlices": 2.0000000420824,
      "SpecificCharacterSet": "ISO_IR 100",
      "StudyID": "1",
      "StudyTime": "184723.598000",
      "TransmitCoilName": "Body",
      "VariableFlipAngleFlag": "N",
      "WindowCenterWidthExplanation": "Algo1",
      "dBdt": 0.0},
    "slices": {}
  },
  "time": {
    "samples": {
      "AcquisitionNumber": [1, 2, 3, 4, 5, 6, 7, 8, 9, 10, 11, 12, 13, 14, 15, 16, 17, 18, 19, 20, 21, 22, 23, 24, 25, 26, 27, 28, 29, 30, 31, 32, 33, 34, 35, 36, 37, 38, 39, 40, 41, 42, 43, 44, 45, 46, 47, 48, 49, 50, 51, 52, 53, 54, 55, 56, 57, 58, 59, 60, 61, 62, 63, 64, 65, 66, 67, 68, 69, 70, 71, 72, 73, 74, 75, 76, 77, 78, 79, 80, 81, 82, 83, 84, 85, 86, 87, 88, 89, 90, 91, 92, 93, 94, 95, 96, 97, 98, 99, 100, 101, 102, 103, 104, 105, 106, 107, 108, 109, 110, 111, 112, 113, 114, 115, 116, 117, 118, 119, 120, 121, 122, 123, 124, 125, 126, 127, 128, 129, 130, 131, 132, 133, 134, 135, 136, 137, 138, 139, 140, 141, 142, 143, 144, 145, 146, 147, 148, 149, 150, 151, 152, 153, 154, 155, 156, 157, 158, 159, 160, 161, 162, 163, 164, 165, 166, 167, 168, 169, 170, 171, 172, 173, 174, 175, 176, 177, 178, 179, 180, 181, 182, 183, 184, 185, 186, 187, 188, 189, 190, 191, 192],
      "AcquisitionTime": ["194020.507500", "194021.507500", "194022.507500", "194023.507500", "194024.507500", "194025.507500", "194026.507500", "194027.507500", "194028.507500", "194029.507500", "194030.507500", "194031.507500", "194032.507500", "194033.507500", "194034.507500", "194035.507500", "194036.507500", "194037.507500", "194038.507500", "194039.507500", "194040.507500", "194041.507500", "194042.507500", "194043.507500", "194044.507500", "194045.507500", "194046.507500", "194047.507500", "194048.507500", "194049.507500", "194050.507500", "194051.507500", "194052.507500", "194053.507500", "194054.507500", "194055.507500", "194056.507500", "194057.507500", "194058.507500", "194059.507500", "194100.507500", "194101.507500", "194102.507500", "194103.507500", "194104.507500", "194105.507500", "194106.507500", "194107.507500", "194108.507500", "194109.507500", "194110.507500", "194111.507500", "194112.507500", "194113.507500", "194114.507500", "194115.507500", "194116.507500", "194117.507500", "194118.507500", "194119.507500", "194120.507500", "194121.507500", "194122.507500", "194123.507500", "194124.507500", "194125.507500", "194126.507500", "194127.507500", "194128.507500", "194129.507500", "194130.507500", "194131.507500", "194132.507500", "194133.507500", "194134.507500", "194135.507500", "194136.507500", "194137.507500", "194138.507500", "194139.507500", "194140.507500", "194141.507500", "194142.507500", "194143.507500", "194144.507500", "194145.507500", "194146.507500", "194147.507500", "194148.507500", "194149.507500", "194150.507500", "194151.507500", "194152.507500", "194153.507500", "194154.507500", "194155.507500", "194156.507500", "194157.507500", "194158.507500", "194159.507500", "194200.507500", "194201.507500", "194202.507500", "194203.507500", "194204.507500", "194205.507500", "194206.507500", "194207.507500", "194208.507500", "194209.507500", "194210.507500", "194211.507500", "194212.507500", "194213.507500", "194214.507500", "194215.507500", "194216.507500", "194217.507500", "194218.507500", "194219.507500", "194220.507500", "194221.507500", "194222.507500", "194223.507500", "194224.507500", "194225.507500", "194226.507500", "194227.507500", "194228.507500", "194229.507500", "194230.507500", "194231.507500", "194232.507500", "194233.507500", "194234.507500", "194235.507500", "194236.507500", "194237.507500", "194238.507500", "194239.507500", "194240.507500", "194241.507500", "194242.507500", "194243.507500", "194244.507500", "194245.507500", "194246.507500", "194247.507500", "194248.507500", "194249.507500", "194250.507500", "194251.507500", "194252.507500", "194253.507500", "194254.507500", "194255.507500", "194256.507500", "194257.507500", "194258.507500", "194259.507500", "194300.507500", "194301.507500", "194302.507500", "194303.507500", "194304.507500", "194305.507500", "194306.507500", "194307.507500", "194308.507500", "194309.507500", "194310.507500", "194311.507500", "194312.507500", "194313.507500", "194314.507500", "194315.507500", "194316.507500", "194317.507500", "194318.507500", "194319.507500", "194320.507500", "194321.507500", "194322.507500", "194323.507500", "194324.507500", "194325.507500", "194326.507500", "194327.507500", "194328.507500", "194329.507500", "194330.507500", "194331.507500"],
      "ContentTime": ["194129.203000", "194129.206000", "194129.209000", "194129.212000", "194129.215000", "194129.218000", "194129.221000", "194129.224000", "194129.227000", "194129.230000", "194129.233000", "194129.242000", "194129.245000", "194129.248000", "194129.251000", "194129.254000", "194129.257000", "194129.265000", "194129.268000", "194129.271000", "194129.274000", "194129.277000", "194129.280000", "194129.283000", "194129.286000", "194129.289000", "194149.170000", "194149.173000", "194149.176000", "194149.179000", "194149.182000", "194149.185000", "194149.187000", "194149.190000", "194149.193000", "194149.196000", "194149.199000", "194149.202000", "194149.205000", "194149.208000", "194149.211000", "194149.214000", "194149.217000", "194149.220000", "194149.223000", "194149.226000", "194149.228000", "194149.231000", "194149.246000", "194149.249000", "194149.251000", "194149.254000", "194149.257000", "194149.260000", "194149.263000", "194209.170000", "194209.173000", "194209.176000", "194209.179000", "194209.182000", "194209.185000", "194209.188000", "194209.191000", "194209.194000", "194209.197000", "194209.200000", "194209.203000", "194209.205000", "194209.208000", "194209.211000", "194209.214000", "194209.217000", "194209.220000", "194209.223000", "194209.226000", "194209.229000", "194209.232000", "194209.235000", "194209.238000", "194209.241000", "194209.244000", "194209.247000", "194209.250000", "194229.170000", "194229.173000", "194229.176000", "194229.179000", "194229.182000", "194229.185000", "194229.188000", "194229.191000", "194229.194000", "194229.197000", "194229.200000", "194229.202000", "194229.205000", "194229.208000", "194229.211000", "194229.214000", "194229.217000", "194229.220000", "194229.223000", "194229.226000", "194229.229000", "194229.232000", "194229.235000", "194229.238000", "194229.240000", "194229.243000", "194229.246000", "194229.249000", "194229.252000", "194249.170000", "194249.177000", "194249.180000", "194249.183000", "194249.186000", "194249.189000", "194249.192000", "194249.195000", "194249.198000", "194249.201000", "194249.204000", "194249.207000", "194249.210000", "194249.213000", "194249.216000", "194249.219000", "194249.222000", "194249.225000", "194249.227000", "194249.230000", "194249.233000", "194249.236000", "194249.239000", "194249.242000", "194249.245000", "194249.248000", "194249.251000", "194249.254000", "194309.170000", "194309.173000", "194309.176000", "194309.179000", "194309.182000", "194309.185000", "194309.188000", "194309.191000", "194309.194000", "194309.197000", "194309.200000", "194309.203000", "194309.205000", "194309.208000", "194309.211000", "194309.214000", "194309.217000", "194309.220000", "194309.227000", "194309.230000", "194309.234000", "194309.236000", "194309.239000", "194309.242000", "194309.245000", "194309.248000", "194309.251000", "194329.171000", "194329.174000", "194329.177000", "194329.180000", "194329.183000", "194329.186000", "194329.189000", "194329.192000", "194329.195000", "194329.198000", "194329.201000", "194329.204000", "194329.207000", "194329.209000", "194329.212000", "194329.215000", "194329.218000", "194329.221000", "194329.225000", "194329.228000", "194333.652000", "194333.655000", "194333.658000", "194333.661000", "194333.664000"],
      "InstanceCreationTime": ["194129.203000", "194129.206000", "194129.209000", "194129.212000", "194129.215000", "194129.218000", "194129.221000", "194129.224000", "194129.227000", "194129.230000", "194129.233000", "194129.242000", "194129.245000", "194129.248000", "194129.251000", "194129.254000", "194129.257000", "194129.265000", "194129.268000", "194129.271000", "194129.274000", "194129.277000", "194129.280000", "194129.283000", "194129.286000", "194129.289000", "194149.170000", "194149.173000", "194149.176000", "194149.179000", "194149.182000", "194149.185000", "194149.187000", "194149.190000", "194149.193000", "194149.196000", "194149.199000", "194149.202000", "194149.205000", "194149.208000", "194149.211000", "194149.214000", "194149.217000", "194149.220000", "194149.223000", "194149.226000", "194149.228000", "194149.231000", "194149.246000", "194149.249000", "194149.251000", "194149.254000", "194149.257000", "194149.260000", "194149.263000", "194209.170000", "194209.173000", "194209.176000", "194209.179000", "194209.182000", "194209.185000", "194209.188000", "194209.191000", "194209.194000", "194209.197000", "194209.200000", "194209.203000", "194209.205000", "194209.208000", "194209.211000", "194209.214000", "194209.217000", "194209.220000", "194209.223000", "194209.226000", "194209.229000", "194209.232000", "194209.235000", "194209.238000", "194209.241000", "194209.244000", "194209.247000", "194209.250000", "194229.170000", "194229.173000", "194229.176000", "194229.179000", "194229.182000", "194229.185000", "194229.188000", "194229.191000", "194229.194000", "194229.197000", "194229.200000", "194229.202000", "194229.205000", "194229.208000", "194229.211000", "194229.214000", "194229.217000", "194229.220000", "194229.223000", "194229.226000", "194229.229000", "194229.232000", "194229.235000", "194229.238000", "194229.240000", "194229.243000", "194229.246000", "194229.249000", "194229.252000", "194249.170000", "194249.177000", "194249.180000", "194249.183000", "194249.186000", "194249.189000", "194249.192000", "194249.195000", "194249.198000", "194249.201000", "194249.204000", "194249.207000", "194249.210000", "194249.213000", "194249.216000", "194249.219000", "194249.222000", "194249.225000", "194249.227000", "194249.230000", "194249.233000", "194249.236000", "194249.239000", "194249.242000", "194249.245000", "194249.248000", "194249.251000", "194249.254000", "194309.170000", "194309.173000", "194309.176000", "194309.179000", "194309.182000", "194309.185000", "194309.188000", "194309.191000", "194309.194000", "194309.197000", "194309.200000", "194309.203000", "194309.205000", "194309.208000", "194309.211000", "194309.214000", "194309.217000", "194309.220000", "194309.227000", "194309.230000", "194309.234000", "194309.236000", "194309.239000", "194309.242000", "194309.245000", "194309.248000", "194309.251000", "194329.171000", "194329.174000", "194329.177000", "194329.180000", "194329.183000", "194329.186000", "194329.189000", "194329.192000", "194329.195000", "194329.198000", "194329.201000", "194329.204000", "194329.207000", "194329.209000", "194329.212000", "194329.215000", "194329.218000", "194329.221000", "194329.225000", "194329.228000", "194333.652000", "194333.655000", "194333.658000", "194333.661000", "194333.664000"],
      "InstanceNumber": [1, 2, 3, 4, 5, 6, 7, 8, 9, 10, 11, 12, 13, 14, 15, 16, 17, 18, 19, 20, 21, 22, 23, 24, 25, 26, 27, 28, 29, 30, 31, 32, 33, 34, 35, 36, 37, 38, 39, 40, 41, 42, 43, 44, 45, 46, 47, 48, 49, 50, 51, 52, 53, 54, 55, 56, 57, 58, 59, 60, 61, 62, 63, 64, 65, 66, 67, 68, 69, 70, 71, 72, 73, 74, 75, 76, 77, 78, 79, 80, 81, 82, 83, 84, 85, 86, 87, 88, 89, 90, 91, 92, 93, 94, 95, 96, 97, 98, 99, 100, 101, 102, 103, 104, 105, 106, 107, 108, 109, 110, 111, 112, 113, 114, 115, 116, 117, 118, 119, 120, 121, 122, 123, 124, 125, 126, 127, 128, 129, 130, 131, 132, 133, 134, 135, 136, 137, 138, 139, 140, 141, 142, 143, 144, 145, 146, 147, 148, 149, 150, 151, 152, 153, 154, 155, 156, 157, 158, 159, 160, 161, 162, 163, 164, 165, 166, 167, 168, 169, 170, 171, 172, 173, 174, 175, 176, 177, 178, 179, 180, 181, 182, 183, 184, 185, 186, 187, 188, 189, 190, 191, 192],
      "LargestImagePixelValue": [33549, 32645, 31219, 32370, 30893, 30416, 31677, 30385, 30707, 30653, 31125, 31128, 30943, 31373, 31186, 31298, 30327, 31581, 32415, 31798, 31331, 30984, 31441, 30699, 31077, 30491, 31261, 31040, 31546, 31087, 31616, 30722, 30828, 31003, 31994, 31139, 31018, 30730, 31263, 30627, 31297, 31162, 32542, 32063, 31493, 31266, 31983, 31142, 30959, 31714, 31736, 31438, 31485, 32188, 31246, 31449, 31314, 31454, 31149, 30336, 32302, 30795, 30761, 31425, 30973, 31009, 30915, 31550, 31150, 31378, 31360, 31703, 32306, 31763, 31701, 32856, 31921, 32372, 32713, 32401, 32099, 31819, 32343, 31736, 32120, 31996, 32586, 31774, 31753, 32323, 32497, 32444, 31908, 32752, 32012, 32541, 32573, 33432, 32555, 32381, 32506, 32126, 32167, 32040, 33365, 32150, 32147, 32879, 33173, 32254, 32684, 32861, 32219, 32084, 32266, 32540, 31748, 31829, 32184, 31953, 31977, 32169, 32757, 32437, 32311, 32992, 32807, 32169, 32519, 32602, 33879, 32798, 32644, 33512, 32720, 32244, 32535, 32891, 32288, 32302, 32413, 33184, 32229, 32401, 32647, 33526, 33157, 33108, 33366, 33054, 32999, 32918, 33466, 33272, 33318, 33152, 33198, 33003, 33192, 33112, 32970, 33358, 33352, 33616, 33819, 33811, 33614, 33702, 33215, 33816, 33192, 33036, 33216, 33013, 33518, 33595, 33152, 33308, 33049, 33172, 33100, 33215, 33002, 33504, 33379, 33111, 33141, 33500, 32903, 33067, 33489, 33142],
      "WindowCenter": [9703.0, 9679.0, 9652.0, 9649.0, 9621.0, 9607.0, 9624.0, 9593.0, 9597.0, 9596.0, 9602.0, 9602.0, 9607.0, 9615.0, 9620.0, 9624.0, 9607.0, 9648.0, 9670.0, 9651.0, 9652.0, 9639.0, 9639.0, 9630.0, 9638.0, 9641.0, 9669.0, 9675.0, 9685.0, 9649.0, 9643.0, 9617.0, 9607.0, 9612.0, 9615.0, 9603.0, 9609.0, 9607.0, 9617.0, 9604.0, 9616.0, 9612.0, 9628.0, 9615.0, 9610.0, 9610.0, 9614.0, 9602.0, 9600.0, 9607.0, 9615.0, 9607.0, 9616.0, 9621.0, 9609.0, 9602.0, 9609.0, 9616.0, 9602.0, 9597.0, 9626.0, 9602.0, 9602.0, 9609.0, 9602.0, 9611.0, 9617.0, 9614.0, 9602.0, 9600.0, 9601.0, 9605.0, 9617.0, 9606.0, 9622.0, 9658.0, 9651.0, 9670.0, 9662.0, 9641.0, 9630.0, 9624.0, 9622.0, 9614.0, 9622.0, 9639.0, 9636.0, 9623.0, 9622.0, 9628.0, 9629.0, 9628.0, 9621.0, 9634.0, 9620.0, 9634.0, 9641.0, 9647.0, 9627.0, 9621.0, 9626.0, 9614.0, 9618.0, 9613.0, 9630.0, 9619.0, 9621.0, 9639.0, 9640.0, 9621.0, 9632.0, 9631.0, 9610.0, 9613.0, 9620.0, 9624.0, 9606.0, 9604.0, 9618.0, 9624.0, 9640.0, 9648.0, 9647.0, 9639.0, 9629.0, 9633.0, 9632.0, 9612.0, 9618.0, 9617.0, 9632.0, 9609.0, 9615.0, 9627.0, 9617.0, 9636.0, 9653.0, 9667.0, 9637.0, 9622.0, 9627.0, 9631.0, 9610.0, 9603.0, 9610.0, 9625.0, 9621.0, 9621.0, 9622.0, 9622.0, 9621.0, 9624.0, 9641.0, 9628.0, 9631.0, 9631.0, 9636.0, 9625.0, 9631.0, 9638.0, 9632.0, 9638.0, 9651.0, 9661.0, 9675.0, 9669.0, 9669.0, 9662.0, 9640.0, 9650.0, 9638.0, 9631.0, 9630.0, 9631.0, 9644.0, 9643.0, 9639.0, 9639.0, 9634.0, 9637.0, 9639.0, 9639.0, 9634.0, 9637.0, 9632.0, 9631.0, 9629.0, 9634.0, 9626.0, 9625.0, 9635.0, 9629.0],
      "WindowWidth": [20638.0, 20576.0, 20518.0, 20504.0, 20444.0, 20419.0, 20447.0, 20388.0, 20394.0, 20392.0, 20402.0, 20402.0, 20413.0, 20428.0, 20451.0, 20451.0, 20423.0, 20508.0, 20553.0, 20514.0, 20521.0, 20493.0, 20492.0, 20470.0, 20490.0, 20501.0, 20558.0, 20579.0, 20591.0, 20513.0, 20496.0, 20443.0, 20418.0, 20427.0, 20430.0, 20406.0, 20419.0, 20418.0, 20435.0, 20409.0, 20433.0, 20428.0, 20456.0, 20429.0, 20421.0, 20420.0, 20424.0, 20400.0, 20396.0, 20410.0, 20426.0, 20411.0, 20435.0, 20440.0, 20415.0, 20401.0, 20415.0, 20429.0, 20403.0, 20393.0, 20445.0, 20401.0, 20401.0, 20415.0, 20404.0, 20423.0, 20433.0, 20423.0, 20401.0, 20396.0, 20400.0, 20404.0, 20427.0, 20408.0, 20448.0, 20522.0, 20513.0, 20553.0, 20532.0, 20485.0, 20459.0, 20448.0, 20444.0, 20425.0, 20446.0, 20485.0, 20473.0, 20446.0, 20445.0, 20454.0, 20454.0, 20459.0, 20440.0, 20463.0, 20436.0, 20464.0, 20480.0, 20490.0, 20450.0, 20439.0, 20448.0, 20423.0, 20430.0, 20421.0, 20452.0, 20434.0, 20442.0, 20473.0, 20474.0, 20439.0, 20459.0, 20452.0, 20410.0, 20421.0, 20434.0, 20441.0, 20404.0, 20400.0, 20427.0, 20447.0, 20485.0, 20501.0, 20498.0, 20479.0, 20456.0, 20459.0, 20456.0, 20416.0, 20428.0, 20426.0, 20450.0, 20404.0, 20419.0, 20442.0, 20427.0, 20472.0, 20510.0, 20541.0, 20470.0, 20438.0, 20445.0, 20450.0, 20407.0, 20395.0, 20407.0, 20434.0, 20429.0, 20430.0, 20430.0, 20430.0, 20426.0, 20436.0, 20470.0, 20442.0, 20452.0, 20453.0, 20461.0, 20443.0, 20453.0, 20469.0, 20456.0, 20468.0, 20495.0, 20521.0, 20549.0, 20538.0, 20536.0, 20518.0, 20472.0, 20489.0, 20465.0, 20452.0, 20449.0, 20456.0, 20481.0, 20478.0, 20473.0, 20472.0, 20463.0, 20465.0, 20470.0, 20471.0, 20461.0, 20463.0, 20455.0, 20453.0, 20444.0, 20451.0, 20444.0, 20441.0, 20457.0, 20444.0]
    },
    "slices": {}
  },
  "NumberOfVolumes": 192
}