{
  "AcquisitionMatrixPE": 104,
  "AcquisitionNumber": 1,
  "AcquisitionTime": "19:24:23.455000",
  "BandwidthPerPixelPhaseEncode": 16.297,
  "BaseResolution": 104,
  "BodyPartExamined": "BRAIN",
  "ConsistencyInfo": "N4_VE11C_LATEST_20160120",
  "ConversionSoftware": "dcm2niix",
  "ConversionSoftwareVersion": "v1.0.20190902",
  "DerivedVendorReportedEchoSpacing": 0.000590009,
  "DeviceSerialNumber": "166018",
  "DwellTime": 2.1e-06,
  "EchoTime": 0.0376,
  "EchoTrainLength": 104,
  "EffectiveEchoSpacing": 0.000590009,
  "FlipAngle": 68,
  "ImageComments": "Unaliased_MB6_PE3_LB",
  "ImageOrientationPatientDICOM": [0.99982, -0.0125353, -0.0142533, 0.0111685, 0.995675, -0.0922301],
  "ImageType": [
    "ORIGINAL",
    "PRIMARY",
    "M",
    "MB",
    "ND",
    "MOSAIC"
],
  "ImagingFrequency": 123.197,
  "InPlanePhaseEncodingDirectionDICOM": "COL",
  "InstitutionAddress": "Washington_Place_6_NYC_NYC_US_10003",
  "InstitutionName": "NYU_-_CBI",
  "InstitutionalDepartmentName": "Department",
  "MRAcquisitionType": "2D",
  "MagneticFieldStrength": 3,
  "Manufacturer": "Siemens",
  "ManufacturersModelName": "Prisma",
  "Modality": "MR",
  "MultibandAccelerationFactor": 6,
  "PartialFourier": 1,
  "PatientPosition": "HFS",
  "PercentPhaseFOV": 100,
  "PhaseEncodingDirection": "j",
  "PhaseEncodingSteps": 104,
  "PhaseResolution": 1,
  "PixelBandwidth": 2290,
  "ProcedureStepDescription": "Investigators_Winawer",
  "ProtocolName": "cmrr_mbepi_s6_2mm_66sl_PA_task-prf",
  "PulseSequenceDetails": "%CustomerSeq%_cmrr_mbep2d_bold",
  "ReceiveCoilActiveElements": "HC1-7",
  "ReceiveCoilName": "HeadNeck_64",
  "ReconMatrixPE": 104,
  "RepetitionTime": 1,
  "SAR": 0.0646521,
  "ScanOptions": "FS",
  "ScanningSequence": "EP",
  "SequenceName": "epfid2d1_104",
  "SequenceVariant": "SK_SS",
  "SeriesDescription": "cmrr_mbepi_s6_2mm_66sl_PA_task-prf",
  "SeriesNumber": 12,
  "ShimSetting": [285, -12614, -8462, 344, 17, -70, 37, 72],
  "SliceThickness": 2,
  "SliceTiming": [0, 0.535, 0.09, 0.6225, 0.1775, 0.7125, 0.2675, 0.8025, 0.3575, 0.89, 0.445, 0, 0.535, 0.09, 0.6225, 0.1775, 0.7125, 0.2675, 0.8025, 0.3575, 0.89, 0.445, 0, 0.535, 0.09, 0.6225, 0.1775, 0.7125, 0.2675, 0.8025, 0.3575, 0.89, 0.445, 0, 0.535, 0.09, 0.6225, 0.1775, 0.7125, 0.2675, 0.8025, 0.3575, 0.89, 0.445, 0, 0.535, 0.09, 0.6225, 0.1775, 0.7125, 0.2675, 0.8025, 0.3575, 0.89, 0.445, 0, 0.535, 0.09, 0.6225, 0.1775, 0.7125, 0.2675, 0.8025, 0.3575, 0.89, 0.445],
  "SoftwareVersions": "syngo_MR_E11",
  "SpacingBetweenSlices": 2,
  "StationName": "AWP166018",
  "TaskName": "prf",
  "TotalReadoutTime": 0.060771,
  "TxRefAmp": 206.58,
  "VendorReportedEchoSpacing": 0.00059,
  "WipMemBlock": "e08fe50f-6a08-4b97-99c7-510ed046b681||Sequence: R016 ve11c/master r/8780670; Nov 27 2017 15:05:12 by eja",
  "dcmmeta_affine": [
    [-1.999639630317688, 0.022337082773447037, -0.0306955985724926, 104.43843841552734],
    [0.025070656090974808, 1.9913501739501953, -0.18410862982273102, -73.31676483154297],
    [-0.02850661799311638, 0.18446023762226105, 1.9912714958190918, -51.61579895019531],
    [0.0, 0.0, 0.0, 1.0]
],
  "dcmmeta_reorient_transform": [
    [0.0, -1.0, 0.0, 103.0],
    [1.0, 0.0, 0.0, 0.0],
    [0.0, 0.0, 1.0, 0.0],
    [0.0, 0.0, 0.0, 1.0]
],
  "dcmmeta_shape": [104, 104, 66, 192],
  "dcmmeta_slice_dim": 2,
  "dcmmeta_version": 0.6,
  "global": {
    "const": {
      "AccessionNumber": "L80dmaio",
      "AcquisitionMatrix": [104, 0, 0, 104],
      "AngioFlag": "N",
      "BitsAllocated": 16,
      "BitsStored": 16,
      "BodyPartExamined": "BRAIN",
      "Columns": 936,
      "EchoNumbers": 1,
      "EchoTime": 37.6,
      "EchoTrainLength": 104,
      "FlipAngle": 68.0,
      "HighBit": 15,
      "ImageOrientationPatient": [0.99981983813936, -0.0125353278327, -0.0142533090581, 0.01116854137735, 0.99567508229194, -0.0922301153986],
      "ImagePositionPatient": [-947.88148665289, -949.76457700428, 55.97781527806],
      "ImageType": [
        "ORIGINAL",
        "PRIMARY",
        "M",
        "MB",
        "ND",
        "MOSAIC"
],
      "ImagedNucleus": "1H",
      "ImagingFrequency": 123.196836,
      "InPlanePhaseEncodingDirection": "COL",
      "MRAcquisitionType": "2D",
      "MagneticFieldStrength": 3.0,
      "Manufacturer": "SIEMENS",
      "ManufacturerModelName": "Prisma",
      "Modality": "MR",
      "NumberOfAverages": 1.0,
      "NumberOfPhaseEncodingSteps": 104,
      "PercentPhaseFieldOfView": 100.0,
      "PercentSampling": 100.0,
      "PerformedProcedureStepStartTime": "184723.689000",
      "PhotometricInterpretation": "MONOCHROME2",
      "PixelBandwidth": 2290.0,
      "PixelRepresentation": 0,
      "PixelSpacing": [2.0, 2.0],
      "ProtocolName": "cmrr_mbepi_s6_2mm_66sl_PA_task-prf",
      "RepetitionTime": 1000.0,
      "Rows": 936,
      "SAR": 0.06465207866915,
      "SamplesPerPixel": 1,
      "ScanOptions": "FS",
      "ScanningSequence": "EP",
      "SequenceName": "epfid2d1_104",
      "SequenceVariant": [
        "SK",
        "SS"
],
      "SeriesDescription": "cmrr_mbepi_s6_2mm_66sl_PA_task-prf",
      "SeriesNumber": 12,
      "SeriesTime": "192549.351000",
      "SliceLocation": -46.244306719308,
      "SliceThickness": 2.0,
      "SmallestImagePixelValue": 0,
      "SoftwareVersions": "syngo MR E11",
      "SpacingBetweenSlices": 2.0000000420824,
      "SpecificCharacterSet": "ISO_IR 100",
      "StudyID": "1",
      "StudyTime": "184723.598000",
      "TransmitCoilName": "Body",
      "VariableFlipAngleFlag": "N",
      "WindowCenterWidthExplanation": "Algo1",
      "dBdt": 0.0},
    "slices": {}
  },
  "time": {
    "samples": {
      "AcquisitionNumber": [1, 2, 3, 4, 5, 6, 7, 8, 9, 10, 11, 12, 13, 14, 15, 16, 17, 18, 19, 20, 21, 22, 23, 24, 25, 26, 27, 28, 29, 30, 31, 32, 33, 34, 35, 36, 37, 38, 39, 40, 41, 42, 43, 44, 45, 46, 47, 48, 49, 50, 51, 52, 53, 54, 55, 56, 57, 58, 59, 60, 61, 62, 63, 64, 65, 66, 67, 68, 69, 70, 71, 72, 73, 74, 75, 76, 77, 78, 79, 80, 81, 82, 83, 84, 85, 86, 87, 88, 89, 90, 91, 92, 93, 94, 95, 96, 97, 98, 99, 100, 101, 102, 103, 104, 105, 106, 107, 108, 109, 110, 111, 112, 113, 114, 115, 116, 117, 118, 119, 120, 121, 122, 123, 124, 125, 126, 127, 128, 129, 130, 131, 132, 133, 134, 135, 136, 137, 138, 139, 140, 141, 142, 143, 144, 145, 146, 147, 148, 149, 150, 151, 152, 153, 154, 155, 156, 157, 158, 159, 160, 161, 162, 163, 164, 165, 166, 167, 168, 169, 170, 171, 172, 173, 174, 175, 176, 177, 178, 179, 180, 181, 182, 183, 184, 185, 186, 187, 188, 189, 190, 191, 192],
      "AcquisitionTime": ["192423.455000", "192424.455000", "192425.455000", "192426.455000", "192427.455000", "192428.455000", "192429.455000", "192430.455000", "192431.455000", "192432.455000", "192433.455000", "192434.455000", "192435.455000", "192436.455000", "192437.455000", "192438.455000", "192439.455000", "192440.455000", "192441.455000", "192442.455000", "192443.455000", "192444.455000", "192445.455000", "192446.455000", "192447.455000", "192448.455000", "192449.455000", "192450.455000", "192451.455000", "192452.455000", "192453.455000", "192454.455000", "192455.455000", "192456.455000", "192457.455000", "192458.455000", "192459.455000", "192500.455000", "192501.455000", "192502.455000", "192503.455000", "192504.455000", "192505.455000", "192506.455000", "192507.455000", "192508.455000", "192509.455000", "192510.455000", "192511.455000", "192512.455000", "192513.455000", "192514.455000", "192515.455000", "192516.455000", "192517.455000", "192518.455000", "192519.455000", "192520.455000", "192521.455000", "192522.455000", "192523.455000", "192524.455000", "192525.455000", "192526.455000", "192527.455000", "192528.455000", "192529.455000", "192530.455000", "192531.455000", "192532.455000", "192533.455000", "192534.455000", "192535.455000", "192536.455000", "192537.455000", "192538.455000", "192539.455000", "192540.455000", "192541.455000", "192542.455000", "192543.455000", "192544.455000", "192545.455000", "192546.455000", "192547.455000", "192548.455000", "192549.455000", "192550.455000", "192551.455000", "192552.455000", "192553.455000", "192554.455000", "192555.455000", "192556.455000", "192557.455000", "192558.455000", "192559.455000", "192600.455000", "192601.455000", "192602.455000", "192603.455000", "192604.455000", "192605.455000", "192606.455000", "192607.455000", "192608.455000", "192609.455000", "192610.455000", "192611.455000", "192612.455000", "192613.455000", "192614.455000", "192615.455000", "192616.455000", "192617.455000", "192618.455000", "192619.455000", "192620.455000", "192621.455000", "192622.455000", "192623.455000", "192624.455000", "192625.455000", "192626.455000", "192627.455000", "192628.455000", "192629.455000", "192630.455000", "192631.455000", "192632.455000", "192633.455000", "192634.455000", "192635.455000", "192636.455000", "192637.455000", "192638.455000", "192639.455000", "192640.455000", "192641.455000", "192642.455000", "192643.455000", "192644.455000", "192645.455000", "192646.455000", "192647.455000", "192648.455000", "192649.455000", "192650.455000", "192651.455000", "192652.455000", "192653.455000", "192654.455000", "192655.455000", "192656.455000", "192657.455000", "192658.455000", "192659.455000", "192700.455000", "192701.455000", "192702.455000", "192703.455000", "192704.455000", "192705.455000", "192706.455000", "192707.455000", "192708.455000", "192709.455000", "192710.455000", "192711.455000", "192712.455000", "192713.455000", "192714.455000", "192715.455000", "192716.455000", "192717.455000", "192718.455000", "192719.455000", "192720.455000", "192721.455000", "192722.455000", "192723.455000", "192724.455000", "192725.455000", "192726.455000", "192727.455000", "192728.455000", "192729.455000", "192730.455000", "192731.455000", "192732.455000", "192733.455000", "192734.455000"],
      "ContentTime": ["192549.353000", "192549.357000", "192549.360000", "192549.363000", "192549.372000", "192549.375000", "192549.378000", "192549.381000", "192549.384000", "192549.387000", "192549.390000", "192549.393000", "192549.396000", "192549.399000", "192549.401000", "192549.404000", "192549.407000", "192549.410000", "192549.413000", "192549.416000", "192549.419000", "192549.422000", "192549.425000", "192549.428000", "192549.431000", "192549.434000", "192549.437000", "192549.440000", "192549.443000", "192549.448000", "192549.452000", "192549.455000", "192549.458000", "192549.461000", "192549.464000", "192549.467000", "192549.470000", "192549.473000", "192549.476000", "192549.479000", "192549.482000", "192549.485000", "192549.487000", "192549.490000", "192609.317000", "192609.320000", "192609.323000", "192609.326000", "192609.329000", "192609.331000", "192609.334000", "192609.337000", "192609.340000", "192609.345000", "192609.348000", "192609.351000", "192609.354000", "192609.357000", "192609.360000", "192609.363000", "192609.366000", "192609.369000", "192609.372000", "192609.375000", "192609.378000", "192609.381000", "192609.383000", "192609.386000", "192609.389000", "192609.392000", "192609.395000", "192609.398000", "192609.401000", "192629.317000", "192629.320000", "192629.323000", "192629.326000", "192629.329000", "192629.332000", "192629.334000", "192629.337000", "192629.340000", "192629.343000", "192629.346000", "192629.349000", "192629.352000", "192629.355000", "192629.358000", "192629.361000", "192629.364000", "192629.367000", "192629.370000", "192629.373000", "192629.376000", "192629.378000", "192629.381000", "192629.384000", "192629.387000", "192629.390000", "192629.393000", "192629.396000", "192649.317000", "192649.320000", "192649.323000", "192649.326000", "192649.329000", "192649.332000", "192649.334000", "192649.337000", "192649.340000", "192649.343000", "192649.346000", "192649.349000", "192649.352000", "192649.355000", "192649.358000", "192649.361000", "192649.364000", "192649.367000", "192649.370000", "192649.372000", "192649.375000", "192649.378000", "192649.381000", "192649.384000", "192649.399000", "192649.402000", "192649.405000", "192649.407000", "192709.318000", "192709.321000", "192709.324000", "192709.327000", "192709.330000", "192709.333000", "192709.336000", "192709.339000", "192709.342000", "192709.344000", "192709.347000", "192709.350000", "192709.353000", "192709.356000", "192709.359000", "192709.362000", "192709.365000", "192709.368000", "192709.371000", "192709.374000", "192709.377000", "192709.380000", "192709.383000", "192709.386000", "192709.389000", "192709.392000", "192709.394000", "192709.397000", "192709.400000", "192729.318000", "192729.321000", "192729.324000", "192729.327000", "192729.330000", "192729.333000", "192729.336000", "192729.339000", "192729.342000", "192729.344000", "192729.347000", "192729.351000", "192729.354000", "192729.357000", "192729.360000", "192729.363000", "192729.366000", "192729.368000", "192729.371000", "192729.374000", "192729.377000", "192729.380000", "192729.383000", "192729.386000", "192729.389000", "192729.392000", "192729.395000", "192735.985000", "192735.988000", "192735.992000", "192735.995000", "192735.997000", "192736.000000", "192736.003000"],
      "InstanceCreationTime": ["192549.353000", "192549.357000", "192549.360000", "192549.363000", "192549.372000", "192549.375000", "192549.378000", "192549.381000", "192549.384000", "192549.387000", "192549.390000", "192549.393000", "192549.396000", "192549.399000", "192549.401000", "192549.404000", "192549.407000", "192549.410000", "192549.413000", "192549.416000", "192549.419000", "192549.422000", "192549.425000", "192549.428000", "192549.431000", "192549.434000", "192549.437000", "192549.440000", "192549.443000", "192549.448000", "192549.452000", "192549.455000", "192549.458000", "192549.461000", "192549.464000", "192549.467000", "192549.470000", "192549.473000", "192549.476000", "192549.479000", "192549.482000", "192549.485000", "192549.487000", "192549.490000", "192609.317000", "192609.320000", "192609.323000", "192609.326000", "192609.329000", "192609.331000", "192609.334000", "192609.337000", "192609.340000", "192609.345000", "192609.348000", "192609.351000", "192609.354000", "192609.357000", "192609.360000", "192609.363000", "192609.366000", "192609.369000", "192609.372000", "192609.375000", "192609.378000", "192609.381000", "192609.383000", "192609.386000", "192609.389000", "192609.392000", "192609.395000", "192609.398000", "192609.401000", "192629.317000", "192629.320000", "192629.323000", "192629.326000", "192629.329000", "192629.332000", "192629.334000", "192629.337000", "192629.340000", "192629.343000", "192629.346000", "192629.349000", "192629.352000", "192629.355000", "192629.358000", "192629.361000", "192629.364000", "192629.367000", "192629.370000", "192629.373000", "192629.376000", "192629.378000", "192629.381000", "192629.384000", "192629.387000", "192629.390000", "192629.393000", "192629.396000", "192649.317000", "192649.320000", "192649.323000", "192649.326000", "192649.329000", "192649.332000", "192649.334000", "192649.337000", "192649.340000", "192649.343000", "192649.346000", "192649.349000", "192649.352000", "192649.355000", "192649.358000", "192649.361000", "192649.364000", "192649.367000", "192649.370000", "192649.372000", "192649.375000", "192649.378000", "192649.381000", "192649.384000", "192649.399000", "192649.402000", "192649.405000", "192649.407000", "192709.318000", "192709.321000", "192709.324000", "192709.327000", "192709.330000", "192709.333000", "192709.336000", "192709.339000", "192709.342000", "192709.344000", "192709.347000", "192709.350000", "192709.353000", "192709.356000", "192709.359000", "192709.362000", "192709.365000", "192709.368000", "192709.371000", "192709.374000", "192709.377000", "192709.380000", "192709.383000", "192709.386000", "192709.389000", "192709.392000", "192709.394000", "192709.397000", "192709.400000", "192729.318000", "192729.321000", "192729.324000", "192729.327000", "192729.330000", "192729.333000", "192729.336000", "192729.339000", "192729.342000", "192729.344000", "192729.347000", "192729.351000", "192729.354000", "192729.357000", "192729.360000", "192729.363000", "192729.366000", "192729.368000", "192729.371000", "192729.374000", "192729.377000", "192729.380000", "192729.383000", "192729.386000", "192729.389000", "192729.392000", "192729.395000", "192735.985000", "192735.988000", "192735.992000", "192735.995000", "192735.997000", "192736.000000", "192736.003000"],
      "InstanceNumber": [1, 2, 3, 4, 5, 6, 7, 8, 9, 10, 11, 12, 13, 14, 15, 16, 17, 18, 19, 20, 21, 22, 23, 24, 25, 26, 27, 28, 29, 30, 31, 32, 33, 34, 35, 36, 37, 38, 39, 40, 41, 42, 43, 44, 45, 46, 47, 48, 49, 50, 51, 52, 53, 54, 55, 56, 57, 58, 59, 60, 61, 62, 63, 64, 65, 66, 67, 68, 69, 70, 71, 72, 73, 74, 75, 76, 77, 78, 79, 80, 81, 82, 83, 84, 85, 86, 87, 88, 89, 90, 91, 92, 93, 94, 95, 96, 97, 98, 99, 100, 101, 102, 103, 104, 105, 106, 107, 108, 109, 110, 111, 112, 113, 114, 115, 116, 117, 118, 119, 120, 121, 122, 123, 124, 125, 126, 127, 128, 129, 130, 131, 132, 133, 134, 135, 136, 137, 138, 139, 140, 141, 142, 143, 144, 145, 146, 147, 148, 149, 150, 151, 152, 153, 154, 155, 156, 157, 158, 159, 160, 161, 162, 163, 164, 165, 166, 167, 168, 169, 170, 171, 172, 173, 174, 175, 176, 177, 178, 179, 180, 181, 182, 183, 184, 185, 186, 187, 188, 189, 190, 191, 192],
      "LargestImagePixelValue": [32620, 31489, 31480, 31266, 31299, 31103, 30814, 30629, 30826, 30961, 30491, 30923, 30810, 30824, 30804, 30519, 29927, 30934, 31500, 30925, 31460, 31223, 31494, 30826, 30880, 31211, 31417, 30971, 31110, 31345, 31166, 30833, 31138, 30694, 31207, 31602, 31050, 30752, 31170, 31635, 31135, 30873, 30656, 31620, 31323, 30950, 30566, 30756, 31284, 30730, 30471, 31466, 31656, 30547, 30748, 31643, 31475, 30636, 30924, 31337, 31100, 30317, 31624, 31246, 31023, 30572, 31182, 31652, 30487, 30631, 30920, 30947, 31358, 31005, 30659, 31259, 31637, 31175, 31355, 30889, 32182, 31826, 31294, 31483, 31845, 31576, 31376, 31297, 31860, 31409, 30828, 31153, 31596, 31152, 30773, 31324, 31364, 31050, 31084, 31001, 31498, 30729, 31315, 31557, 31446, 30891, 30659, 31498, 31121, 30866, 31181, 31071, 31181, 30827, 30638, 31277, 31156, 30618, 30690, 31329, 30915, 30693, 30770, 30730, 31750, 31599, 31749, 31667, 31299, 31056, 30847, 31516, 31353, 31161, 30306, 31211, 31329, 30476, 30196, 31194, 31179, 31033, 30750, 31400, 31496, 30755, 30740, 30677, 31866, 30995, 30876, 30919, 32163, 31508, 30534, 30869, 31248, 30770, 30922, 30866, 31233, 31032, 31694, 31455, 30913, 31393, 30935, 30843, 30690, 31460, 31346, 31048, 30697, 31422, 31446, 30824, 31218, 32052, 31649, 31454, 30860, 31575, 31762, 31818, 30785, 30715, 31441, 32226, 30879, 30704, 31610, 32143],
      "WindowCenter": [9637.0, 9603.0, 9594.0, 9583.0, 9591.0, 9592.0, 9579.0, 9577.0, 9577.0, 9583.0, 9581.0, 9601.0, 9595.0, 9603.0, 9605.0, 9605.0, 9599.0, 9615.0, 9650.0, 9636.0, 9636.0, 9628.0, 9633.0, 9615.0, 9614.0, 9610.0, 9617.0, 9604.0, 9601.0, 9597.0, 9593.0, 9593.0, 9591.0, 9578.0, 9588.0, 9596.0, 9586.0, 9579.0, 9582.0, 9611.0, 9602.0, 9596.0, 9595.0, 9605.0, 9599.0, 9593.0, 9581.0, 9577.0, 9590.0, 9586.0, 9580.0, 9600.0, 9612.0, 9599.0, 9607.0, 9616.0, 9610.0, 9605.0, 9595.0, 9602.0, 9596.0, 9581.0, 9590.0, 9583.0, 9583.0, 9580.0, 9582.0, 9596.0, 9588.0, 9587.0, 9589.0, 9588.0, 9589.0, 9582.0, 9586.0, 9596.0, 9619.0, 9618.0, 9617.0, 9597.0, 9618.0, 9607.0, 9600.0, 9599.0, 9609.0, 9611.0, 9609.0, 9608.0, 9613.0, 9607.0, 9596.0, 9585.0, 9595.0, 9592.0, 9595.0, 9598.0, 9607.0, 9603.0, 9604.0, 9601.0, 9607.0, 9596.0, 9600.0, 9605.0, 9605.0, 9594.0, 9588.0, 9599.0, 9601.0, 9597.0, 9597.0, 9601.0, 9601.0, 9596.0, 9595.0, 9598.0, 9600.0, 9596.0, 9585.0, 9598.0, 9599.0, 9595.0, 9594.0, 9589.0, 9614.0, 9630.0, 9634.0, 9632.0, 9627.0, 9622.0, 9617.0, 9626.0, 9624.0, 9618.0, 9594.0, 9606.0, 9606.0, 9589.0, 9582.0, 9591.0, 9601.0, 9609.0, 9606.0, 9609.0, 9616.0, 9608.0, 9604.0, 9597.0, 9613.0, 9604.0, 9598.0, 9594.0, 9615.0, 9606.0, 9592.0, 9595.0, 9615.0, 9605.0, 9618.0, 9612.0, 9633.0, 9638.0, 9643.0, 9636.0, 9628.0, 9633.0, 9623.0, 9618.0, 9607.0, 9613.0, 9620.0, 9605.0, 9590.0, 9602.0, 9616.0, 9614.0, 9620.0, 9637.0, 9626.0, 9612.0, 9581.0, 9601.0, 9605.0, 9598.0, 9578.0, 9585.0, 9599.0, 9627.0, 9615.0, 9615.0, 9627.0, 9626.0],
      "WindowWidth": [20480.0, 20405.0, 20380.0, 20353.0, 20370.0, 20373.0, 20347.0, 20340.0, 20340.0, 20354.0, 20357.0, 20396.0, 20382.0, 20401.0, 20405.0, 20407.0, 20395.0, 20424.0, 20506.0, 20476.0, 20474.0, 20456.0, 20467.0, 20433.0, 20428.0, 20416.0, 20429.0, 20402.0, 20392.0, 20379.0, 20375.0, 20375.0, 20371.0, 20344.0, 20359.0, 20377.0, 20361.0, 20346.0, 20348.0, 20412.0, 20398.0, 20385.0, 20381.0, 20397.0, 20386.0, 20375.0, 20351.0, 20338.0, 20366.0, 20362.0, 20351.0, 20389.0, 20414.0, 20395.0, 20413.0, 20424.0, 20411.0, 20404.0, 20380.0, 20395.0, 20382.0, 20353.0, 20363.0, 20350.0, 20353.0, 20348.0, 20350.0, 20378.0, 20367.0, 20364.0, 20362.0, 20361.0, 20362.0, 20350.0, 20361.0, 20380.0, 20431.0, 20433.0, 20428.0, 20385.0, 20422.0, 20403.0, 20391.0, 20386.0, 20402.0, 20410.0, 20411.0, 20406.0, 20413.0, 20403.0, 20382.0, 20354.0, 20372.0, 20370.0, 20380.0, 20382.0, 20403.0, 20399.0, 20400.0, 20391.0, 20402.0, 20383.0, 20387.0, 20397.0, 20395.0, 20378.0, 20364.0, 20384.0, 20390.0, 20385.0, 20383.0, 20389.0, 20392.0, 20383.0, 20378.0, 20381.0, 20388.0, 20382.0, 20355.0, 20383.0, 20387.0, 20381.0, 20380.0, 20369.0, 20419.0, 20455.0, 20467.0, 20460.0, 20451.0, 20443.0, 20433.0, 20446.0, 20443.0, 20430.0, 20381.0, 20396.0, 20397.0, 20368.0, 20355.0, 20365.0, 20391.0, 20410.0, 20408.0, 20410.0, 20424.0, 20412.0, 20401.0, 20385.0, 20415.0, 20400.0, 20389.0, 20377.0, 20415.0, 20403.0, 20380.0, 20382.0, 20423.0, 20408.0, 20434.0, 20420.0, 20467.0, 20483.0, 20489.0, 20473.0, 20455.0, 20465.0, 20447.0, 20438.0, 20410.0, 20422.0, 20442.0, 20409.0, 20371.0, 20396.0, 20427.0, 20429.0, 20436.0, 20467.0, 20447.0, 20416.0, 20348.0, 20392.0, 20415.0, 20390.0, 20341.0, 20357.0, 20386.0, 20443.0, 20429.0, 20428.0, 20451.0, 20445.0]
    },
    "slices": {}
  },
  "NumberOfVolumes": 192
}