{
  "AcquisitionMatrixPE": 104,
  "AcquisitionNumber": 1,
  "AcquisitionTime": "19:48:59.517500",
  "BandwidthPerPixelPhaseEncode": 16.297,
  "BaseResolution": 104,
  "BodyPartExamined": "BRAIN",
  "ConsistencyInfo": "N4_VE11C_LATEST_20160120",
  "ConversionSoftware": "dcm2niix",
  "ConversionSoftwareVersion": "v1.0.20190902",
  "DerivedVendorReportedEchoSpacing": 0.000590009,
  "DeviceSerialNumber": "166018",
  "DwellTime": 2.1e-06,
  "EchoTime": 0.0376,
  "EchoTrainLength": 104,
  "EffectiveEchoSpacing": 0.000590009,
  "FlipAngle": 68,
  "ImageComments": "Unaliased_MB6_PE3_LB",
  "ImageOrientationPatientDICOM": [0.99982, -0.0125353, -0.0142533, 0.0111685, 0.995675, -0.0922301],
  "ImageType": [
    "ORIGINAL",
    "PRIMARY",
    "M",
    "MB",
    "ND",
    "MOSAIC"
],
  "ImagingFrequency": 123.197,
  "InPlanePhaseEncodingDirectionDICOM": "COL",
  "InstitutionAddress": "Washington_Place_6_NYC_NYC_US_10003",
  "InstitutionName": "NYU_-_CBI",
  "InstitutionalDepartmentName": "Department",
  "MRAcquisitionType": "2D",
  "MagneticFieldStrength": 3,
  "Manufacturer": "Siemens",
  "ManufacturersModelName": "Prisma",
  "Modality": "MR",
  "MultibandAccelerationFactor": 6,
  "PartialFourier": 1,
  "PatientPosition": "HFS",
  "PercentPhaseFOV": 100,
  "PhaseEncodingDirection": "j",
  "PhaseEncodingSteps": 104,
  "PhaseResolution": 1,
  "PixelBandwidth": 2290,
  "ProcedureStepDescription": "Investigators_Winawer",
  "ProtocolName": "cmrr_mbepi_s6_2mm_66sl_PA_task-prf",
  "PulseSequenceDetails": "%CustomerSeq%_cmrr_mbep2d_bold",
  "ReceiveCoilActiveElements": "HC1-7",
  "ReceiveCoilName": "HeadNeck_64",
  "ReconMatrixPE": 104,
  "RepetitionTime": 1,
  "SAR": 0.0646521,
  "ScanOptions": "FS",
  "ScanningSequence": "EP",
  "SequenceName": "epfid2d1_104",
  "SequenceVariant": "SK_SS",
  "SeriesDescription": "cmrr_mbepi_s6_2mm_66sl_PA_task-prf",
  "SeriesNumber": 24,
  "ShimSetting": [285, -12614, -8462, 344, 17, -70, 37, 72],
  "SliceThickness": 2,
  "SliceTiming": [0, 0.535, 0.09, 0.625, 0.1775, 0.7125, 0.2675, 0.8025, 0.3575, 0.8925, 0.445, 0, 0.535, 0.09, 0.625, 0.1775, 0.7125, 0.2675, 0.8025, 0.3575, 0.8925, 0.445, 0, 0.535, 0.09, 0.625, 0.1775, 0.7125, 0.2675, 0.8025, 0.3575, 0.8925, 0.445, 0, 0.535, 0.09, 0.625, 0.1775, 0.7125, 0.2675, 0.8025, 0.3575, 0.8925, 0.445, 0, 0.535, 0.09, 0.625, 0.1775, 0.7125, 0.2675, 0.8025, 0.3575, 0.8925, 0.445, 0, 0.535, 0.09, 0.625, 0.1775, 0.7125, 0.2675, 0.8025, 0.3575, 0.8925, 0.445],
  "SoftwareVersions": "syngo_MR_E11",
  "SpacingBetweenSlices": 2,
  "StationName": "AWP166018",
  "TaskName": "prf",
  "TotalReadoutTime": 0.060771,
  "TxRefAmp": 206.58,
  "VendorReportedEchoSpacing": 0.00059,
  "WipMemBlock": "e08fe50f-6a08-4b97-99c7-510ed046b681||Sequence: R016 ve11c/master r/8780670; Nov 27 2017 15:05:12 by eja",
  "dcmmeta_affine": [
    [-1.999639630317688, 0.022337082773447037, -0.0306955985724926, 104.43843841552734],
    [0.025070656090974808, 1.9913501739501953, -0.18410862982273102, -73.31676483154297],
    [-0.02850661799311638, 0.18446023762226105, 1.9912714958190918, -51.61579895019531],
    [0.0, 0.0, 0.0, 1.0]
],
  "dcmmeta_reorient_transform": [
    [0.0, -1.0, 0.0, 103.0],
    [1.0, 0.0, 0.0, 0.0],
    [0.0, 0.0, 1.0, 0.0],
    [0.0, 0.0, 0.0, 1.0]
],
  "dcmmeta_shape": [104, 104, 66, 192],
  "dcmmeta_slice_dim": 2,
  "dcmmeta_version": 0.6,
  "global": {
    "const": {
      "AccessionNumber": "L80dmaio",
      "AcquisitionMatrix": [104, 0, 0, 104],
      "AngioFlag": "N",
      "BitsAllocated": 16,
      "BitsStored": 16,
      "BodyPartExamined": "BRAIN",
      "Columns": 936,
      "EchoNumbers": 1,
      "EchoTime": 37.6,
      "EchoTrainLength": 104,
      "FlipAngle": 68.0,
      "HighBit": 15,
      "ImageOrientationPatient": [0.99981983813936, -0.0125353278327, -0.0142533090581, 0.01116854137735, 0.99567508229194, -0.0922301153986],
      "ImagePositionPatient": [-947.88148665289, -949.76457700428, 55.97781527806],
      "ImageType": [
        "ORIGINAL",
        "PRIMARY",
        "M",
        "MB",
        "ND",
        "MOSAIC"
],
      "ImagedNucleus": "1H",
      "ImagingFrequency": 123.196836,
      "InPlanePhaseEncodingDirection": "COL",
      "MRAcquisitionType": "2D",
      "MagneticFieldStrength": 3.0,
      "Manufacturer": "SIEMENS",
      "ManufacturerModelName": "Prisma",
      "Modality": "MR",
      "NumberOfAverages": 1.0,
      "NumberOfPhaseEncodingSteps": 104,
      "PercentPhaseFieldOfView": 100.0,
      "PercentSampling": 100.0,
      "PerformedProcedureStepStartTime": "184723.689000",
      "PhotometricInterpretation": "MONOCHROME2",
      "PixelBandwidth": 2290.0,
      "PixelRepresentation": 0,
      "PixelSpacing": [2.0, 2.0],
      "ProtocolName": "cmrr_mbepi_s6_2mm_66sl_PA_task-prf",
      "RepetitionTime": 1000.0,
      "Rows": 936,
      "SAR": 0.06465207866915,
      "SamplesPerPixel": 1,
      "ScanOptions": "FS",
      "ScanningSequence": "EP",
      "SequenceName": "epfid2d1_104",
      "SequenceVariant": [
        "SK",
        "SS"
],
      "SeriesDescription": "cmrr_mbepi_s6_2mm_66sl_PA_task-prf",
      "SeriesNumber": 24,
      "SeriesTime": "195009.343000",
      "SliceLocation": -46.244306719308,
      "SliceThickness": 2.0,
      "SmallestImagePixelValue": 0,
      "SoftwareVersions": "syngo MR E11",
      "SpacingBetweenSlices": 2.0000000420824,
      "SpecificCharacterSet": "ISO_IR 100",
      "StudyID": "1",
      "StudyTime": "184723.598000",
      "TransmitCoilName": "Body",
      "VariableFlipAngleFlag": "N",
      "WindowCenterWidthExplanation": "Algo1",
      "dBdt": 0.0},
    "slices": {}
  },
  "time": {
    "samples": {
      "AcquisitionNumber": [1, 2, 3, 4, 5, 6, 7, 8, 9, 10, 11, 12, 13, 14, 15, 16, 17, 18, 19, 20, 21, 22, 23, 24, 25, 26, 27, 28, 29, 30, 31, 32, 33, 34, 35, 36, 37, 38, 39, 40, 41, 42, 43, 44, 45, 46, 47, 48, 49, 50, 51, 52, 53, 54, 55, 56, 57, 58, 59, 60, 61, 62, 63, 64, 65, 66, 67, 68, 69, 70, 71, 72, 73, 74, 75, 76, 77, 78, 79, 80, 81, 82, 83, 84, 85, 86, 87, 88, 89, 90, 91, 92, 93, 94, 95, 96, 97, 98, 99, 100, 101, 102, 103, 104, 105, 106, 107, 108, 109, 110, 111, 112, 113, 114, 115, 116, 117, 118, 119, 120, 121, 122, 123, 124, 125, 126, 127, 128, 129, 130, 131, 132, 133, 134, 135, 136, 137, 138, 139, 140, 141, 142, 143, 144, 145, 146, 147, 148, 149, 150, 151, 152, 153, 154, 155, 156, 157, 158, 159, 160, 161, 162, 163, 164, 165, 166, 167, 168, 169, 170, 171, 172, 173, 174, 175, 176, 177, 178, 179, 180, 181, 182, 183, 184, 185, 186, 187, 188, 189, 190, 191, 192],
      "AcquisitionTime": ["194859.517500", "194900.517500", "194901.517500", "194902.517500", "194903.517500", "194904.517500", "194905.517500", "194906.517500", "194907.517500", "194908.517500", "194909.517500", "194910.517500", "194911.517500", "194912.517500", "194913.517500", "194914.517500", "194915.517500", "194916.517500", "194917.517500", "194918.517500", "194919.517500", "194920.517500", "194921.517500", "194922.517500", "194923.517500", "194924.517500", "194925.517500", "194926.517500", "194927.517500", "194928.517500", "194929.517500", "194930.517500", "194931.517500", "194932.517500", "194933.517500", "194934.517500", "194935.517500", "194936.517500", "194937.517500", "194938.517500", "194939.517500", "194940.517500", "194941.517500", "194942.517500", "194943.517500", "194944.517500", "194945.517500", "194946.517500", "194947.517500", "194948.517500", "194949.517500", "194950.517500", "194951.517500", "194952.517500", "194953.517500", "194954.517500", "194955.517500", "194956.517500", "194957.517500", "194958.517500", "194959.517500", "195000.517500", "195001.517500", "195002.517500", "195003.517500", "195004.517500", "195005.517500", "195006.517500", "195007.517500", "195008.517500", "195009.517500", "195010.517500", "195011.517500", "195012.517500", "195013.517500", "195014.517500", "195015.517500", "195016.517500", "195017.517500", "195018.517500", "195019.517500", "195020.517500", "195021.517500", "195022.517500", "195023.517500", "195024.517500", "195025.517500", "195026.517500", "195027.517500", "195028.517500", "195029.517500", "195030.517500", "195031.517500", "195032.517500", "195033.517500", "195034.517500", "195035.517500", "195036.517500", "195037.517500", "195038.517500", "195039.517500", "195040.517500", "195041.517500", "195042.517500", "195043.517500", "195044.517500", "195045.517500", "195046.517500", "195047.517500", "195048.517500", "195049.517500", "195050.517500", "195051.517500", "195052.517500", "195053.517500", "195054.517500", "195055.517500", "195056.517500", "195057.517500", "195058.517500", "195059.517500", "195100.517500", "195101.517500", "195102.517500", "195103.517500", "195104.517500", "195105.517500", "195106.517500", "195107.517500", "195108.517500", "195109.517500", "195110.517500", "195111.517500", "195112.517500", "195113.517500", "195114.517500", "195115.517500", "195116.517500", "195117.517500", "195118.517500", "195119.517500", "195120.517500", "195121.517500", "195122.517500", "195123.517500", "195124.517500", "195125.517500", "195126.517500", "195127.517500", "195128.517500", "195129.517500", "195130.517500", "195131.517500", "195132.517500", "195133.517500", "195134.517500", "195135.517500", "195136.517500", "195137.517500", "195138.517500", "195139.517500", "195140.517500", "195141.517500", "195142.517500", "195143.517500", "195144.517500", "195145.517500", "195146.517500", "195147.517500", "195148.517500", "195149.517500", "195150.517500", "195151.517500", "195152.517500", "195153.517500", "195154.517500", "195155.517500", "195156.517500", "195157.517500", "195158.517500", "195159.517500", "195200.517500", "195201.517500", "195202.517500", "195203.517500", "195204.517500", "195205.517500", "195206.517500", "195207.517500", "195208.517500", "195209.517500", "195210.517500"],
      "ContentTime": ["195009.346000", "195009.349000", "195009.352000", "195009.355000", "195009.358000", "195009.361000", "195009.364000", "195009.366000", "195009.369000", "195009.372000", "195009.375000", "195009.385000", "195009.388000", "195009.391000", "195009.394000", "195009.397000", "195009.400000", "195009.408000", "195009.411000", "195009.414000", "195009.417000", "195009.420000", "195009.422000", "195009.425000", "195009.428000", "195009.431000", "195009.434000", "195009.437000", "195009.440000", "195009.443000", "195029.318000", "195029.321000", "195029.324000", "195029.327000", "195029.330000", "195029.333000", "195029.350000", "195029.353000", "195029.355000", "195029.358000", "195029.361000", "195029.364000", "195029.367000", "195029.370000", "195029.373000", "195029.376000", "195029.379000", "195029.384000", "195029.387000", "195029.390000", "195029.393000", "195029.396000", "195029.399000", "195029.402000", "195029.405000", "195029.408000", "195029.411000", "195029.413000", "195049.318000", "195049.321000", "195049.324000", "195049.327000", "195049.330000", "195049.333000", "195049.336000", "195049.339000", "195049.342000", "195049.345000", "195049.347000", "195049.350000", "195049.353000", "195049.356000", "195049.359000", "195049.362000", "195049.365000", "195049.368000", "195049.371000", "195049.374000", "195049.377000", "195049.380000", "195049.382000", "195049.385000", "195049.389000", "195049.392000", "195049.395000", "195049.398000", "195109.317000", "195109.320000", "195109.323000", "195109.326000", "195109.329000", "195109.337000", "195109.340000", "195109.343000", "195109.346000", "195109.349000", "195109.352000", "195109.355000", "195109.358000", "195109.361000", "195109.364000", "195109.367000", "195109.370000", "195109.373000", "195109.376000", "195109.379000", "195109.382000", "195109.385000", "195109.388000", "195109.391000", "195109.394000", "195109.397000", "195109.400000", "195109.403000", "195129.317000", "195129.320000", "195129.323000", "195129.326000", "195129.329000", "195129.332000", "195129.335000", "195129.337000", "195129.340000", "195129.343000", "195129.346000", "195129.349000", "195129.352000", "195129.355000", "195129.358000", "195129.361000", "195129.364000", "195129.367000", "195129.370000", "195129.373000", "195129.376000", "195129.379000", "195129.382000", "195129.384000", "195129.387000", "195129.390000", "195129.393000", "195129.396000", "195129.399000", "195149.317000", "195149.320000", "195149.323000", "195149.326000", "195149.329000", "195149.332000", "195149.335000", "195149.338000", "195149.341000", "195149.344000", "195149.347000", "195149.350000", "195149.353000", "195149.355000", "195149.358000", "195149.361000", "195149.364000", "195149.367000", "195149.370000", "195149.373000", "195149.376000", "195149.379000", "195149.382000", "195149.385000", "195149.388000", "195149.391000", "195209.317000", "195209.320000", "195209.323000", "195209.326000", "195209.329000", "195209.332000", "195209.335000", "195209.338000", "195209.341000", "195209.344000", "195209.347000", "195209.350000", "195209.353000", "195209.356000", "195209.359000", "195209.362000", "195209.365000", "195209.368000", "195209.371000", "195209.373000", "195211.735000", "195211.739000", "195211.742000"],
      "InstanceCreationTime": ["195009.346000", "195009.349000", "195009.352000", "195009.355000", "195009.358000", "195009.361000", "195009.364000", "195009.366000", "195009.369000", "195009.372000", "195009.375000", "195009.385000", "195009.388000", "195009.391000", "195009.394000", "195009.397000", "195009.400000", "195009.408000", "195009.411000", "195009.414000", "195009.417000", "195009.420000", "195009.422000", "195009.425000", "195009.428000", "195009.431000", "195009.434000", "195009.437000", "195009.440000", "195009.443000", "195029.318000", "195029.321000", "195029.324000", "195029.327000", "195029.330000", "195029.333000", "195029.350000", "195029.353000", "195029.355000", "195029.358000", "195029.361000", "195029.364000", "195029.367000", "195029.370000", "195029.373000", "195029.376000", "195029.379000", "195029.384000", "195029.387000", "195029.390000", "195029.393000", "195029.396000", "195029.399000", "195029.402000", "195029.405000", "195029.408000", "195029.411000", "195029.413000", "195049.318000", "195049.321000", "195049.324000", "195049.327000", "195049.330000", "195049.333000", "195049.336000", "195049.339000", "195049.342000", "195049.345000", "195049.347000", "195049.350000", "195049.353000", "195049.356000", "195049.359000", "195049.362000", "195049.365000", "195049.368000", "195049.371000", "195049.374000", "195049.377000", "195049.380000", "195049.382000", "195049.385000", "195049.389000", "195049.392000", "195049.395000", "195049.398000", "195109.317000", "195109.320000", "195109.323000", "195109.326000", "195109.329000", "195109.337000", "195109.340000", "195109.343000", "195109.346000", "195109.349000", "195109.352000", "195109.355000", "195109.358000", "195109.361000", "195109.364000", "195109.367000", "195109.370000", "195109.373000", "195109.376000", "195109.379000", "195109.382000", "195109.385000", "195109.388000", "195109.391000", "195109.394000", "195109.397000", "195109.400000", "195109.403000", "195129.317000", "195129.320000", "195129.323000", "195129.326000", "195129.329000", "195129.332000", "195129.335000", "195129.337000", "195129.340000", "195129.343000", "195129.346000", "195129.349000", "195129.352000", "195129.355000", "195129.358000", "195129.361000", "195129.364000", "195129.367000", "195129.370000", "195129.373000", "195129.376000", "195129.379000", "195129.382000", "195129.384000", "195129.387000", "195129.390000", "195129.393000", "195129.396000", "195129.399000", "195149.317000", "195149.320000", "195149.323000", "195149.326000", "195149.329000", "195149.332000", "195149.335000", "195149.338000", "195149.341000", "195149.344000", "195149.347000", "195149.350000", "195149.353000", "195149.355000", "195149.358000", "195149.361000", "195149.364000", "195149.367000", "195149.370000", "195149.373000", "195149.376000", "195149.379000", "195149.382000", "195149.385000", "195149.388000", "195149.391000", "195209.317000", "195209.320000", "195209.323000", "195209.326000", "195209.329000", "195209.332000", "195209.335000", "195209.338000", "195209.341000", "195209.344000", "195209.347000", "195209.350000", "195209.353000", "195209.356000", "195209.359000", "195209.362000", "195209.365000", "195209.368000", "195209.371000", "195209.373000", "195211.735000", "195211.739000", "195211.742000"],
      "InstanceNumber": [1, 2, 3, 4, 5, 6, 7, 8, 9, 10, 11, 12, 13, 14, 15, 16, 17, 18, 19, 20, 21, 22, 23, 24, 25, 26, 27, 28, 29, 30, 31, 32, 33, 34, 35, 36, 37, 38, 39, 40, 41, 42, 43, 44, 45, 46, 47, 48, 49, 50, 51, 52, 53, 54, 55, 56, 57, 58, 59, 60, 61, 62, 63, 64, 65, 66, 67, 68, 69, 70, 71, 72, 73, 74, 75, 76, 77, 78, 79, 80, 81, 82, 83, 84, 85, 86, 87, 88, 89, 90, 91, 92, 93, 94, 95, 96, 97, 98, 99, 100, 101, 102, 103, 104, 105, 106, 107, 108, 109, 110, 111, 112, 113, 114, 115, 116, 117, 118, 119, 120, 121, 122, 123, 124, 125, 126, 127, 128, 129, 130, 131, 132, 133, 134, 135, 136, 137, 138, 139, 140, 141, 142, 143, 144, 145, 146, 147, 148, 149, 150, 151, 152, 153, 154, 155, 156, 157, 158, 159, 160, 161, 162, 163, 164, 165, 166, 167, 168, 169, 170, 171, 172, 173, 174, 175, 176, 177, 178, 179, 180, 181, 182, 183, 184, 185, 186, 187, 188, 189, 190, 191, 192],
      "LargestImagePixelValue": [34126, 33186, 32341, 31357, 32687, 33013, 34474, 36660, 34316, 33500, 33186, 33153, 33012, 32724, 31119, 32882, 33175, 33000, 32918, 31324, 32309, 32817, 32028, 31882, 32103, 33568, 33611, 33357, 34572, 34420, 34250, 33997, 34082, 34095, 33731, 32833, 34266, 33597, 33977, 33060, 33604, 33651, 33649, 33411, 33331, 33362, 33567, 33174, 33417, 33170, 33333, 33529, 33195, 33321, 33271, 33435, 33146, 33450, 33377, 33767, 32895, 32986, 33926, 33956, 33626, 32728, 33667, 33564, 33107, 31206, 33417, 33393, 33581, 32307, 33722, 33528, 32960, 31543, 33358, 33338, 33723, 35526, 33815, 34064, 34577, 34684, 34169, 33996, 34899, 34617, 35042, 34080, 34120, 34474, 34890, 34557, 34812, 35199, 36081, 35655, 34399, 34245, 35009, 34857, 34565, 33842, 35098, 34722, 35131, 33891, 33646, 34214, 34363, 34423, 32770, 34863, 34645, 34413, 33618, 33714, 34908, 34423, 34980, 33588, 34243, 34377, 34951, 33836, 33797, 34949, 34230, 33694, 33639, 34515, 34104, 33380, 33212, 34080, 34126, 33960, 33022, 33381, 34436, 34172, 33334, 33397, 34583, 34609, 33581, 33096, 33802, 33888, 33266, 33092, 33788, 34179, 33474, 33020, 33604, 33969, 33652, 33655, 32988, 33722, 34060, 33621, 33380, 34298, 33863, 32646, 33528, 33927, 33013, 33000, 33686, 33799, 33125, 33517, 33970, 34223, 33232, 33779, 34502, 34324, 33220, 34105, 33844, 32721, 33386, 34146, 33908, 34300],
      "WindowCenter": [9692.0, 9671.0, 9659.0, 9650.0, 9681.0, 9696.0, 9704.0, 9735.0, 9713.0, 9711.0, 9704.0, 9681.0, 9670.0, 9654.0, 9625.0, 9644.0, 9664.0, 9670.0, 9680.0, 9668.0, 9665.0, 9673.0, 9665.0, 9664.0, 9654.0, 9674.0, 9712.0, 9705.0, 9724.0, 9727.0, 9709.0, 9690.0, 9689.0, 9688.0, 9668.0, 9646.0, 9670.0, 9673.0, 9674.0, 9669.0, 9675.0, 9674.0, 9674.0, 9660.0, 9650.0, 9643.0, 9648.0, 9636.0, 9633.0, 9633.0, 9641.0, 9639.0, 9634.0, 9640.0, 9650.0, 9651.0, 9650.0, 9648.0, 9660.0, 9665.0, 9647.0, 9651.0, 9662.0, 9676.0, 9671.0, 9660.0, 9666.0, 9673.0, 9659.0, 9628.0, 9656.0, 9657.0, 9657.0, 9638.0, 9654.0, 9663.0, 9645.0, 9620.0, 9648.0, 9656.0, 9663.0, 9683.0, 9671.0, 9671.0, 9700.0, 9700.0, 9695.0, 9681.0, 9694.0, 9693.0, 9703.0, 9697.0, 9696.0, 9711.0, 9710.0, 9713.0, 9708.0, 9715.0, 9727.0, 9712.0, 9698.0, 9679.0, 9693.0, 9686.0, 9680.0, 9658.0, 9673.0, 9672.0, 9671.0, 9655.0, 9639.0, 9649.0, 9656.0, 9655.0, 9628.0, 9653.0, 9663.0, 9666.0, 9646.0, 9637.0, 9663.0, 9658.0, 9662.0, 9646.0, 9658.0, 9666.0, 9680.0, 9671.0, 9670.0, 9696.0, 9694.0, 9690.0, 9687.0, 9700.0, 9688.0, 9668.0, 9657.0, 9668.0, 9669.0, 9662.0, 9645.0, 9657.0, 9699.0, 9695.0, 9677.0, 9668.0, 9684.0, 9677.0, 9656.0, 9634.0, 9637.0, 9643.0, 9637.0, 9631.0, 9644.0, 9657.0, 9645.0, 9631.0, 9637.0, 9644.0, 9646.0, 9652.0, 9650.0, 9669.0, 9678.0, 9675.0, 9666.0, 9671.0, 9663.0, 9644.0, 9655.0, 9672.0, 9652.0, 9645.0, 9648.0, 9660.0, 9650.0, 9653.0, 9655.0, 9662.0, 9648.0, 9654.0, 9688.0, 9694.0, 9658.0, 9660.0, 9646.0, 9628.0, 9633.0, 9643.0, 9645.0, 9656.0],
      "WindowWidth": [20607.0, 20560.0, 20534.0, 20517.0, 20580.0, 20614.0, 20619.0, 20677.0, 20639.0, 20640.0, 20626.0, 20571.0, 20546.0, 20511.0, 20455.0, 20488.0, 20531.0, 20549.0, 20576.0, 20556.0, 20540.0, 20559.0, 20548.0, 20542.0, 20516.0, 20553.0, 20649.0, 20630.0, 20664.0, 20666.0, 20627.0, 20582.0, 20580.0, 20576.0, 20535.0, 20488.0, 20536.0, 20548.0, 20549.0, 20541.0, 20553.0, 20552.0, 20551.0, 20521.0, 20495.0, 20482.0, 20489.0, 20466.0, 20456.0, 20459.0, 20476.0, 20471.0, 20461.0, 20474.0, 20500.0, 20501.0, 20499.0, 20495.0, 20526.0, 20532.0, 20498.0, 20503.0, 20524.0, 20555.0, 20546.0, 20525.0, 20536.0, 20549.0, 20519.0, 20461.0, 20511.0, 20517.0, 20516.0, 20478.0, 20506.0, 20526.0, 20488.0, 20442.0, 20495.0, 20512.0, 20526.0, 20560.0, 20541.0, 20547.0, 20611.0, 20610.0, 20594.0, 20566.0, 20592.0, 20592.0, 20612.0, 20604.0, 20601.0, 20634.0, 20630.0, 20637.0, 20625.0, 20640.0, 20663.0, 20633.0, 20606.0, 20563.0, 20591.0, 20577.0, 20562.0, 20515.0, 20542.0, 20537.0, 20533.0, 20503.0, 20470.0, 20487.0, 20503.0, 20499.0, 20449.0, 20492.0, 20520.0, 20526.0, 20484.0, 20466.0, 20519.0, 20507.0, 20514.0, 20488.0, 20511.0, 20531.0, 20560.0, 20544.0, 20543.0, 20598.0, 20596.0, 20588.0, 20581.0, 20605.0, 20580.0, 20539.0, 20515.0, 20533.0, 20539.0, 20523.0, 20493.0, 20518.0, 20607.0, 20600.0, 20561.0, 20541.0, 20568.0, 20552.0, 20507.0, 20460.0, 20462.0, 20475.0, 20463.0, 20455.0, 20482.0, 20508.0, 20483.0, 20453.0, 20465.0, 20479.0, 20485.0, 20497.0, 20500.0, 20538.0, 20560.0, 20557.0, 20535.0, 20542.0, 20525.0, 20488.0, 20507.0, 20548.0, 20505.0, 20488.0, 20491.0, 20515.0, 20498.0, 20499.0, 20505.0, 20522.0, 20494.0, 20503.0, 20576.0, 20591.0, 20512.0, 20511.0, 20484.0, 20448.0, 20457.0, 20474.0, 20484.0, 20503.0]
    },
    "slices": {}
  },
  "NumberOfVolumes": 192
}