{
  "AcquisitionMatrixPE": 104,
  "AcquisitionNumber": 1,
  "AcquisitionTime": "10:21:29.837500",
  "BandwidthPerPixelPhaseEncode": 16.297,
  "BaseResolution": 104,
  "BodyPartExamined": "BRAIN",
  "ConsistencyInfo": "N4_VE11C_LATEST_20160120",
  "ConversionSoftware": "dcm2niix",
  "ConversionSoftwareVersion": "v1.0.20200331",
  "DerivedVendorReportedEchoSpacing": 0.000590009,
  "DeviceSerialNumber": "166018",
  "DwellTime": 2.1e-06,
  "EchoTime": 0.0376,
  "EchoTrainLength": 104,
  "EffectiveEchoSpacing": 0.000590009,
  "FlipAngle": 68,
  "ImageComments": "Unaliased_MB6_PE3_LB",
  "ImageOrientationPatientDICOM": [0.998812, -0.00188016, 0.0486981, 0.0083678, 0.991032, -0.133364],
  "ImageType": [
    "ORIGINAL",
    "PRIMARY",
    "M",
    "MB",
    "ND",
    "MOSAIC"
],
  "ImagingFrequency": 123.191,
  "InPlanePhaseEncodingDirectionDICOM": "COL",
  "InstitutionAddress": "Washington_Place_6_NYC_NYC_US_10003",
  "InstitutionName": "NYU_-_CBI",
  "InstitutionalDepartmentName": "Department",
  "MRAcquisitionType": "2D",
  "MagneticFieldStrength": 3,
  "Manufacturer": "Siemens",
  "ManufacturersModelName": "Prisma",
  "Modality": "MR",
  "MultibandAccelerationFactor": 6,
  "PartialFourier": 1,
  "PatientPosition": "HFS",
  "PercentPhaseFOV": 100,
  "PercentSampling": 100,
  "PhaseEncodingDirection": "j",
  "PhaseEncodingSteps": 104,
  "PhaseResolution": 1,
  "PixelBandwidth": 2290,
  "ProcedureStepDescription": "Investigators_Winawer",
  "ProtocolName": "cmrr_mbepi_s6_2mm_66sl_PA_task-prf",
  "PulseSequenceDetails": "%CustomerSeq%_cmrr_mbep2d_bold",
  "ReceiveCoilActiveElements": "HC1-7",
  "ReceiveCoilName": "HeadNeck_64",
  "ReconMatrixPE": 104,
  "RepetitionTime": 1,
  "SAR": 0.0607197,
  "ScanOptions": "FS",
  "ScanningSequence": "EP",
  "SequenceName": "epfid2d1_104",
  "SequenceVariant": "SK_SS",
  "SeriesDescription": "cmrr_mbepi_s6_2mm_66sl_PA_task-prf",
  "SeriesNumber": 8,
  "ShimSetting": [260, -12640, -8437, 399, -69, -213, -38, 4],
  "SliceThickness": 2,
  "SliceTiming": [0, 0.535, 0.09, 0.625, 0.18, 0.715, 0.2675, 0.8025, 0.3575, 0.8925, 0.4475, 0, 0.535, 0.09, 0.625, 0.18, 0.715, 0.2675, 0.8025, 0.3575, 0.8925, 0.4475, 0, 0.535, 0.09, 0.625, 0.18, 0.715, 0.2675, 0.8025, 0.3575, 0.8925, 0.4475, 0, 0.535, 0.09, 0.625, 0.18, 0.715, 0.2675, 0.8025, 0.3575, 0.8925, 0.4475, 0, 0.535, 0.09, 0.625, 0.18, 0.715, 0.2675, 0.8025, 0.3575, 0.8925, 0.4475, 0, 0.535, 0.09, 0.625, 0.18, 0.715, 0.2675, 0.8025, 0.3575, 0.8925, 0.4475],
  "SoftwareVersions": "syngo_MR_E11",
  "SpacingBetweenSlices": 2,
  "StationName": "AWP166018",
  "TaskName": "prf",
  "TotalReadoutTime": 0.060771,
  "TxRefAmp": 199.303,
  "VendorReportedEchoSpacing": 0.00059,
  "WipMemBlock": "776dcde6-f6b9-4edf-a88b-858fb7a0e5e7||Sequence: R016 ve11c/master r/8780670; Nov 27 2017 15:05:12 by eja",
  "dcmmeta_affine": [
    [-1.9976235628128052, 0.016735604032874107, 0.09602134674787521, 107.77023315429688],
    [0.003760329680517316, 1.9820637702941895, -0.267225056886673, -70.01815032958984],
    [0.09739629924297333, 0.2667270004749298, 1.979740023612976, -47.58028793334961],
    [0.0, 0.0, 0.0, 1.0]
],
  "dcmmeta_reorient_transform": [
    [0.0, -1.0, 0.0, 103.0],
    [1.0, 0.0, 0.0, 0.0],
    [0.0, 0.0, 1.0, 0.0],
    [0.0, 0.0, 0.0, 1.0]
],
  "dcmmeta_shape": [104, 104, 66, 192],
  "dcmmeta_slice_dim": 2,
  "dcmmeta_version": 0.6,
  "global": {
    "const": {
      "AccessionNumber": "kh26bq36",
      "AcquisitionMatrix": [104, 0, 0, 104],
      "AngioFlag": "N",
      "BitsAllocated": 16,
      "BitsStored": 16,
      "BodyPartExamined": "BRAIN",
      "Columns": 936,
      "EchoNumbers": 1,
      "EchoTime": 37.6,
      "EchoTrainLength": 104,
      "FlipAngle": 68.0,
      "HighBit": 15,
      "ImageOrientationPatient": [0.99881177157187, -0.0018801648002, 0.04869815140005, 0.00836780230507, 0.99103186381031, -0.1333635062424],
      "ImagePositionPatient": [-947.46740799971, -957.10862645811, 50.334170661457],
      "ImageType": [
        "ORIGINAL",
        "PRIMARY",
        "M",
        "MB",
        "ND",
        "MOSAIC"
],
      "ImagedNucleus": "1H",
      "ImagingFrequency": 123.190663,
      "InPlanePhaseEncodingDirection": "COL",
      "MRAcquisitionType": "2D",
      "MagneticFieldStrength": 3.0,
      "Manufacturer": "SIEMENS",
      "ManufacturerModelName": "Prisma",
      "Modality": "MR",
      "NumberOfAverages": 1.0,
      "NumberOfPhaseEncodingSteps": 104,
      "PercentPhaseFieldOfView": 100.0,
      "PercentSampling": 100.0,
      "PerformedProcedureStepStartTime": "095140.540000",
      "PhotometricInterpretation": "MONOCHROME2",
      "PixelBandwidth": 2290.0,
      "PixelRepresentation": 0,
      "PixelSpacing": [2.0, 2.0],
      "ProtocolName": "cmrr_mbepi_s6_2mm_66sl_PA_task-prf",
      "RepetitionTime": 1000.0,
      "Rows": 936,
      "SAR": 0.06071968299982,
      "SamplesPerPixel": 1,
      "ScanOptions": "FS",
      "ScanningSequence": "EP",
      "SequenceName": "epfid2d1_104",
      "SequenceVariant": [
        "SK",
        "SS"
],
      "SeriesDescription": "cmrr_mbepi_s6_2mm_66sl_PA_task-prf",
      "SeriesNumber": 8,
      "SeriesTime": "102249.817000",
      "SliceLocation": -32.568875276939,
      "SliceThickness": 2.0,
      "SmallestImagePixelValue": 0,
      "SoftwareVersions": "syngo MR E11",
      "SpacingBetweenSlices": 1.9999999768666,
      "SpecificCharacterSet": "ISO_IR 100",
      "StudyID": "1",
      "StudyTime": "095140.416000",
      "TransmitCoilName": "Body",
      "VariableFlipAngleFlag": "N",
      "WindowCenterWidthExplanation": "Algo1",
      "dBdt": 0.0},
    "slices": {}
  },
  "time": {
    "samples": {
      "AcquisitionNumber": [1, 2, 3, 4, 5, 6, 7, 8, 9, 10, 11, 12, 13, 14, 15, 16, 17, 18, 19, 20, 21, 22, 23, 24, 25, 26, 27, 28, 29, 30, 31, 32, 33, 34, 35, 36, 37, 38, 39, 40, 41, 42, 43, 44, 45, 46, 47, 48, 49, 50, 51, 52, 53, 54, 55, 56, 57, 58, 59, 60, 61, 62, 63, 64, 65, 66, 67, 68, 69, 70, 71, 72, 73, 74, 75, 76, 77, 78, 79, 80, 81, 82, 83, 84, 85, 86, 87, 88, 89, 90, 91, 92, 93, 94, 95, 96, 97, 98, 99, 100, 101, 102, 103, 104, 105, 106, 107, 108, 109, 110, 111, 112, 113, 114, 115, 116, 117, 118, 119, 120, 121, 122, 123, 124, 125, 126, 127, 128, 129, 130, 131, 132, 133, 134, 135, 136, 137, 138, 139, 140, 141, 142, 143, 144, 145, 146, 147, 148, 149, 150, 151, 152, 153, 154, 155, 156, 157, 158, 159, 160, 161, 162, 163, 164, 165, 166, 167, 168, 169, 170, 171, 172, 173, 174, 175, 176, 177, 178, 179, 180, 181, 182, 183, 184, 185, 186, 187, 188, 189, 190, 191, 192],
      "AcquisitionTime": ["102129.837500", "102130.837500", "102131.837500", "102132.837500", "102133.837500", "102134.837500", "102135.837500", "102136.837500", "102137.837500", "102138.837500", "102139.837500", "102140.837500", "102141.837500", "102142.837500", "102143.837500", "102144.837500", "102145.837500", "102146.837500", "102147.837500", "102148.837500", "102149.837500", "102150.837500", "102151.837500", "102152.837500", "102153.837500", "102154.837500", "102155.837500", "102156.837500", "102157.837500", "102158.837500", "102159.837500", "102200.837500", "102201.837500", "102202.837500", "102203.837500", "102204.837500", "102205.837500", "102206.837500", "102207.837500", "102208.837500", "102209.837500", "102210.837500", "102211.837500", "102212.837500", "102213.837500", "102214.837500", "102215.837500", "102216.837500", "102217.837500", "102218.837500", "102219.837500", "102220.837500", "102221.837500", "102222.837500", "102223.837500", "102224.837500", "102225.837500", "102226.837500", "102227.837500", "102228.837500", "102229.837500", "102230.837500", "102231.837500", "102232.837500", "102233.837500", "102234.837500", "102235.837500", "102236.837500", "102237.837500", "102238.837500", "102239.837500", "102240.837500", "102241.837500", "102242.837500", "102243.837500", "102244.837500", "102245.837500", "102246.837500", "102247.837500", "102248.837500", "102249.837500", "102250.837500", "102251.837500", "102252.837500", "102253.837500", "102254.837500", "102255.837500", "102256.837500", "102257.837500", "102258.837500", "102259.837500", "102300.837500", "102301.837500", "102302.837500", "102303.837500", "102304.837500", "102305.837500", "102306.837500", "102307.837500", "102308.837500", "102309.837500", "102310.837500", "102311.837500", "102312.837500", "102313.837500", "102314.837500", "102315.837500", "102316.837500", "102317.837500", "102318.837500", "102319.837500", "102320.837500", "102321.837500", "102322.837500", "102323.837500", "102324.837500", "102325.837500", "102326.837500", "102327.837500", "102328.837500", "102329.837500", "102330.837500", "102331.837500", "102332.837500", "102333.837500", "102334.837500", "102335.837500", "102336.837500", "102337.837500", "102338.837500", "102339.837500", "102340.837500", "102341.837500", "102342.837500", "102343.837500", "102344.837500", "102345.837500", "102346.837500", "102347.837500", "102348.837500", "102349.837500", "102350.837500", "102351.837500", "102352.837500", "102353.837500", "102354.837500", "102355.837500", "102356.837500", "102357.837500", "102358.837500", "102359.837500", "102400.837500", "102401.837500", "102402.837500", "102403.837500", "102404.837500", "102405.837500", "102406.837500", "102407.837500", "102408.837500", "102409.837500", "102410.837500", "102411.837500", "102412.837500", "102413.837500", "102414.837500", "102415.837500", "102416.837500", "102417.837500", "102418.837500", "102419.837500", "102420.837500", "102421.837500", "102422.837500", "102423.837500", "102424.837500", "102425.837500", "102426.837500", "102427.837500", "102428.837500", "102429.837500", "102430.837500", "102431.837500", "102432.837500", "102433.837500", "102434.837500", "102435.837500", "102436.837500", "102437.837500", "102438.837500", "102439.837500", "102440.837500"],
      "ContentTime": ["102249.820000", "102249.823000", "102249.826000", "102249.829000", "102249.832000", "102249.835000", "102249.837000", "102249.840000", "102249.849000", "102249.852000", "102249.855000", "102249.858000", "102249.861000", "102249.865000", "102249.868000", "102249.870000", "102249.873000", "102249.884000", "102249.887000", "102249.890000", "102249.892000", "102249.895000", "102249.898000", "102249.901000", "102249.904000", "102249.907000", "102249.909000", "102249.912000", "102249.915000", "102249.918000", "102249.921000", "102249.924000", "102249.927000", "102249.930000", "102249.933000", "102249.936000", "102249.939000", "102249.941000", "102249.944000", "102249.947000", "102249.950000", "102249.953000", "102309.781000", "102309.784000", "102309.787000", "102309.790000", "102309.793000", "102309.796000", "102309.798000", "102309.807000", "102309.810000", "102309.813000", "102309.815000", "102309.818000", "102309.821000", "102309.824000", "102309.827000", "102309.830000", "102309.832000", "102309.835000", "102309.838000", "102309.841000", "102309.844000", "102309.847000", "102309.855000", "102309.857000", "102309.860000", "102309.864000", "102309.867000", "102309.870000", "102329.781000", "102329.784000", "102329.787000", "102329.789000", "102329.792000", "102329.797000", "102329.800000", "102329.802000", "102329.805000", "102329.808000", "102329.811000", "102329.814000", "102329.816000", "102329.819000", "102329.822000", "102329.825000", "102329.837000", "102329.840000", "102329.842000", "102329.845000", "102329.848000", "102329.851000", "102329.854000", "102329.857000", "102329.860000", "102329.864000", "102329.867000", "102329.870000", "102349.780000", "102349.783000", "102349.786000", "102349.788000", "102349.791000", "102349.794000", "102349.797000", "102349.800000", "102349.803000", "102349.806000", "102349.809000", "102349.811000", "102349.814000", "102349.817000", "102349.820000", "102349.823000", "102349.826000", "102349.829000", "102349.831000", "102349.834000", "102349.837000", "102349.840000", "102349.843000", "102349.846000", "102349.849000", "102349.851000", "102349.854000", "102349.857000", "102409.781000", "102409.784000", "102409.787000", "102409.790000", "102409.792000", "102409.795000", "102409.798000", "102409.801000", "102409.804000", "102409.807000", "102409.810000", "102409.812000", "102409.815000", "102409.818000", "102409.821000", "102409.824000", "102409.827000", "102409.829000", "102409.832000", "102409.835000", "102409.838000", "102409.841000", "102409.844000", "102409.847000", "102409.850000", "102409.852000", "102409.855000", "102409.858000", "102429.781000", "102429.784000", "102429.787000", "102429.790000", "102429.792000", "102429.795000", "102429.798000", "102429.801000", "102429.804000", "102429.807000", "102429.810000", "102429.812000", "102429.815000", "102429.818000", "102429.821000", "102429.824000", "102429.827000", "102429.830000", "102429.833000", "102429.835000", "102429.838000", "102429.841000", "102429.844000", "102429.847000", "102429.850000", "102442.052000", "102442.055000", "102442.058000", "102442.061000", "102442.064000", "102442.067000", "102442.069000", "102442.072000", "102442.075000", "102442.078000", "102442.081000", "102442.084000", "102442.086000"],
      "InstanceCreationTime": ["102249.820000", "102249.823000", "102249.826000", "102249.829000", "102249.832000", "102249.835000", "102249.837000", "102249.840000", "102249.849000", "102249.852000", "102249.855000", "102249.858000", "102249.861000", "102249.865000", "102249.868000", "102249.870000", "102249.873000", "102249.884000", "102249.887000", "102249.890000", "102249.892000", "102249.895000", "102249.898000", "102249.901000", "102249.904000", "102249.907000", "102249.909000", "102249.912000", "102249.915000", "102249.918000", "102249.921000", "102249.924000", "102249.927000", "102249.930000", "102249.933000", "102249.936000", "102249.939000", "102249.941000", "102249.944000", "102249.947000", "102249.950000", "102249.953000", "102309.781000", "102309.784000", "102309.787000", "102309.790000", "102309.793000", "102309.796000", "102309.798000", "102309.807000", "102309.810000", "102309.813000", "102309.815000", "102309.818000", "102309.821000", "102309.824000", "102309.827000", "102309.830000", "102309.832000", "102309.835000", "102309.838000", "102309.841000", "102309.844000", "102309.847000", "102309.855000", "102309.857000", "102309.860000", "102309.864000", "102309.867000", "102309.870000", "102329.781000", "102329.784000", "102329.787000", "102329.789000", "102329.792000", "102329.797000", "102329.800000", "102329.802000", "102329.805000", "102329.808000", "102329.811000", "102329.814000", "102329.816000", "102329.819000", "102329.822000", "102329.825000", "102329.837000", "102329.840000", "102329.842000", "102329.845000", "102329.848000", "102329.851000", "102329.854000", "102329.857000", "102329.860000", "102329.864000", "102329.867000", "102329.870000", "102349.780000", "102349.783000", "102349.786000", "102349.788000", "102349.791000", "102349.794000", "102349.797000", "102349.800000", "102349.803000", "102349.806000", "102349.809000", "102349.811000", "102349.814000", "102349.817000", "102349.820000", "102349.823000", "102349.826000", "102349.829000", "102349.831000", "102349.834000", "102349.837000", "102349.840000", "102349.843000", "102349.846000", "102349.849000", "102349.851000", "102349.854000", "102349.857000", "102409.781000", "102409.784000", "102409.787000", "102409.790000", "102409.792000", "102409.795000", "102409.798000", "102409.801000", "102409.804000", "102409.807000", "102409.810000", "102409.812000", "102409.815000", "102409.818000", "102409.821000", "102409.824000", "102409.827000", "102409.829000", "102409.832000", "102409.835000", "102409.838000", "102409.841000", "102409.844000", "102409.847000", "102409.850000", "102409.852000", "102409.855000", "102409.858000", "102429.781000", "102429.784000", "102429.787000", "102429.790000", "102429.792000", "102429.795000", "102429.798000", "102429.801000", "102429.804000", "102429.807000", "102429.810000", "102429.812000", "102429.815000", "102429.818000", "102429.821000", "102429.824000", "102429.827000", "102429.830000", "102429.833000", "102429.835000", "102429.838000", "102429.841000", "102429.844000", "102429.847000", "102429.850000", "102442.052000", "102442.055000", "102442.058000", "102442.061000", "102442.064000", "102442.067000", "102442.069000", "102442.072000", "102442.075000", "102442.078000", "102442.081000", "102442.084000", "102442.086000"],
      "InstanceNumber": [1, 2, 3, 4, 5, 6, 7, 8, 9, 10, 11, 12, 13, 14, 15, 16, 17, 18, 19, 20, 21, 22, 23, 24, 25, 26, 27, 28, 29, 30, 31, 32, 33, 34, 35, 36, 37, 38, 39, 40, 41, 42, 43, 44, 45, 46, 47, 48, 49, 50, 51, 52, 53, 54, 55, 56, 57, 58, 59, 60, 61, 62, 63, 64, 65, 66, 67, 68, 69, 70, 71, 72, 73, 74, 75, 76, 77, 78, 79, 80, 81, 82, 83, 84, 85, 86, 87, 88, 89, 90, 91, 92, 93, 94, 95, 96, 97, 98, 99, 100, 101, 102, 103, 104, 105, 106, 107, 108, 109, 110, 111, 112, 113, 114, 115, 116, 117, 118, 119, 120, 121, 122, 123, 124, 125, 126, 127, 128, 129, 130, 131, 132, 133, 134, 135, 136, 137, 138, 139, 140, 141, 142, 143, 144, 145, 146, 147, 148, 149, 150, 151, 152, 153, 154, 155, 156, 157, 158, 159, 160, 161, 162, 163, 164, 165, 166, 167, 168, 169, 170, 171, 172, 173, 174, 175, 176, 177, 178, 179, 180, 181, 182, 183, 184, 185, 186, 187, 188, 189, 190, 191, 192],
      "LargestImagePixelValue": [54457, 52709, 51367, 51396, 50767, 50252, 50258, 50933, 50566, 50276, 49911, 50167, 50318, 49834, 50492, 50707, 50346, 50030, 50169, 49957, 50241, 50004, 49744, 49200, 49287, 49159, 49103, 49533, 48762, 48909, 48157, 48569, 49080, 48489, 48630, 47883, 48126, 48326, 48510, 48082, 48147, 47881, 47952, 48121, 47819, 47735, 47685, 47633, 48209, 47982, 47567, 46924, 46690, 47075, 47625, 46794, 46502, 47084, 47325, 47516, 46990, 47711, 47362, 47849, 47117, 46712, 47490, 47731, 47465, 46972, 47475, 47869, 47782, 47411, 48429, 47280, 46991, 47832, 47158, 46860, 47087, 46965, 47211, 46844, 46984, 47437, 47044, 46549, 46892, 47046, 46941, 46747, 47004, 46675, 46597, 46341, 46493, 46720, 47357, 47033, 46684, 46260, 46234, 46344, 45924, 46149, 46480, 46417, 46341, 45686, 46019, 45822, 46062, 45425, 45701, 46415, 46095, 45789, 45909, 45782, 46195, 46401, 46185, 45968, 46215, 46165, 45554, 45880, 45935, 46074, 45985, 46456, 46105, 45794, 46106, 46320, 46500, 46088, 45523, 45841, 46208, 46149, 45518, 45959, 46547, 45745, 45456, 45897, 45634, 45764, 45813, 45680, 44966, 45723, 46120, 46044, 45740, 45775, 45966, 45832, 45727, 45468, 46835, 46087, 45990, 45713, 45451, 46180, 46518, 46537, 45271, 45117, 45803, 45641, 45142, 44602, 45195, 44952, 45377, 45981, 45386, 45106, 45549, 45442, 45524, 45533, 45805, 45008, 45500, 45818, 45994, 45403],
      "WindowCenter": [10079.0, 10043.0, 10033.0, 10031.0, 10027.0, 10022.0, 10028.0, 10035.0, 10034.0, 10034.0, 10031.0, 10037.0, 10043.0, 10043.0, 10050.0, 10050.0, 10049.0, 10044.0, 10044.0, 10050.0, 10047.0, 10054.0, 10068.0, 10066.0, 10059.0, 10037.0, 10022.0, 10019.0, 10006.0, 9997.0, 9985.0, 9996.0, 10002.0, 10005.0, 10011.0, 9999.0, 9991.0, 9982.0, 9986.0, 9981.0, 9982.0, 9983.0, 9977.0, 9963.0, 9955.0, 9953.0, 9947.0, 9945.0, 9943.0, 9934.0, 9928.0, 9929.0, 9931.0, 9932.0, 9937.0, 9932.0, 9932.0, 9945.0, 9940.0, 9946.0, 9945.0, 9952.0, 9960.0, 9973.0, 9965.0, 9971.0, 9977.0, 9976.0, 9969.0, 9963.0, 9962.0, 9965.0, 9959.0, 9960.0, 9973.0, 9975.0, 9979.0, 9986.0, 9971.0, 9962.0, 9955.0, 9953.0, 9951.0, 9947.0, 9954.0, 9973.0, 9976.0, 9978.0, 9991.0, 9981.0, 9973.0, 9957.0, 9958.0, 9979.0, 9988.0, 10005.0, 10014.0, 10006.0, 9996.0, 9985.0, 9972.0, 9959.0, 9939.0, 9928.0, 9926.0, 9933.0, 9933.0, 9931.0, 9945.0, 9949.0, 9950.0, 9951.0, 9964.0, 9961.0, 9961.0, 9958.0, 9950.0, 9949.0, 9952.0, 9953.0, 9940.0, 9941.0, 9935.0, 9934.0, 9927.0, 9921.0, 9921.0, 9921.0, 9924.0, 9939.0, 9958.0, 9974.0, 9967.0, 9958.0, 9951.0, 9940.0, 9931.0, 9924.0, 9926.0, 9942.0, 9957.0, 9964.0, 9962.0, 9973.0, 9966.0, 9947.0, 9947.0, 9959.0, 9968.0, 9975.0, 9990.0, 9990.0, 9979.0, 9984.0, 9989.0, 9976.0, 9962.0, 9940.0, 9927.0, 9919.0, 9919.0, 9914.0, 9916.0, 9910.0, 9917.0, 9920.0, 9914.0, 9913.0, 9914.0, 9906.0, 9894.0, 9899.0, 9912.0, 9920.0, 9915.0, 9912.0, 9932.0, 9942.0, 9949.0, 9949.0, 9935.0, 9927.0, 9925.0, 9923.0, 9931.0, 9933.0, 9932.0, 9921.0, 9920.0, 9929.0, 9922.0, 9910.0],
      "WindowWidth": [21585.0, 21485.0, 21451.0, 21441.0, 21431.0, 21422.0, 21436.0, 21451.0, 21447.0, 21447.0, 21443.0, 21456.0, 21468.0, 21469.0, 21484.0, 21482.0, 21479.0, 21467.0, 21469.0, 21484.0, 21481.0, 21496.0, 21532.0, 21530.0, 21509.0, 21453.0, 21417.0, 21409.0, 21378.0, 21357.0, 21333.0, 21356.0, 21369.0, 21376.0, 21387.0, 21363.0, 21342.0, 21318.0, 21325.0, 21316.0, 21319.0, 21321.0, 21308.0, 21275.0, 21255.0, 21249.0, 21236.0, 21230.0, 21224.0, 21201.0, 21187.0, 21192.0, 21199.0, 21202.0, 21209.0, 21199.0, 21201.0, 21229.0, 21219.0, 21229.0, 21226.0, 21244.0, 21265.0, 21293.0, 21281.0, 21294.0, 21307.0, 21304.0, 21285.0, 21272.0, 21269.0, 21274.0, 21263.0, 21265.0, 21294.0, 21302.0, 21312.0, 21326.0, 21289.0, 21268.0, 21254.0, 21248.0, 21242.0, 21237.0, 21254.0, 21296.0, 21305.0, 21312.0, 21339.0, 21319.0, 21296.0, 21261.0, 21264.0, 21311.0, 21337.0, 21381.0, 21401.0, 21381.0, 21352.0, 21324.0, 21293.0, 21264.0, 21216.0, 21191.0, 21186.0, 21199.0, 21197.0, 21193.0, 21228.0, 21240.0, 21240.0, 21246.0, 21274.0, 21273.0, 21271.0, 21260.0, 21240.0, 21239.0, 21249.0, 21250.0, 21220.0, 21216.0, 21203.0, 21201.0, 21187.0, 21176.0, 21176.0, 21177.0, 21183.0, 21217.0, 21261.0, 21296.0, 21276.0, 21259.0, 21241.0, 21214.0, 21191.0, 21176.0, 21185.0, 21222.0, 21257.0, 21271.0, 21272.0, 21293.0, 21275.0, 21235.0, 21237.0, 21263.0, 21283.0, 21303.0, 21337.0, 21337.0, 21313.0, 21323.0, 21330.0, 21301.0, 21267.0, 21212.0, 21178.0, 21160.0, 21161.0, 21150.0, 21151.0, 21141.0, 21158.0, 21165.0, 21152.0, 21150.0, 21152.0, 21132.0, 21107.0, 21119.0, 21150.0, 21169.0, 21162.0, 21158.0, 21201.0, 21225.0, 21240.0, 21237.0, 21206.0, 21184.0, 21178.0, 21174.0, 21194.0, 21199.0, 21193.0, 21173.0, 21171.0, 21186.0, 21171.0, 21143.0]
    },
    "slices": {}
  },
  "NumberOfVolumes": 192
}