{
  "AcquisitionMatrixPE": 104,
  "AcquisitionNumber": 1,
  "AcquisitionTime": "10:41:23.540000",
  "BandwidthPerPixelPhaseEncode": 16.297,
  "BaseResolution": 104,
  "BodyPartExamined": "BRAIN",
  "ConsistencyInfo": "N4_VE11C_LATEST_20160120",
  "ConversionSoftware": "dcm2niix",
  "ConversionSoftwareVersion": "v1.0.20200331",
  "DerivedVendorReportedEchoSpacing": 0.000590009,
  "DeviceSerialNumber": "166018",
  "DwellTime": 2.1e-06,
  "EchoTime": 0.0376,
  "EchoTrainLength": 104,
  "EffectiveEchoSpacing": 0.000590009,
  "FlipAngle": 68,
  "ImageComments": "Unaliased_MB6_PE3_LB",
  "ImageOrientationPatientDICOM": [0.998812, -0.00188016, 0.0486981, 0.0083678, 0.991032, -0.133364],
  "ImageType": [
    "ORIGINAL",
    "PRIMARY",
    "M",
    "MB",
    "ND",
    "MOSAIC"
],
  "ImagingFrequency": 123.191,
  "InPlanePhaseEncodingDirectionDICOM": "COL",
  "InstitutionAddress": "Washington_Place_6_NYC_NYC_US_10003",
  "InstitutionName": "NYU_-_CBI",
  "InstitutionalDepartmentName": "Department",
  "MRAcquisitionType": "2D",
  "MagneticFieldStrength": 3,
  "Manufacturer": "Siemens",
  "ManufacturersModelName": "Prisma",
  "Modality": "MR",
  "MultibandAccelerationFactor": 6,
  "PartialFourier": 1,
  "PatientPosition": "HFS",
  "PercentPhaseFOV": 100,
  "PercentSampling": 100,
  "PhaseEncodingDirection": "j",
  "PhaseEncodingSteps": 104,
  "PhaseResolution": 1,
  "PixelBandwidth": 2290,
  "ProcedureStepDescription": "Investigators_Winawer",
  "ProtocolName": "cmrr_mbepi_s6_2mm_66sl_PA_task-prf",
  "PulseSequenceDetails": "%CustomerSeq%_cmrr_mbep2d_bold",
  "ReceiveCoilActiveElements": "HC1-7",
  "ReceiveCoilName": "HeadNeck_64",
  "ReconMatrixPE": 104,
  "RepetitionTime": 1,
  "SAR": 0.0607197,
  "ScanOptions": "FS",
  "ScanningSequence": "EP",
  "SequenceName": "epfid2d1_104",
  "SequenceVariant": "SK_SS",
  "SeriesDescription": "cmrr_mbepi_s6_2mm_66sl_PA_task-prf",
  "SeriesNumber": 16,
  "ShimSetting": [260, -12640, -8437, 399, -69, -213, -38, 4],
  "SliceThickness": 2,
  "SliceTiming": [0, 0.5325, 0.0875, 0.6225, 0.1775, 0.7125, 0.265, 0.8, 0.355, 0.89, 0.445, 0, 0.5325, 0.0875, 0.6225, 0.1775, 0.7125, 0.265, 0.8, 0.355, 0.89, 0.445, 0, 0.5325, 0.0875, 0.6225, 0.1775, 0.7125, 0.265, 0.8, 0.355, 0.89, 0.445, 0, 0.5325, 0.0875, 0.6225, 0.1775, 0.7125, 0.265, 0.8, 0.355, 0.89, 0.445, 0, 0.5325, 0.0875, 0.6225, 0.1775, 0.7125, 0.265, 0.8, 0.355, 0.89, 0.445, 0, 0.5325, 0.0875, 0.6225, 0.1775, 0.7125, 0.265, 0.8, 0.355, 0.89, 0.445],
  "SoftwareVersions": "syngo_MR_E11",
  "SpacingBetweenSlices": 2,
  "StationName": "AWP166018",
  "TaskName": "prf",
  "TotalReadoutTime": 0.060771,
  "TxRefAmp": 199.303,
  "VendorReportedEchoSpacing": 0.00059,
  "WipMemBlock": "776dcde6-f6b9-4edf-a88b-858fb7a0e5e7||Sequence: R016 ve11c/master r/8780670; Nov 27 2017 15:05:12 by eja",
  "dcmmeta_affine": [
    [-1.9976235628128052, 0.016735604032874107, 0.09602134674787521, 107.77023315429688],
    [0.003760329680517316, 1.9820637702941895, -0.267225056886673, -70.01815032958984],
    [0.09739629924297333, 0.2667270004749298, 1.979740023612976, -47.58028793334961],
    [0.0, 0.0, 0.0, 1.0]
],
  "dcmmeta_reorient_transform": [
    [0.0, -1.0, 0.0, 103.0],
    [1.0, 0.0, 0.0, 0.0],
    [0.0, 0.0, 1.0, 0.0],
    [0.0, 0.0, 0.0, 1.0]
],
  "dcmmeta_shape": [104, 104, 66, 192],
  "dcmmeta_slice_dim": 2,
  "dcmmeta_version": 0.6,
  "global": {
    "const": {
      "AccessionNumber": "kh26bq36",
      "AcquisitionMatrix": [104, 0, 0, 104],
      "AngioFlag": "N",
      "BitsAllocated": 16,
      "BitsStored": 16,
      "BodyPartExamined": "BRAIN",
      "Columns": 936,
      "EchoNumbers": 1,
      "EchoTime": 37.6,
      "EchoTrainLength": 104,
      "FlipAngle": 68.0,
      "HighBit": 15,
      "ImageOrientationPatient": [0.99881177157187, -0.0018801648002, 0.04869815140005, 0.00836780230507, 0.99103186381031, -0.1333635062424],
      "ImagePositionPatient": [-947.46740799971, -957.10862645811, 50.334170661457],
      "ImageType": [
        "ORIGINAL",
        "PRIMARY",
        "M",
        "MB",
        "ND",
        "MOSAIC"
],
      "ImagedNucleus": "1H",
      "ImagingFrequency": 123.190663,
      "InPlanePhaseEncodingDirection": "COL",
      "MRAcquisitionType": "2D",
      "MagneticFieldStrength": 3.0,
      "Manufacturer": "SIEMENS",
      "ManufacturerModelName": "Prisma",
      "Modality": "MR",
      "NumberOfAverages": 1.0,
      "NumberOfPhaseEncodingSteps": 104,
      "PercentPhaseFieldOfView": 100.0,
      "PercentSampling": 100.0,
      "PerformedProcedureStepStartTime": "095140.540000",
      "PhotometricInterpretation": "MONOCHROME2",
      "PixelBandwidth": 2290.0,
      "PixelRepresentation": 0,
      "PixelSpacing": [2.0, 2.0],
      "ProtocolName": "cmrr_mbepi_s6_2mm_66sl_PA_task-prf",
      "RepetitionTime": 1000.0,
      "Rows": 936,
      "SAR": 0.06071968299982,
      "SamplesPerPixel": 1,
      "ScanOptions": "FS",
      "ScanningSequence": "EP",
      "SequenceName": "epfid2d1_104",
      "SequenceVariant": [
        "SK",
        "SS"
],
      "SeriesDescription": "cmrr_mbepi_s6_2mm_66sl_PA_task-prf",
      "SeriesNumber": 16,
      "SeriesTime": "104229.780000",
      "SliceLocation": -32.568875276939,
      "SliceThickness": 2.0,
      "SmallestImagePixelValue": 0,
      "SoftwareVersions": "syngo MR E11",
      "SpacingBetweenSlices": 1.9999999768666,
      "SpecificCharacterSet": "ISO_IR 100",
      "StudyID": "1",
      "StudyTime": "095140.416000",
      "TransmitCoilName": "Body",
      "VariableFlipAngleFlag": "N",
      "WindowCenterWidthExplanation": "Algo1",
      "dBdt": 0.0},
    "slices": {}
  },
  "time": {
    "samples": {
      "AcquisitionNumber": [1, 2, 3, 4, 5, 6, 7, 8, 9, 10, 11, 12, 13, 14, 15, 16, 17, 18, 19, 20, 21, 22, 23, 24, 25, 26, 27, 28, 29, 30, 31, 32, 33, 34, 35, 36, 37, 38, 39, 40, 41, 42, 43, 44, 45, 46, 47, 48, 49, 50, 51, 52, 53, 54, 55, 56, 57, 58, 59, 60, 61, 62, 63, 64, 65, 66, 67, 68, 69, 70, 71, 72, 73, 74, 75, 76, 77, 78, 79, 80, 81, 82, 83, 84, 85, 86, 87, 88, 89, 90, 91, 92, 93, 94, 95, 96, 97, 98, 99, 100, 101, 102, 103, 104, 105, 106, 107, 108, 109, 110, 111, 112, 113, 114, 115, 116, 117, 118, 119, 120, 121, 122, 123, 124, 125, 126, 127, 128, 129, 130, 131, 132, 133, 134, 135, 136, 137, 138, 139, 140, 141, 142, 143, 144, 145, 146, 147, 148, 149, 150, 151, 152, 153, 154, 155, 156, 157, 158, 159, 160, 161, 162, 163, 164, 165, 166, 167, 168, 169, 170, 171, 172, 173, 174, 175, 176, 177, 178, 179, 180, 181, 182, 183, 184, 185, 186, 187, 188, 189, 190, 191, 192],
      "AcquisitionTime": ["104123.540000", "104124.540000", "104125.540000", "104126.540000", "104127.540000", "104128.540000", "104129.540000", "104130.540000", "104131.540000", "104132.540000", "104133.540000", "104134.540000", "104135.540000", "104136.540000", "104137.540000", "104138.540000", "104139.540000", "104140.540000", "104141.540000", "104142.540000", "104143.540000", "104144.540000", "104145.540000", "104146.540000", "104147.540000", "104148.540000", "104149.540000", "104150.540000", "104151.540000", "104152.540000", "104153.540000", "104154.540000", "104155.540000", "104156.540000", "104157.540000", "104158.540000", "104159.540000", "104200.540000", "104201.540000", "104202.540000", "104203.540000", "104204.540000", "104205.540000", "104206.540000", "104207.540000", "104208.540000", "104209.540000", "104210.540000", "104211.540000", "104212.540000", "104213.540000", "104214.540000", "104215.540000", "104216.540000", "104217.540000", "104218.540000", "104219.540000", "104220.540000", "104221.540000", "104222.540000", "104223.540000", "104224.540000", "104225.540000", "104226.540000", "104227.540000", "104228.540000", "104229.540000", "104230.540000", "104231.540000", "104232.540000", "104233.540000", "104234.540000", "104235.540000", "104236.540000", "104237.540000", "104238.540000", "104239.540000", "104240.540000", "104241.540000", "104242.540000", "104243.540000", "104244.540000", "104245.540000", "104246.540000", "104247.540000", "104248.540000", "104249.540000", "104250.540000", "104251.540000", "104252.540000", "104253.540000", "104254.540000", "104255.540000", "104256.540000", "104257.540000", "104258.540000", "104259.540000", "104300.540000", "104301.540000", "104302.540000", "104303.540000", "104304.540000", "104305.540000", "104306.540000", "104307.540000", "104308.540000", "104309.540000", "104310.540000", "104311.540000", "104312.540000", "104313.540000", "104314.540000", "104315.540000", "104316.540000", "104317.540000", "104318.540000", "104319.540000", "104320.540000", "104321.540000", "104322.540000", "104323.540000", "104324.540000", "104325.540000", "104326.540000", "104327.540000", "104328.540000", "104329.540000", "104330.540000", "104331.540000", "104332.540000", "104333.540000", "104334.540000", "104335.540000", "104336.540000", "104337.540000", "104338.540000", "104339.540000", "104340.540000", "104341.540000", "104342.540000", "104343.540000", "104344.540000", "104345.540000", "104346.540000", "104347.540000", "104348.540000", "104349.540000", "104350.540000", "104351.540000", "104352.540000", "104353.540000", "104354.540000", "104355.540000", "104356.540000", "104357.540000", "104358.540000", "104359.540000", "104400.540000", "104401.540000", "104402.540000", "104403.540000", "104404.540000", "104405.540000", "104406.540000", "104407.540000", "104408.540000", "104409.540000", "104410.540000", "104411.540000", "104412.540000", "104413.540000", "104414.540000", "104415.540000", "104416.540000", "104417.540000", "104418.540000", "104419.540000", "104420.540000", "104421.540000", "104422.540000", "104423.540000", "104424.540000", "104425.540000", "104426.540000", "104427.540000", "104428.540000", "104429.540000", "104430.540000", "104431.540000", "104432.540000", "104433.540000", "104434.540000"],
      "ContentTime": ["104229.782000", "104229.785000", "104229.788000", "104229.791000", "104229.794000", "104229.797000", "104229.800000", "104229.803000", "104229.806000", "104229.808000", "104229.811000", "104229.828000", "104229.831000", "104229.834000", "104229.837000", "104229.840000", "104229.848000", "104229.851000", "104229.854000", "104229.865000", "104229.868000", "104229.871000", "104249.711000", "104249.714000", "104249.717000", "104249.720000", "104249.723000", "104249.725000", "104249.728000", "104249.731000", "104249.734000", "104249.737000", "104249.740000", "104249.743000", "104249.745000", "104249.748000", "104249.751000", "104249.754000", "104249.757000", "104249.760000", "104249.762000", "104249.769000", "104249.772000", "104249.775000", "104249.778000", "104249.781000", "104249.784000", "104249.787000", "104249.790000", "104249.792000", "104309.711000", "104309.714000", "104309.717000", "104309.720000", "104309.722000", "104309.725000", "104309.728000", "104309.731000", "104309.734000", "104309.737000", "104309.739000", "104309.742000", "104309.745000", "104309.748000", "104309.751000", "104309.754000", "104309.757000", "104309.759000", "104309.762000", "104309.765000", "104309.768000", "104309.771000", "104309.774000", "104309.777000", "104309.780000", "104309.782000", "104309.785000", "104309.788000", "104309.791000", "104329.711000", "104329.714000", "104329.717000", "104329.720000", "104329.722000", "104329.725000", "104329.728000", "104329.731000", "104329.734000", "104329.737000", "104329.740000", "104329.742000", "104329.745000", "104329.748000", "104329.751000", "104329.754000", "104329.757000", "104329.759000", "104329.762000", "104329.765000", "104329.768000", "104329.785000", "104329.788000", "104329.790000", "104329.793000", "104329.796000", "104329.799000", "104329.802000", "104349.711000", "104349.714000", "104349.717000", "104349.720000", "104349.722000", "104349.725000", "104349.728000", "104349.731000", "104349.734000", "104349.737000", "104349.739000", "104349.742000", "104349.745000", "104349.748000", "104349.751000", "104349.754000", "104349.757000", "104349.767000", "104349.819000", "104349.822000", "104349.825000", "104349.827000", "104349.830000", "104349.833000", "104349.836000", "104349.839000", "104349.842000", "104349.845000", "104349.847000", "104409.711000", "104409.714000", "104409.717000", "104409.720000", "104409.722000", "104409.725000", "104409.728000", "104409.731000", "104409.734000", "104409.737000", "104409.739000", "104409.742000", "104409.745000", "104409.748000", "104409.751000", "104409.754000", "104409.757000", "104409.760000", "104409.762000", "104409.765000", "104409.768000", "104409.771000", "104409.774000", "104409.777000", "104409.780000", "104409.783000", "104409.786000", "104409.788000", "104429.711000", "104429.714000", "104429.717000", "104429.726000", "104429.729000", "104429.732000", "104429.735000", "104429.738000", "104429.741000", "104429.744000", "104429.747000", "104429.749000", "104429.752000", "104429.755000", "104429.758000", "104429.761000", "104429.764000", "104429.767000", "104429.769000", "104429.772000", "104429.775000", "104436.083000", "104436.087000", "104436.090000", "104436.095000", "104436.098000", "104436.101000", "104436.105000"],
      "InstanceCreationTime": ["104229.782000", "104229.785000", "104229.788000", "104229.791000", "104229.794000", "104229.797000", "104229.800000", "104229.803000", "104229.806000", "104229.808000", "104229.811000", "104229.828000", "104229.831000", "104229.834000", "104229.837000", "104229.840000", "104229.848000", "104229.851000", "104229.854000", "104229.865000", "104229.868000", "104229.871000", "104249.711000", "104249.714000", "104249.717000", "104249.720000", "104249.723000", "104249.725000", "104249.728000", "104249.731000", "104249.734000", "104249.737000", "104249.740000", "104249.743000", "104249.745000", "104249.748000", "104249.751000", "104249.754000", "104249.757000", "104249.760000", "104249.762000", "104249.769000", "104249.772000", "104249.775000", "104249.778000", "104249.781000", "104249.784000", "104249.787000", "104249.790000", "104249.792000", "104309.711000", "104309.714000", "104309.717000", "104309.720000", "104309.722000", "104309.725000", "104309.728000", "104309.731000", "104309.734000", "104309.737000", "104309.739000", "104309.742000", "104309.745000", "104309.748000", "104309.751000", "104309.754000", "104309.757000", "104309.759000", "104309.762000", "104309.765000", "104309.768000", "104309.771000", "104309.774000", "104309.777000", "104309.780000", "104309.782000", "104309.785000", "104309.788000", "104309.791000", "104329.711000", "104329.714000", "104329.717000", "104329.720000", "104329.722000", "104329.725000", "104329.728000", "104329.731000", "104329.734000", "104329.737000", "104329.740000", "104329.742000", "104329.745000", "104329.748000", "104329.751000", "104329.754000", "104329.757000", "104329.759000", "104329.762000", "104329.765000", "104329.768000", "104329.785000", "104329.788000", "104329.790000", "104329.793000", "104329.796000", "104329.799000", "104329.802000", "104349.711000", "104349.714000", "104349.717000", "104349.720000", "104349.722000", "104349.725000", "104349.728000", "104349.731000", "104349.734000", "104349.737000", "104349.739000", "104349.742000", "104349.745000", "104349.748000", "104349.751000", "104349.754000", "104349.757000", "104349.767000", "104349.819000", "104349.822000", "104349.825000", "104349.827000", "104349.830000", "104349.833000", "104349.836000", "104349.839000", "104349.842000", "104349.845000", "104349.847000", "104409.711000", "104409.714000", "104409.717000", "104409.720000", "104409.722000", "104409.725000", "104409.728000", "104409.731000", "104409.734000", "104409.737000", "104409.739000", "104409.742000", "104409.745000", "104409.748000", "104409.751000", "104409.754000", "104409.757000", "104409.760000", "104409.762000", "104409.765000", "104409.768000", "104409.771000", "104409.774000", "104409.777000", "104409.780000", "104409.783000", "104409.786000", "104409.788000", "104429.711000", "104429.714000", "104429.717000", "104429.726000", "104429.729000", "104429.732000", "104429.735000", "104429.738000", "104429.741000", "104429.744000", "104429.747000", "104429.749000", "104429.752000", "104429.755000", "104429.758000", "104429.761000", "104429.764000", "104429.767000", "104429.769000", "104429.772000", "104429.775000", "104436.083000", "104436.087000", "104436.090000", "104436.095000", "104436.098000", "104436.101000", "104436.105000"],
      "InstanceNumber": [1, 2, 3, 4, 5, 6, 7, 8, 9, 10, 11, 12, 13, 14, 15, 16, 17, 18, 19, 20, 21, 22, 23, 24, 25, 26, 27, 28, 29, 30, 31, 32, 33, 34, 35, 36, 37, 38, 39, 40, 41, 42, 43, 44, 45, 46, 47, 48, 49, 50, 51, 52, 53, 54, 55, 56, 57, 58, 59, 60, 61, 62, 63, 64, 65, 66, 67, 68, 69, 70, 71, 72, 73, 74, 75, 76, 77, 78, 79, 80, 81, 82, 83, 84, 85, 86, 87, 88, 89, 90, 91, 92, 93, 94, 95, 96, 97, 98, 99, 100, 101, 102, 103, 104, 105, 106, 107, 108, 109, 110, 111, 112, 113, 114, 115, 116, 117, 118, 119, 120, 121, 122, 123, 124, 125, 126, 127, 128, 129, 130, 131, 132, 133, 134, 135, 136, 137, 138, 139, 140, 141, 142, 143, 144, 145, 146, 147, 148, 149, 150, 151, 152, 153, 154, 155, 156, 157, 158, 159, 160, 161, 162, 163, 164, 165, 166, 167, 168, 169, 170, 171, 172, 173, 174, 175, 176, 177, 178, 179, 180, 181, 182, 183, 184, 185, 186, 187, 188, 189, 190, 191, 192],
      "LargestImagePixelValue": [46554, 44752, 43877, 43125, 42802, 43359, 43298, 43160, 43716, 43488, 43207, 43278, 42623, 43468, 43283, 43702, 43137, 43386, 43684, 43567, 43897, 44086, 44465, 44167, 43917, 44034, 43734, 43347, 43554, 44129, 44109, 44144, 44264, 44193, 44267, 44032, 43552, 43065, 43197, 43889, 43072, 42992, 43305, 43624, 43151, 43568, 43726, 43631, 44084, 44085, 43483, 43080, 43586, 44308, 44001, 43736, 43936, 43988, 43557, 43659, 42792, 43634, 43422, 42725, 43346, 42923, 42782, 43224, 43549, 43831, 43013, 43390, 43791, 43589, 43473, 43859, 42859, 43091, 43738, 43123, 43699, 43782, 43948, 43708, 43683, 43635, 43595, 43605, 43593, 43834, 43875, 44372, 43883, 43747, 44025, 44241, 44025, 43932, 44336, 43622, 43264, 44171, 44141, 43864, 44082, 44479, 44141, 43998, 44594, 43895, 43705, 43071, 42816, 42488, 42407, 42761, 43405, 43618, 43461, 44048, 43366, 43604, 43607, 43441, 43347, 43994, 44157, 44657, 44458, 44479, 44200, 44701, 44008, 44647, 44020, 44266, 44224, 44140, 43910, 43973, 43582, 43211, 42998, 43349, 43509, 43726, 44214, 43929, 43902, 44355, 44256, 44061, 44069, 43767, 43538, 42881, 43246, 43285, 42982, 43486, 43732, 42862, 43283, 43548, 43519, 43309, 43230, 43273, 43384, 43822, 44553, 44005, 43573, 43232, 43404, 43828, 42747, 43352, 43789, 42905, 42643, 43281, 43700, 43326, 43472, 43603, 43579, 43139, 43242, 42939, 43145, 42892],
      "WindowCenter": [9849.0, 9811.0, 9795.0, 9794.0, 9796.0, 9788.0, 9786.0, 9779.0, 9776.0, 9767.0, 9765.0, 9768.0, 9771.0, 9789.0, 9790.0, 9796.0, 9797.0, 9807.0, 9821.0, 9822.0, 9822.0, 9821.0, 9819.0, 9819.0, 9821.0, 9828.0, 9824.0, 9833.0, 9848.0, 9850.0, 9840.0, 9831.0, 9824.0, 9817.0, 9814.0, 9806.0, 9814.0, 9822.0, 9818.0, 9817.0, 9802.0, 9794.0, 9788.0, 9778.0, 9769.0, 9768.0, 9775.0, 9783.0, 9790.0, 9789.0, 9776.0, 9782.0, 9784.0, 9790.0, 9795.0, 9797.0, 9800.0, 9806.0, 9807.0, 9810.0, 9805.0, 9809.0, 9815.0, 9818.0, 9826.0, 9828.0, 9829.0, 9822.0, 9819.0, 9816.0, 9812.0, 9818.0, 9824.0, 9824.0, 9824.0, 9824.0, 9813.0, 9810.0, 9809.0, 9796.0, 9807.0, 9809.0, 9815.0, 9810.0, 9817.0, 9818.0, 9816.0, 9809.0, 9809.0, 9809.0, 9810.0, 9815.0, 9810.0, 9809.0, 9807.0, 9808.0, 9808.0, 9817.0, 9829.0, 9825.0, 9825.0, 9825.0, 9818.0, 9809.0, 9802.0, 9813.0, 9808.0, 9816.0, 9830.0, 9830.0, 9824.0, 9818.0, 9817.0, 9812.0, 9806.0, 9809.0, 9802.0, 9809.0, 9817.0, 9818.0, 9810.0, 9816.0, 9810.0, 9808.0, 9816.0, 9831.0, 9834.0, 9831.0, 9830.0, 9823.0, 9821.0, 9813.0, 9815.0, 9827.0, 9829.0, 9825.0, 9827.0, 9832.0, 9827.0, 9812.0, 9809.0, 9809.0, 9798.0, 9790.0, 9793.0, 9791.0, 9783.0, 9777.0, 9796.0, 9804.0, 9801.0, 9802.0, 9808.0, 9803.0, 9794.0, 9795.0, 9803.0, 9803.0, 9803.0, 9816.0, 9822.0, 9817.0, 9819.0, 9812.0, 9802.0, 9788.0, 9785.0, 9785.0, 9792.0, 9791.0, 9790.0, 9776.0, 9775.0, 9769.0, 9769.0, 9766.0, 9769.0, 9785.0, 9792.0, 9795.0, 9797.0, 9795.0, 9789.0, 9777.0, 9776.0, 9776.0, 9770.0, 9771.0, 9771.0, 9766.0, 9770.0, 9763.0],
      "WindowWidth": [20972.0, 20871.0, 20830.0, 20825.0, 20827.0, 20810.0, 20802.0, 20783.0, 20772.0, 20749.0, 20745.0, 20758.0, 20768.0, 20803.0, 20804.0, 20818.0, 20821.0, 20846.0, 20875.0, 20880.0, 20880.0, 20875.0, 20870.0, 20870.0, 20875.0, 20892.0, 20887.0, 20911.0, 20946.0, 20947.0, 20923.0, 20902.0, 20886.0, 20870.0, 20860.0, 20844.0, 20864.0, 20883.0, 20874.0, 20869.0, 20836.0, 20818.0, 20805.0, 20777.0, 20756.0, 20753.0, 20769.0, 20788.0, 20802.0, 20797.0, 20772.0, 20784.0, 20789.0, 20802.0, 20811.0, 20819.0, 20830.0, 20839.0, 20844.0, 20854.0, 20844.0, 20850.0, 20864.0, 20873.0, 20892.0, 20901.0, 20901.0, 20885.0, 20872.0, 20866.0, 20863.0, 20875.0, 20885.0, 20885.0, 20883.0, 20884.0, 20860.0, 20852.0, 20847.0, 20822.0, 20846.0, 20852.0, 20863.0, 20853.0, 20869.0, 20873.0, 20866.0, 20851.0, 20850.0, 20849.0, 20852.0, 20861.0, 20852.0, 20848.0, 20844.0, 20845.0, 20847.0, 20869.0, 20893.0, 20885.0, 20888.0, 20885.0, 20868.0, 20848.0, 20833.0, 20853.0, 20845.0, 20866.0, 20896.0, 20894.0, 20883.0, 20869.0, 20869.0, 20860.0, 20846.0, 20848.0, 20832.0, 20849.0, 20866.0, 20867.0, 20852.0, 20865.0, 20851.0, 20849.0, 20868.0, 20902.0, 20908.0, 20901.0, 20898.0, 20881.0, 20873.0, 20855.0, 20860.0, 20887.0, 20894.0, 20886.0, 20891.0, 20900.0, 20891.0, 20857.0, 20847.0, 20843.0, 20819.0, 20802.0, 20809.0, 20801.0, 20782.0, 20772.0, 20814.0, 20831.0, 20827.0, 20833.0, 20844.0, 20832.0, 20810.0, 20817.0, 20834.0, 20834.0, 20835.0, 20860.0, 20871.0, 20864.0, 20872.0, 20853.0, 20826.0, 20796.0, 20787.0, 20786.0, 20803.0, 20801.0, 20793.0, 20765.0, 20763.0, 20750.0, 20750.0, 20744.0, 20756.0, 20790.0, 20805.0, 20817.0, 20820.0, 20810.0, 20791.0, 20767.0, 20766.0, 20765.0, 20754.0, 20757.0, 20758.0, 20749.0, 20755.0, 20741.0]
    },
    "slices": {}
  },
  "NumberOfVolumes": 192
}