{
  "AcquisitionMatrixPE": 104,
  "AcquisitionNumber": 1,
  "AcquisitionTime": "10:59:24.570000",
  "BandwidthPerPixelPhaseEncode": 16.297,
  "BaseResolution": 104,
  "BodyPartExamined": "BRAIN",
  "ConsistencyInfo": "N4_VE11C_LATEST_20160120",
  "ConversionSoftware": "dcm2niix",
  "ConversionSoftwareVersion": "v1.0.20200331",
  "DerivedVendorReportedEchoSpacing": 0.000590009,
  "DeviceSerialNumber": "166018",
  "DwellTime": 2.1e-06,
  "EchoTime": 0.0376,
  "EchoTrainLength": 104,
  "EffectiveEchoSpacing": 0.000590009,
  "FlipAngle": 68,
  "ImageComments": "Unaliased_MB6_PE3_LB",
  "ImageOrientationPatientDICOM": [0.998812, -0.00188016, 0.0486981, 0.0083678, 0.991032, -0.133364],
  "ImageType": [
    "ORIGINAL",
    "PRIMARY",
    "M",
    "MB",
    "ND",
    "MOSAIC"
],
  "ImagingFrequency": 123.191,
  "InPlanePhaseEncodingDirectionDICOM": "COL",
  "InstitutionAddress": "Washington_Place_6_NYC_NYC_US_10003",
  "InstitutionName": "NYU_-_CBI",
  "InstitutionalDepartmentName": "Department",
  "MRAcquisitionType": "2D",
  "MagneticFieldStrength": 3,
  "Manufacturer": "Siemens",
  "ManufacturersModelName": "Prisma",
  "Modality": "MR",
  "MultibandAccelerationFactor": 6,
  "PartialFourier": 1,
  "PatientPosition": "HFS",
  "PercentPhaseFOV": 100,
  "PercentSampling": 100,
  "PhaseEncodingDirection": "j",
  "PhaseEncodingSteps": 104,
  "PhaseResolution": 1,
  "PixelBandwidth": 2290,
  "ProcedureStepDescription": "Investigators_Winawer",
  "ProtocolName": "cmrr_mbepi_s6_2mm_66sl_PA_task-prf",
  "PulseSequenceDetails": "%CustomerSeq%_cmrr_mbep2d_bold",
  "ReceiveCoilActiveElements": "HC1-7",
  "ReceiveCoilName": "HeadNeck_64",
  "ReconMatrixPE": 104,
  "RepetitionTime": 1,
  "SAR": 0.0607197,
  "ScanOptions": "FS",
  "ScanningSequence": "EP",
  "SequenceName": "epfid2d1_104",
  "SequenceVariant": "SK_SS",
  "SeriesDescription": "cmrr_mbepi_s6_2mm_66sl_PA_task-prf",
  "SeriesNumber": 24,
  "ShimSetting": [260, -12640, -8437, 399, -69, -213, -38, 4],
  "SliceThickness": 2,
  "SliceTiming": [0, 0.5325, 0.0875, 0.6225, 0.1775, 0.7125, 0.265, 0.8, 0.355, 0.89, 0.445, 0, 0.5325, 0.0875, 0.6225, 0.1775, 0.7125, 0.265, 0.8, 0.355, 0.89, 0.445, 0, 0.5325, 0.0875, 0.6225, 0.1775, 0.7125, 0.265, 0.8, 0.355, 0.89, 0.445, 0, 0.5325, 0.0875, 0.6225, 0.1775, 0.7125, 0.265, 0.8, 0.355, 0.89, 0.445, 0, 0.5325, 0.0875, 0.6225, 0.1775, 0.7125, 0.265, 0.8, 0.355, 0.89, 0.445, 0, 0.5325, 0.0875, 0.6225, 0.1775, 0.7125, 0.265, 0.8, 0.355, 0.89, 0.445],
  "SoftwareVersions": "syngo_MR_E11",
  "SpacingBetweenSlices": 2,
  "StationName": "AWP166018",
  "TaskName": "prf",
  "TotalReadoutTime": 0.060771,
  "TxRefAmp": 199.303,
  "VendorReportedEchoSpacing": 0.00059,
  "WipMemBlock": "776dcde6-f6b9-4edf-a88b-858fb7a0e5e7||Sequence: R016 ve11c/master r/8780670; Nov 27 2017 15:05:12 by eja",
  "dcmmeta_affine": [
    [-1.9976235628128052, 0.016735604032874107, 0.09602134674787521, 107.77023315429688],
    [0.003760329680517316, 1.9820637702941895, -0.267225056886673, -70.01815032958984],
    [0.09739629924297333, 0.2667270004749298, 1.979740023612976, -47.58028793334961],
    [0.0, 0.0, 0.0, 1.0]
],
  "dcmmeta_reorient_transform": [
    [0.0, -1.0, 0.0, 103.0],
    [1.0, 0.0, 0.0, 0.0],
    [0.0, 0.0, 1.0, 0.0],
    [0.0, 0.0, 0.0, 1.0]
],
  "dcmmeta_shape": [104, 104, 66, 192],
  "dcmmeta_slice_dim": 2,
  "dcmmeta_version": 0.6,
  "global": {
    "const": {
      "AccessionNumber": "kh26bq36",
      "AcquisitionMatrix": [104, 0, 0, 104],
      "AngioFlag": "N",
      "BitsAllocated": 16,
      "BitsStored": 16,
      "BodyPartExamined": "BRAIN",
      "Columns": 936,
      "EchoNumbers": 1,
      "EchoTime": 37.6,
      "EchoTrainLength": 104,
      "FlipAngle": 68.0,
      "HighBit": 15,
      "ImageOrientationPatient": [0.99881177157187, -0.0018801648002, 0.04869815140005, 0.00836780230507, 0.99103186381031, -0.1333635062424],
      "ImagePositionPatient": [-947.46740799971, -957.10862645811, 50.334170661457],
      "ImageType": [
        "ORIGINAL",
        "PRIMARY",
        "M",
        "MB",
        "ND",
        "MOSAIC"
],
      "ImagedNucleus": "1H",
      "ImagingFrequency": 123.190663,
      "InPlanePhaseEncodingDirection": "COL",
      "MRAcquisitionType": "2D",
      "MagneticFieldStrength": 3.0,
      "Manufacturer": "SIEMENS",
      "ManufacturerModelName": "Prisma",
      "Modality": "MR",
      "NumberOfAverages": 1.0,
      "NumberOfPhaseEncodingSteps": 104,
      "PercentPhaseFieldOfView": 100.0,
      "PercentSampling": 100.0,
      "PerformedProcedureStepStartTime": "095140.540000",
      "PhotometricInterpretation": "MONOCHROME2",
      "PixelBandwidth": 2290.0,
      "PixelRepresentation": 0,
      "PixelSpacing": [2.0, 2.0],
      "ProtocolName": "cmrr_mbepi_s6_2mm_66sl_PA_task-prf",
      "RepetitionTime": 1000.0,
      "Rows": 936,
      "SAR": 0.06071968299982,
      "SamplesPerPixel": 1,
      "ScanOptions": "FS",
      "ScanningSequence": "EP",
      "SequenceName": "epfid2d1_104",
      "SequenceVariant": [
        "SK",
        "SS"
],
      "SeriesDescription": "cmrr_mbepi_s6_2mm_66sl_PA_task-prf",
      "SeriesNumber": 24,
      "SeriesTime": "110029.813000",
      "SliceLocation": -32.568875276939,
      "SliceThickness": 2.0,
      "SmallestImagePixelValue": 0,
      "SoftwareVersions": "syngo MR E11",
      "SpacingBetweenSlices": 1.9999999768666,
      "SpecificCharacterSet": "ISO_IR 100",
      "StudyID": "1",
      "StudyTime": "095140.416000",
      "TransmitCoilName": "Body",
      "VariableFlipAngleFlag": "N",
      "WindowCenterWidthExplanation": "Algo1",
      "dBdt": 0.0},
    "slices": {}
  },
  "time": {
    "samples": {
      "AcquisitionNumber": [1, 2, 3, 4, 5, 6, 7, 8, 9, 10, 11, 12, 13, 14, 15, 16, 17, 18, 19, 20, 21, 22, 23, 24, 25, 26, 27, 28, 29, 30, 31, 32, 33, 34, 35, 36, 37, 38, 39, 40, 41, 42, 43, 44, 45, 46, 47, 48, 49, 50, 51, 52, 53, 54, 55, 56, 57, 58, 59, 60, 61, 62, 63, 64, 65, 66, 67, 68, 69, 70, 71, 72, 73, 74, 75, 76, 77, 78, 79, 80, 81, 82, 83, 84, 85, 86, 87, 88, 89, 90, 91, 92, 93, 94, 95, 96, 97, 98, 99, 100, 101, 102, 103, 104, 105, 106, 107, 108, 109, 110, 111, 112, 113, 114, 115, 116, 117, 118, 119, 120, 121, 122, 123, 124, 125, 126, 127, 128, 129, 130, 131, 132, 133, 134, 135, 136, 137, 138, 139, 140, 141, 142, 143, 144, 145, 146, 147, 148, 149, 150, 151, 152, 153, 154, 155, 156, 157, 158, 159, 160, 161, 162, 163, 164, 165, 166, 167, 168, 169, 170, 171, 172, 173, 174, 175, 176, 177, 178, 179, 180, 181, 182, 183, 184, 185, 186, 187, 188, 189, 190, 191, 192],
      "AcquisitionTime": ["105924.570000", "105925.570000", "105926.570000", "105927.570000", "105928.570000", "105929.570000", "105930.570000", "105931.570000", "105932.570000", "105933.570000", "105934.570000", "105935.570000", "105936.570000", "105937.570000", "105938.570000", "105939.570000", "105940.570000", "105941.570000", "105942.570000", "105943.570000", "105944.570000", "105945.570000", "105946.570000", "105947.570000", "105948.570000", "105949.570000", "105950.570000", "105951.570000", "105952.570000", "105953.570000", "105954.570000", "105955.570000", "105956.570000", "105957.570000", "105958.570000", "105959.570000", "110000.570000", "110001.570000", "110002.570000", "110003.570000", "110004.570000", "110005.570000", "110006.570000", "110007.570000", "110008.570000", "110009.570000", "110010.570000", "110011.570000", "110012.570000", "110013.570000", "110014.570000", "110015.570000", "110016.570000", "110017.570000", "110018.570000", "110019.570000", "110020.570000", "110021.570000", "110022.570000", "110023.570000", "110024.570000", "110025.570000", "110026.570000", "110027.570000", "110028.570000", "110029.570000", "110030.570000", "110031.570000", "110032.570000", "110033.570000", "110034.570000", "110035.570000", "110036.570000", "110037.570000", "110038.570000", "110039.570000", "110040.570000", "110041.570000", "110042.570000", "110043.570000", "110044.570000", "110045.570000", "110046.570000", "110047.570000", "110048.570000", "110049.570000", "110050.570000", "110051.570000", "110052.570000", "110053.570000", "110054.570000", "110055.570000", "110056.570000", "110057.570000", "110058.570000", "110059.570000", "110100.570000", "110101.570000", "110102.570000", "110103.570000", "110104.570000", "110105.570000", "110106.570000", "110107.570000", "110108.570000", "110109.570000", "110110.570000", "110111.570000", "110112.570000", "110113.570000", "110114.570000", "110115.570000", "110116.570000", "110117.570000", "110118.570000", "110119.570000", "110120.570000", "110121.570000", "110122.570000", "110123.570000", "110124.570000", "110125.570000", "110126.570000", "110127.570000", "110128.570000", "110129.570000", "110130.570000", "110131.570000", "110132.570000", "110133.570000", "110134.570000", "110135.570000", "110136.570000", "110137.570000", "110138.570000", "110139.570000", "110140.570000", "110141.570000", "110142.570000", "110143.570000", "110144.570000", "110145.570000", "110146.570000", "110147.570000", "110148.570000", "110149.570000", "110150.570000", "110151.570000", "110152.570000", "110153.570000", "110154.570000", "110155.570000", "110156.570000", "110157.570000", "110158.570000", "110159.570000", "110200.570000", "110201.570000", "110202.570000", "110203.570000", "110204.570000", "110205.570000", "110206.570000", "110207.570000", "110208.570000", "110209.570000", "110210.570000", "110211.570000", "110212.570000", "110213.570000", "110214.570000", "110215.570000", "110216.570000", "110217.570000", "110218.570000", "110219.570000", "110220.570000", "110221.570000", "110222.570000", "110223.570000", "110224.570000", "110225.570000", "110226.570000", "110227.570000", "110228.570000", "110229.570000", "110230.570000", "110231.570000", "110232.570000", "110233.570000", "110234.570000", "110235.570000"],
      "ContentTime": ["110029.816000", "110029.819000", "110029.822000", "110029.825000", "110029.828000", "110029.830000", "110029.833000", "110029.836000", "110029.839000", "110029.842000", "110029.845000", "110029.848000", "110029.851000", "110029.854000", "110029.856000", "110029.859000", "110029.862000", "110029.865000", "110029.868000", "110029.871000", "110029.878000", "110049.781000", "110049.878000", "110049.881000", "110049.884000", "110049.887000", "110049.890000", "110049.892000", "110049.900000", "110049.903000", "110049.905000", "110049.908000", "110049.911000", "110049.914000", "110049.917000", "110049.920000", "110049.923000", "110049.926000", "110049.928000", "110049.931000", "110049.934000", "110049.937000", "110049.940000", "110049.943000", "110049.945000", "110049.948000", "110049.951000", "110049.954000", "110049.957000", "110049.960000", "110109.781000", "110109.784000", "110109.787000", "110109.789000", "110109.792000", "110109.795000", "110109.798000", "110109.801000", "110109.804000", "110109.807000", "110109.809000", "110109.812000", "110109.815000", "110109.818000", "110109.821000", "110109.824000", "110109.827000", "110109.829000", "110109.832000", "110109.835000", "110109.838000", "110109.841000", "110109.844000", "110109.847000", "110109.849000", "110109.852000", "110109.855000", "110109.858000", "110129.781000", "110129.784000", "110129.787000", "110129.790000", "110129.792000", "110129.795000", "110129.798000", "110129.801000", "110129.804000", "110129.807000", "110129.810000", "110129.812000", "110129.815000", "110129.818000", "110129.821000", "110129.824000", "110129.827000", "110129.830000", "110129.832000", "110129.835000", "110129.838000", "110129.841000", "110129.844000", "110129.847000", "110129.849000", "110129.858000", "110129.861000", "110129.864000", "110129.867000", "110149.781000", "110149.784000", "110149.787000", "110149.790000", "110149.792000", "110149.795000", "110149.798000", "110149.801000", "110149.804000", "110149.807000", "110149.810000", "110149.812000", "110149.815000", "110149.818000", "110149.821000", "110149.824000", "110149.827000", "110149.830000", "110149.832000", "110149.835000", "110149.838000", "110149.841000", "110149.844000", "110149.847000", "110149.856000", "110149.858000", "110149.861000", "110149.864000", "110209.781000", "110209.784000", "110209.787000", "110209.790000", "110209.793000", "110209.795000", "110209.798000", "110209.801000", "110209.804000", "110209.807000", "110209.810000", "110209.813000", "110209.816000", "110209.818000", "110209.821000", "110209.824000", "110209.827000", "110209.830000", "110209.833000", "110209.836000", "110209.838000", "110209.841000", "110209.844000", "110209.847000", "110209.850000", "110209.865000", "110209.868000", "110209.871000", "110229.781000", "110229.784000", "110229.787000", "110229.790000", "110229.792000", "110229.795000", "110229.798000", "110229.801000", "110229.804000", "110229.807000", "110229.810000", "110229.813000", "110229.815000", "110229.818000", "110229.821000", "110229.824000", "110229.827000", "110229.830000", "110229.833000", "110229.836000", "110229.838000", "110237.696000", "110237.699000", "110237.702000", "110237.705000", "110237.710000", "110237.714000", "110237.720000", "110237.725000"],
      "InstanceCreationTime": ["110029.816000", "110029.819000", "110029.822000", "110029.825000", "110029.828000", "110029.830000", "110029.833000", "110029.836000", "110029.839000", "110029.842000", "110029.845000", "110029.848000", "110029.851000", "110029.854000", "110029.856000", "110029.859000", "110029.862000", "110029.865000", "110029.868000", "110029.871000", "110029.878000", "110049.781000", "110049.878000", "110049.881000", "110049.884000", "110049.887000", "110049.890000", "110049.892000", "110049.900000", "110049.903000", "110049.905000", "110049.908000", "110049.911000", "110049.914000", "110049.917000", "110049.920000", "110049.923000", "110049.926000", "110049.928000", "110049.931000", "110049.934000", "110049.937000", "110049.940000", "110049.943000", "110049.945000", "110049.948000", "110049.951000", "110049.954000", "110049.957000", "110049.960000", "110109.781000", "110109.784000", "110109.787000", "110109.789000", "110109.792000", "110109.795000", "110109.798000", "110109.801000", "110109.804000", "110109.807000", "110109.809000", "110109.812000", "110109.815000", "110109.818000", "110109.821000", "110109.824000", "110109.827000", "110109.829000", "110109.832000", "110109.835000", "110109.838000", "110109.841000", "110109.844000", "110109.847000", "110109.849000", "110109.852000", "110109.855000", "110109.858000", "110129.781000", "110129.784000", "110129.787000", "110129.790000", "110129.792000", "110129.795000", "110129.798000", "110129.801000", "110129.804000", "110129.807000", "110129.810000", "110129.812000", "110129.815000", "110129.818000", "110129.821000", "110129.824000", "110129.827000", "110129.830000", "110129.832000", "110129.835000", "110129.838000", "110129.841000", "110129.844000", "110129.847000", "110129.849000", "110129.858000", "110129.861000", "110129.864000", "110129.867000", "110149.781000", "110149.784000", "110149.787000", "110149.790000", "110149.792000", "110149.795000", "110149.798000", "110149.801000", "110149.804000", "110149.807000", "110149.810000", "110149.812000", "110149.815000", "110149.818000", "110149.821000", "110149.824000", "110149.827000", "110149.830000", "110149.832000", "110149.835000", "110149.838000", "110149.841000", "110149.844000", "110149.847000", "110149.856000", "110149.858000", "110149.861000", "110149.864000", "110209.781000", "110209.784000", "110209.787000", "110209.790000", "110209.793000", "110209.795000", "110209.798000", "110209.801000", "110209.804000", "110209.807000", "110209.810000", "110209.813000", "110209.816000", "110209.818000", "110209.821000", "110209.824000", "110209.827000", "110209.830000", "110209.833000", "110209.836000", "110209.838000", "110209.841000", "110209.844000", "110209.847000", "110209.850000", "110209.865000", "110209.868000", "110209.871000", "110229.781000", "110229.784000", "110229.787000", "110229.790000", "110229.792000", "110229.795000", "110229.798000", "110229.801000", "110229.804000", "110229.807000", "110229.810000", "110229.813000", "110229.815000", "110229.818000", "110229.821000", "110229.824000", "110229.827000", "110229.830000", "110229.833000", "110229.836000", "110229.838000", "110237.696000", "110237.699000", "110237.702000", "110237.705000", "110237.710000", "110237.714000", "110237.720000", "110237.725000"],
      "InstanceNumber": [1, 2, 3, 4, 5, 6, 7, 8, 9, 10, 11, 12, 13, 14, 15, 16, 17, 18, 19, 20, 21, 22, 23, 24, 25, 26, 27, 28, 29, 30, 31, 32, 33, 34, 35, 36, 37, 38, 39, 40, 41, 42, 43, 44, 45, 46, 47, 48, 49, 50, 51, 52, 53, 54, 55, 56, 57, 58, 59, 60, 61, 62, 63, 64, 65, 66, 67, 68, 69, 70, 71, 72, 73, 74, 75, 76, 77, 78, 79, 80, 81, 82, 83, 84, 85, 86, 87, 88, 89, 90, 91, 92, 93, 94, 95, 96, 97, 98, 99, 100, 101, 102, 103, 104, 105, 106, 107, 108, 109, 110, 111, 112, 113, 114, 115, 116, 117, 118, 119, 120, 121, 122, 123, 124, 125, 126, 127, 128, 129, 130, 131, 132, 133, 134, 135, 136, 137, 138, 139, 140, 141, 142, 143, 144, 145, 146, 147, 148, 149, 150, 151, 152, 153, 154, 155, 156, 157, 158, 159, 160, 161, 162, 163, 164, 165, 166, 167, 168, 169, 170, 171, 172, 173, 174, 175, 176, 177, 178, 179, 180, 181, 182, 183, 184, 185, 186, 187, 188, 189, 190, 191, 192],
      "LargestImagePixelValue": [42459, 40969, 40293, 39841, 39703, 39350, 39243, 39135, 39404, 39402, 39232, 39278, 39621, 39234, 39829, 39240, 39351, 39129, 39330, 39372, 39446, 39288, 40019, 39142, 39507, 39484, 39703, 39365, 39553, 39837, 39886, 40049, 39603, 39568, 39920, 39818, 39799, 40061, 39608, 39957, 39454, 40115, 40051, 40055, 39283, 39586, 40253, 39958, 39880, 40022, 39846, 39636, 39781, 40245, 40042, 39823, 39603, 40072, 40216, 39588, 40139, 40014, 39749, 40120, 40424, 40081, 39832, 39987, 40089, 39993, 39552, 40221, 39993, 39785, 39736, 40109, 40249, 39561, 40074, 40136, 40548, 40568, 39753, 40173, 40327, 40358, 40102, 40294, 39601, 40543, 40404, 39754, 39888, 39995, 40243, 40281, 40009, 40211, 39821, 39954, 39653, 40122, 40543, 39902, 40553, 40472, 40295, 39681, 39731, 39873, 39925, 40086, 40346, 40401, 40105, 39680, 40198, 39982, 39403, 40408, 40668, 40203, 40403, 39925, 39837, 40005, 39545, 39658, 39371, 39776, 39953, 39667, 39594, 39791, 40321, 39645, 40328, 39835, 40147, 39592, 39347, 40384, 39900, 39666, 40055, 40176, 40079, 39731, 39753, 40507, 40034, 39845, 39999, 39585, 39762, 40037, 40399, 39790, 39417, 39632, 39969, 39968, 40686, 40305, 40126, 40222, 40529, 40079, 40031, 40664, 40195, 40238, 40375, 41092, 40663, 40165, 39866, 40163, 40139, 40079, 40540, 39586, 40088, 40692, 40196, 39920, 39917, 40327, 40682, 40019, 40136, 40260],
      "WindowCenter": [9756.0, 9730.0, 9716.0, 9721.0, 9716.0, 9707.0, 9701.0, 9703.0, 9716.0, 9719.0, 9732.0, 9727.0, 9724.0, 9718.0, 9728.0, 9722.0, 9717.0, 9725.0, 9731.0, 9725.0, 9725.0, 9720.0, 9717.0, 9710.0, 9723.0, 9725.0, 9723.0, 9723.0, 9729.0, 9723.0, 9720.0, 9714.0, 9720.0, 9715.0, 9716.0, 9716.0, 9709.0, 9714.0, 9713.0, 9713.0, 9708.0, 9714.0, 9714.0, 9706.0, 9706.0, 9714.0, 9712.0, 9704.0, 9698.0, 9696.0, 9695.0, 9696.0, 9704.0, 9720.0, 9716.0, 9713.0, 9700.0, 9704.0, 9696.0, 9688.0, 9696.0, 9705.0, 9715.0, 9730.0, 9736.0, 9729.0, 9717.0, 9715.0, 9713.0, 9705.0, 9707.0, 9713.0, 9704.0, 9698.0, 9704.0, 9705.0, 9709.0, 9707.0, 9713.0, 9707.0, 9717.0, 9719.0, 9721.0, 9735.0, 9739.0, 9733.0, 9727.0, 9714.0, 9700.0, 9704.0, 9695.0, 9689.0, 9705.0, 9713.0, 9714.0, 9705.0, 9699.0, 9697.0, 9696.0, 9703.0, 9706.0, 9713.0, 9719.0, 9714.0, 9721.0, 9715.0, 9712.0, 9698.0, 9700.0, 9712.0, 9706.0, 9712.0, 9714.0, 9707.0, 9698.0, 9692.0, 9703.0, 9689.0, 9676.0, 9683.0, 9689.0, 9688.0, 9690.0, 9690.0, 9690.0, 9674.0, 9667.0, 9659.0, 9658.0, 9657.0, 9655.0, 9655.0, 9663.0, 9679.0, 9686.0, 9680.0, 9672.0, 9671.0, 9663.0, 9657.0, 9659.0, 9677.0, 9674.0, 9674.0, 9679.0, 9679.0, 9674.0, 9667.0, 9673.0, 9684.0, 9673.0, 9672.0, 9680.0, 9674.0, 9673.0, 9678.0, 9679.0, 9672.0, 9673.0, 9681.0, 9687.0, 9680.0, 9686.0, 9687.0, 9681.0, 9688.0, 9696.0, 9690.0, 9699.0, 9712.0, 9713.0, 9713.0, 9707.0, 9704.0, 9695.0, 9687.0, 9690.0, 9704.0, 9705.0, 9704.0, 9710.0, 9698.0, 9696.0, 9696.0, 9695.0, 9696.0, 9705.0, 9714.0, 9714.0, 9699.0, 9692.0, 9680.0],
      "WindowWidth": [20737.0, 20667.0, 20633.0, 20637.0, 20625.0, 20603.0, 20590.0, 20598.0, 20625.0, 20637.0, 20663.0, 20651.0, 20642.0, 20630.0, 20645.0, 20634.0, 20626.0, 20644.0, 20656.0, 20644.0, 20645.0, 20635.0, 20628.0, 20615.0, 20639.0, 20643.0, 20638.0, 20638.0, 20651.0, 20638.0, 20630.0, 20619.0, 20629.0, 20620.0, 20623.0, 20620.0, 20606.0, 20617.0, 20612.0, 20613.0, 20604.0, 20615.0, 20614.0, 20595.0, 20597.0, 20613.0, 20607.0, 20589.0, 20576.0, 20569.0, 20567.0, 20573.0, 20595.0, 20629.0, 20621.0, 20612.0, 20585.0, 20590.0, 20571.0, 20555.0, 20574.0, 20595.0, 20621.0, 20654.0, 20665.0, 20649.0, 20623.0, 20617.0, 20609.0, 20594.0, 20599.0, 20611.0, 20590.0, 20578.0, 20588.0, 20592.0, 20599.0, 20600.0, 20613.0, 20598.0, 20618.0, 20623.0, 20632.0, 20664.0, 20672.0, 20659.0, 20643.0, 20611.0, 20583.0, 20586.0, 20567.0, 20559.0, 20593.0, 20612.0, 20613.0, 20592.0, 20578.0, 20571.0, 20570.0, 20587.0, 20595.0, 20611.0, 20623.0, 20614.0, 20628.0, 20615.0, 20603.0, 20576.0, 20582.0, 20606.0, 20595.0, 20606.0, 20611.0, 20594.0, 20574.0, 20562.0, 20581.0, 20552.0, 20527.0, 20541.0, 20555.0, 20554.0, 20560.0, 20557.0, 20554.0, 20517.0, 20501.0, 20486.0, 20484.0, 20479.0, 20474.0, 20474.0, 20497.0, 20533.0, 20547.0, 20531.0, 20513.0, 20510.0, 20494.0, 20481.0, 20487.0, 20525.0, 20519.0, 20521.0, 20531.0, 20529.0, 20521.0, 20507.0, 20519.0, 20537.0, 20518.0, 20517.0, 20533.0, 20521.0, 20517.0, 20525.0, 20526.0, 20513.0, 20518.0, 20535.0, 20547.0, 20533.0, 20545.0, 20546.0, 20539.0, 20553.0, 20569.0, 20558.0, 20580.0, 20608.0, 20610.0, 20611.0, 20596.0, 20585.0, 20560.0, 20546.0, 20556.0, 20586.0, 20588.0, 20587.0, 20597.0, 20575.0, 20569.0, 20568.0, 20567.0, 20569.0, 20592.0, 20611.0, 20608.0, 20578.0, 20558.0, 20529.0]
    },
    "slices": {}
  },
  "NumberOfVolumes": 192
}