{
  "AcquisitionMatrixPE": 104,
  "AcquisitionNumber": 1,
  "AcquisitionTime": "10:55:9.555000",
  "BandwidthPerPixelPhaseEncode": 16.297,
  "BaseResolution": 104,
  "BodyPartExamined": "BRAIN",
  "ConsistencyInfo": "N4_VE11C_LATEST_20160120",
  "ConversionSoftware": "dcm2niix",
  "ConversionSoftwareVersion": "v1.0.20200331",
  "DerivedVendorReportedEchoSpacing": 0.000590009,
  "DeviceSerialNumber": "166018",
  "DwellTime": 2.1e-06,
  "EchoTime": 0.0376,
  "EchoTrainLength": 104,
  "EffectiveEchoSpacing": 0.000590009,
  "FlipAngle": 68,
  "ImageComments": "Unaliased_MB6_PE3_LB",
  "ImageOrientationPatientDICOM": [0.998812, -0.00188016, 0.0486981, 0.0083678, 0.991032, -0.133364],
  "ImageType": [
    "ORIGINAL",
    "PRIMARY",
    "M",
    "MB",
    "ND",
    "MOSAIC"
],
  "ImagingFrequency": 123.191,
  "InPlanePhaseEncodingDirectionDICOM": "COL",
  "InstitutionAddress": "Washington_Place_6_NYC_NYC_US_10003",
  "InstitutionName": "NYU_-_CBI",
  "InstitutionalDepartmentName": "Department",
  "MRAcquisitionType": "2D",
  "MagneticFieldStrength": 3,
  "Manufacturer": "Siemens",
  "ManufacturersModelName": "Prisma",
  "Modality": "MR",
  "MultibandAccelerationFactor": 6,
  "PartialFourier": 1,
  "PatientPosition": "HFS",
  "PercentPhaseFOV": 100,
  "PercentSampling": 100,
  "PhaseEncodingDirection": "j",
  "PhaseEncodingSteps": 104,
  "PhaseResolution": 1,
  "PixelBandwidth": 2290,
  "ProcedureStepDescription": "Investigators_Winawer",
  "ProtocolName": "cmrr_mbepi_s6_2mm_66sl_PA_task-prf",
  "PulseSequenceDetails": "%CustomerSeq%_cmrr_mbep2d_bold",
  "ReceiveCoilActiveElements": "HC1-7",
  "ReceiveCoilName": "HeadNeck_64",
  "ReconMatrixPE": 104,
  "RepetitionTime": 1,
  "SAR": 0.0607197,
  "ScanOptions": "FS",
  "ScanningSequence": "EP",
  "SequenceName": "epfid2d1_104",
  "SequenceVariant": "SK_SS",
  "SeriesDescription": "cmrr_mbepi_s6_2mm_66sl_PA_task-prf",
  "SeriesNumber": 22,
  "ShimSetting": [260, -12640, -8437, 399, -69, -213, -38, 4],
  "SliceThickness": 2,
  "SliceTiming": [0, 0.5325, 0.0875, 0.6225, 0.1775, 0.7125, 0.265, 0.8, 0.355, 0.89, 0.445, 0, 0.5325, 0.0875, 0.6225, 0.1775, 0.7125, 0.265, 0.8, 0.355, 0.89, 0.445, 0, 0.5325, 0.0875, 0.6225, 0.1775, 0.7125, 0.265, 0.8, 0.355, 0.89, 0.445, 0, 0.5325, 0.0875, 0.6225, 0.1775, 0.7125, 0.265, 0.8, 0.355, 0.89, 0.445, 0, 0.5325, 0.0875, 0.6225, 0.1775, 0.7125, 0.265, 0.8, 0.355, 0.89, 0.445, 0, 0.5325, 0.0875, 0.6225, 0.1775, 0.7125, 0.265, 0.8, 0.355, 0.89, 0.445],
  "SoftwareVersions": "syngo_MR_E11",
  "SpacingBetweenSlices": 2,
  "StationName": "AWP166018",
  "TaskName": "prf",
  "TotalReadoutTime": 0.060771,
  "TxRefAmp": 199.303,
  "VendorReportedEchoSpacing": 0.00059,
  "WipMemBlock": "776dcde6-f6b9-4edf-a88b-858fb7a0e5e7||Sequence: R016 ve11c/master r/8780670; Nov 27 2017 15:05:12 by eja",
  "dcmmeta_affine": [
    [-1.9976235628128052, 0.016735604032874107, 0.09602134674787521, 107.77023315429688],
    [0.003760329680517316, 1.9820637702941895, -0.267225056886673, -70.01815032958984],
    [0.09739629924297333, 0.2667270004749298, 1.979740023612976, -47.58028793334961],
    [0.0, 0.0, 0.0, 1.0]
],
  "dcmmeta_reorient_transform": [
    [0.0, -1.0, 0.0, 103.0],
    [1.0, 0.0, 0.0, 0.0],
    [0.0, 0.0, 1.0, 0.0],
    [0.0, 0.0, 0.0, 1.0]
],
  "dcmmeta_shape": [104, 104, 66, 192],
  "dcmmeta_slice_dim": 2,
  "dcmmeta_version": 0.6,
  "global": {
    "const": {
      "AccessionNumber": "kh26bq36",
      "AcquisitionMatrix": [104, 0, 0, 104],
      "AngioFlag": "N",
      "BitsAllocated": 16,
      "BitsStored": 16,
      "BodyPartExamined": "BRAIN",
      "Columns": 936,
      "EchoNumbers": 1,
      "EchoTime": 37.6,
      "EchoTrainLength": 104,
      "FlipAngle": 68.0,
      "HighBit": 15,
      "ImageOrientationPatient": [0.99881177157187, -0.0018801648002, 0.04869815140005, 0.00836780230507, 0.99103186381031, -0.1333635062424],
      "ImagePositionPatient": [-947.46740799971, -957.10862645811, 50.334170661457],
      "ImageType": [
        "ORIGINAL",
        "PRIMARY",
        "M",
        "MB",
        "ND",
        "MOSAIC"
],
      "ImagedNucleus": "1H",
      "ImagingFrequency": 123.190663,
      "InPlanePhaseEncodingDirection": "COL",
      "MRAcquisitionType": "2D",
      "MagneticFieldStrength": 3.0,
      "Manufacturer": "SIEMENS",
      "ManufacturerModelName": "Prisma",
      "Modality": "MR",
      "NumberOfAverages": 1.0,
      "NumberOfPhaseEncodingSteps": 104,
      "PercentPhaseFieldOfView": 100.0,
      "PercentSampling": 100.0,
      "PerformedProcedureStepStartTime": "095140.540000",
      "PhotometricInterpretation": "MONOCHROME2",
      "PixelBandwidth": 2290.0,
      "PixelRepresentation": 0,
      "PixelSpacing": [2.0, 2.0],
      "ProtocolName": "cmrr_mbepi_s6_2mm_66sl_PA_task-prf",
      "RepetitionTime": 1000.0,
      "Rows": 936,
      "SAR": 0.06071968299982,
      "SamplesPerPixel": 1,
      "ScanOptions": "FS",
      "ScanningSequence": "EP",
      "SequenceName": "epfid2d1_104",
      "SequenceVariant": [
        "SK",
        "SS"
],
      "SeriesDescription": "cmrr_mbepi_s6_2mm_66sl_PA_task-prf",
      "SeriesNumber": 22,
      "SeriesTime": "105629.741000",
      "SliceLocation": -32.568875276939,
      "SliceThickness": 2.0,
      "SmallestImagePixelValue": 0,
      "SoftwareVersions": "syngo MR E11",
      "SpacingBetweenSlices": 1.9999999768666,
      "SpecificCharacterSet": "ISO_IR 100",
      "StudyID": "1",
      "StudyTime": "095140.416000",
      "TransmitCoilName": "Body",
      "VariableFlipAngleFlag": "N",
      "WindowCenterWidthExplanation": "Algo1",
      "dBdt": 0.0},
    "slices": {}
  },
  "time": {
    "samples": {
      "AcquisitionNumber": [1, 2, 3, 4, 5, 6, 7, 8, 9, 10, 11, 12, 13, 14, 15, 16, 17, 18, 19, 20, 21, 22, 23, 24, 25, 26, 27, 28, 29, 30, 31, 32, 33, 34, 35, 36, 37, 38, 39, 40, 41, 42, 43, 44, 45, 46, 47, 48, 49, 50, 51, 52, 53, 54, 55, 56, 57, 58, 59, 60, 61, 62, 63, 64, 65, 66, 67, 68, 69, 70, 71, 72, 73, 74, 75, 76, 77, 78, 79, 80, 81, 82, 83, 84, 85, 86, 87, 88, 89, 90, 91, 92, 93, 94, 95, 96, 97, 98, 99, 100, 101, 102, 103, 104, 105, 106, 107, 108, 109, 110, 111, 112, 113, 114, 115, 116, 117, 118, 119, 120, 121, 122, 123, 124, 125, 126, 127, 128, 129, 130, 131, 132, 133, 134, 135, 136, 137, 138, 139, 140, 141, 142, 143, 144, 145, 146, 147, 148, 149, 150, 151, 152, 153, 154, 155, 156, 157, 158, 159, 160, 161, 162, 163, 164, 165, 166, 167, 168, 169, 170, 171, 172, 173, 174, 175, 176, 177, 178, 179, 180, 181, 182, 183, 184, 185, 186, 187, 188, 189, 190, 191, 192],
      "AcquisitionTime": ["105509.555000", "105510.555000", "105511.555000", "105512.555000", "105513.555000", "105514.555000", "105515.555000", "105516.555000", "105517.555000", "105518.555000", "105519.555000", "105520.555000", "105521.555000", "105522.555000", "105523.555000", "105524.555000", "105525.555000", "105526.555000", "105527.555000", "105528.555000", "105529.555000", "105530.555000", "105531.555000", "105532.555000", "105533.555000", "105534.555000", "105535.555000", "105536.555000", "105537.555000", "105538.555000", "105539.555000", "105540.555000", "105541.555000", "105542.555000", "105543.555000", "105544.555000", "105545.555000", "105546.555000", "105547.555000", "105548.555000", "105549.555000", "105550.555000", "105551.555000", "105552.555000", "105553.555000", "105554.555000", "105555.555000", "105556.555000", "105557.555000", "105558.555000", "105559.555000", "105600.555000", "105601.555000", "105602.555000", "105603.555000", "105604.555000", "105605.555000", "105606.555000", "105607.555000", "105608.555000", "105609.555000", "105610.555000", "105611.555000", "105612.555000", "105613.555000", "105614.555000", "105615.555000", "105616.555000", "105617.555000", "105618.555000", "105619.555000", "105620.555000", "105621.555000", "105622.555000", "105623.555000", "105624.555000", "105625.555000", "105626.555000", "105627.555000", "105628.555000", "105629.555000", "105630.555000", "105631.555000", "105632.555000", "105633.555000", "105634.555000", "105635.555000", "105636.555000", "105637.555000", "105638.555000", "105639.555000", "105640.555000", "105641.555000", "105642.555000", "105643.555000", "105644.555000", "105645.555000", "105646.555000", "105647.555000", "105648.555000", "105649.555000", "105650.555000", "105651.555000", "105652.555000", "105653.555000", "105654.555000", "105655.555000", "105656.555000", "105657.555000", "105658.555000", "105659.555000", "105700.555000", "105701.555000", "105702.555000", "105703.555000", "105704.555000", "105705.555000", "105706.555000", "105707.555000", "105708.555000", "105709.555000", "105710.555000", "105711.555000", "105712.555000", "105713.555000", "105714.555000", "105715.555000", "105716.555000", "105717.555000", "105718.555000", "105719.555000", "105720.555000", "105721.555000", "105722.555000", "105723.555000", "105724.555000", "105725.555000", "105726.555000", "105727.555000", "105728.555000", "105729.555000", "105730.555000", "105731.555000", "105732.555000", "105733.555000", "105734.555000", "105735.555000", "105736.555000", "105737.555000", "105738.555000", "105739.555000", "105740.555000", "105741.555000", "105742.555000", "105743.555000", "105744.555000", "105745.555000", "105746.555000", "105747.555000", "105748.555000", "105749.555000", "105750.555000", "105751.555000", "105752.555000", "105753.555000", "105754.555000", "105755.555000", "105756.555000", "105757.555000", "105758.555000", "105759.555000", "105800.555000", "105801.555000", "105802.555000", "105803.555000", "105804.555000", "105805.555000", "105806.555000", "105807.555000", "105808.555000", "105809.555000", "105810.555000", "105811.555000", "105812.555000", "105813.555000", "105814.555000", "105815.555000", "105816.555000", "105817.555000", "105818.555000", "105819.555000", "105820.555000"],
      "ContentTime": ["105629.744000", "105629.758000", "105629.761000", "105629.764000", "105629.767000", "105629.791000", "105629.794000", "105629.797000", "105629.816000", "105629.819000", "105629.830000", "105629.833000", "105629.836000", "105629.839000", "105629.847000", "105629.849000", "105629.852000", "105629.855000", "105629.858000", "105629.861000", "105629.864000", "105629.867000", "105629.869000", "105629.872000", "105629.875000", "105629.878000", "105629.881000", "105629.884000", "105629.887000", "105629.889000", "105629.892000", "105629.895000", "105629.898000", "105629.901000", "105629.904000", "105629.907000", "105629.909000", "105629.912000", "105629.915000", "105629.918000", "105629.921000", "105629.924000", "105629.926000", "105649.711000", "105649.714000", "105649.717000", "105649.720000", "105649.723000", "105649.725000", "105649.728000", "105649.731000", "105649.734000", "105649.737000", "105649.740000", "105649.743000", "105649.745000", "105649.748000", "105649.751000", "105649.763000", "105649.766000", "105649.769000", "105649.772000", "105649.775000", "105649.777000", "105649.780000", "105649.783000", "105649.786000", "105649.789000", "105649.792000", "105649.794000", "105649.797000", "105709.711000", "105709.714000", "105709.717000", "105709.720000", "105709.722000", "105709.725000", "105709.728000", "105709.731000", "105709.734000", "105709.737000", "105709.740000", "105709.742000", "105709.745000", "105709.748000", "105709.751000", "105709.754000", "105709.765000", "105709.768000", "105709.843000", "105709.846000", "105709.849000", "105709.851000", "105709.854000", "105709.857000", "105709.860000", "105709.863000", "105709.866000", "105709.868000", "105709.871000", "105729.711000", "105729.714000", "105729.717000", "105729.720000", "105729.722000", "105729.725000", "105729.728000", "105729.731000", "105729.734000", "105729.737000", "105729.740000", "105729.743000", "105729.745000", "105729.748000", "105729.751000", "105729.754000", "105729.757000", "105729.760000", "105729.763000", "105729.766000", "105729.768000", "105729.771000", "105729.774000", "105729.777000", "105729.780000", "105729.783000", "105729.786000", "105729.789000", "105749.711000", "105749.714000", "105749.717000", "105749.720000", "105749.722000", "105749.725000", "105749.728000", "105749.731000", "105749.734000", "105749.737000", "105749.740000", "105749.743000", "105749.746000", "105749.748000", "105749.751000", "105749.754000", "105749.757000", "105749.760000", "105749.763000", "105749.766000", "105749.769000", "105749.772000", "105749.774000", "105749.777000", "105749.780000", "105749.783000", "105749.786000", "105749.789000", "105749.791000", "105809.711000", "105809.714000", "105809.717000", "105809.731000", "105809.734000", "105809.737000", "105809.739000", "105809.742000", "105809.745000", "105809.748000", "105809.751000", "105809.754000", "105809.757000", "105809.759000", "105809.762000", "105809.765000", "105809.768000", "105809.791000", "105809.794000", "105809.797000", "105809.800000", "105809.803000", "105822.455000", "105822.458000", "105822.461000", "105822.464000", "105822.467000", "105822.470000", "105822.473000", "105822.476000", "105822.479000", "105822.482000", "105822.485000", "105822.487000", "105822.490000"],
      "InstanceCreationTime": ["105629.744000", "105629.758000", "105629.761000", "105629.764000", "105629.767000", "105629.791000", "105629.794000", "105629.797000", "105629.816000", "105629.819000", "105629.830000", "105629.833000", "105629.836000", "105629.839000", "105629.847000", "105629.849000", "105629.852000", "105629.855000", "105629.858000", "105629.861000", "105629.864000", "105629.867000", "105629.869000", "105629.872000", "105629.875000", "105629.878000", "105629.881000", "105629.884000", "105629.887000", "105629.889000", "105629.892000", "105629.895000", "105629.898000", "105629.901000", "105629.904000", "105629.907000", "105629.909000", "105629.912000", "105629.915000", "105629.918000", "105629.921000", "105629.924000", "105629.926000", "105649.711000", "105649.714000", "105649.717000", "105649.720000", "105649.723000", "105649.725000", "105649.728000", "105649.731000", "105649.734000", "105649.737000", "105649.740000", "105649.743000", "105649.745000", "105649.748000", "105649.751000", "105649.763000", "105649.766000", "105649.769000", "105649.772000", "105649.775000", "105649.777000", "105649.780000", "105649.783000", "105649.786000", "105649.789000", "105649.792000", "105649.794000", "105649.797000", "105709.711000", "105709.714000", "105709.717000", "105709.720000", "105709.722000", "105709.725000", "105709.728000", "105709.731000", "105709.734000", "105709.737000", "105709.740000", "105709.742000", "105709.745000", "105709.748000", "105709.751000", "105709.754000", "105709.765000", "105709.768000", "105709.843000", "105709.846000", "105709.849000", "105709.851000", "105709.854000", "105709.857000", "105709.860000", "105709.863000", "105709.866000", "105709.868000", "105709.871000", "105729.711000", "105729.714000", "105729.717000", "105729.720000", "105729.722000", "105729.725000", "105729.728000", "105729.731000", "105729.734000", "105729.737000", "105729.740000", "105729.743000", "105729.745000", "105729.748000", "105729.751000", "105729.754000", "105729.757000", "105729.760000", "105729.763000", "105729.766000", "105729.768000", "105729.771000", "105729.774000", "105729.777000", "105729.780000", "105729.783000", "105729.786000", "105729.789000", "105749.711000", "105749.714000", "105749.717000", "105749.720000", "105749.722000", "105749.725000", "105749.728000", "105749.731000", "105749.734000", "105749.737000", "105749.740000", "105749.743000", "105749.746000", "105749.748000", "105749.751000", "105749.754000", "105749.757000", "105749.760000", "105749.763000", "105749.766000", "105749.769000", "105749.772000", "105749.774000", "105749.777000", "105749.780000", "105749.783000", "105749.786000", "105749.789000", "105749.791000", "105809.711000", "105809.714000", "105809.717000", "105809.731000", "105809.734000", "105809.737000", "105809.739000", "105809.742000", "105809.745000", "105809.748000", "105809.751000", "105809.754000", "105809.757000", "105809.759000", "105809.762000", "105809.765000", "105809.768000", "105809.791000", "105809.794000", "105809.797000", "105809.800000", "105809.803000", "105822.455000", "105822.458000", "105822.461000", "105822.464000", "105822.467000", "105822.470000", "105822.473000", "105822.476000", "105822.479000", "105822.482000", "105822.485000", "105822.487000", "105822.490000"],
      "InstanceNumber": [1, 2, 3, 4, 5, 6, 7, 8, 9, 10, 11, 12, 13, 14, 15, 16, 17, 18, 19, 20, 21, 22, 23, 24, 25, 26, 27, 28, 29, 30, 31, 32, 33, 34, 35, 36, 37, 38, 39, 40, 41, 42, 43, 44, 45, 46, 47, 48, 49, 50, 51, 52, 53, 54, 55, 56, 57, 58, 59, 60, 61, 62, 63, 64, 65, 66, 67, 68, 69, 70, 71, 72, 73, 74, 75, 76, 77, 78, 79, 80, 81, 82, 83, 84, 85, 86, 87, 88, 89, 90, 91, 92, 93, 94, 95, 96, 97, 98, 99, 100, 101, 102, 103, 104, 105, 106, 107, 108, 109, 110, 111, 112, 113, 114, 115, 116, 117, 118, 119, 120, 121, 122, 123, 124, 125, 126, 127, 128, 129, 130, 131, 132, 133, 134, 135, 136, 137, 138, 139, 140, 141, 142, 143, 144, 145, 146, 147, 148, 149, 150, 151, 152, 153, 154, 155, 156, 157, 158, 159, 160, 161, 162, 163, 164, 165, 166, 167, 168, 169, 170, 171, 172, 173, 174, 175, 176, 177, 178, 179, 180, 181, 182, 183, 184, 185, 186, 187, 188, 189, 190, 191, 192],
      "LargestImagePixelValue": [44182, 43078, 42400, 42429, 41948, 41942, 41866, 41746, 41933, 41731, 41838, 42328, 41683, 41715, 41758, 41937, 42053, 43148, 42218, 42294, 42375, 42427, 42025, 41913, 41996, 41821, 41873, 41648, 42117, 42725, 42159, 42443, 42521, 42507, 42696, 42478, 41881, 42814, 42930, 42514, 42089, 42651, 42873, 43142, 43003, 42653, 42982, 43363, 42460, 43143, 42993, 43598, 43171, 42863, 42220, 42713, 42678, 42630, 42816, 42287, 42929, 43399, 42809, 42960, 43663, 43029, 43252, 42969, 42740, 42567, 42535, 41622, 42251, 42688, 42934, 42284, 42574, 42722, 42514, 42351, 42932, 42706, 42648, 42894, 42330, 42594, 42571, 42373, 41963, 42281, 42483, 41841, 42712, 42536, 42289, 41902, 42762, 42346, 42244, 42256, 42448, 42556, 42871, 42314, 42446, 42576, 42539, 42405, 42561, 42221, 42264, 42458, 42862, 42561, 42386, 42411, 42083, 42564, 42357, 42226, 41773, 41879, 42359, 42055, 42111, 42190, 41979, 42647, 43015, 41866, 42227, 42647, 42364, 42303, 42772, 42204, 42046, 42411, 42171, 42165, 42420, 42736, 41752, 41893, 42680, 41593, 41819, 42456, 41854, 41857, 42056, 42169, 41863, 42512, 41912, 42010, 42513, 42570, 41828, 42555, 42883, 42132, 42525, 42770, 42320, 42202, 42033, 42164, 41634, 41577, 41544, 42111, 41841, 41947, 42046, 42184, 41816, 42309, 42406, 41934, 42275, 42491, 42298, 42452, 41926, 42041, 42086, 42361, 42042, 42039, 42039, 42101],
      "WindowCenter": [9821.0, 9790.0, 9767.0, 9763.0, 9757.0, 9756.0, 9755.0, 9743.0, 9746.0, 9732.0, 9724.0, 9722.0, 9722.0, 9735.0, 9745.0, 9759.0, 9763.0, 9765.0, 9752.0, 9745.0, 9737.0, 9728.0, 9728.0, 9737.0, 9745.0, 9753.0, 9754.0, 9750.0, 9756.0, 9759.0, 9745.0, 9749.0, 9743.0, 9742.0, 9749.0, 9745.0, 9740.0, 9736.0, 9734.0, 9727.0, 9722.0, 9732.0, 9741.0, 9740.0, 9733.0, 9719.0, 9710.0, 9721.0, 9718.0, 9724.0, 9723.0, 9729.0, 9730.0, 9726.0, 9721.0, 9719.0, 9717.0, 9718.0, 9723.0, 9719.0, 9731.0, 9745.0, 9749.0, 9749.0, 9748.0, 9748.0, 9755.0, 9751.0, 9757.0, 9766.0, 9775.0, 9767.0, 9771.0, 9770.0, 9768.0, 9768.0, 9761.0, 9758.0, 9761.0, 9768.0, 9773.0, 9767.0, 9767.0, 9760.0, 9755.0, 9759.0, 9765.0, 9769.0, 9770.0, 9763.0, 9761.0, 9748.0, 9740.0, 9737.0, 9736.0, 9732.0, 9750.0, 9752.0, 9769.0, 9769.0, 9767.0, 9759.0, 9758.0, 9752.0, 9759.0, 9768.0, 9781.0, 9777.0, 9783.0, 9771.0, 9769.0, 9768.0, 9773.0, 9775.0, 9782.0, 9784.0, 9785.0, 9784.0, 9771.0, 9763.0, 9750.0, 9748.0, 9760.0, 9763.0, 9776.0, 9778.0, 9772.0, 9770.0, 9767.0, 9749.0, 9746.0, 9744.0, 9754.0, 9767.0, 9774.0, 9776.0, 9779.0, 9778.0, 9771.0, 9762.0, 9767.0, 9767.0, 9758.0, 9770.0, 9762.0, 9764.0, 9772.0, 9777.0, 9764.0, 9763.0, 9751.0, 9759.0, 9754.0, 9766.0, 9764.0, 9770.0, 9768.0, 9768.0, 9777.0, 9784.0, 9784.0, 9780.0, 9778.0, 9774.0, 9762.0, 9756.0, 9748.0, 9747.0, 9744.0, 9744.0, 9743.0, 9747.0, 9747.0, 9741.0, 9733.0, 9730.0, 9730.0, 9736.0, 9742.0, 9739.0, 9746.0, 9744.0, 9744.0, 9751.0, 9739.0, 9738.0, 9738.0, 9739.0, 9738.0, 9739.0, 9739.0, 9745.0],
      "WindowWidth": [20894.0, 20809.0, 20750.0, 20735.0, 20723.0, 20720.0, 20713.0, 20687.0, 20686.0, 20658.0, 20640.0, 20633.0, 20635.0, 20664.0, 20691.0, 20720.0, 20731.0, 20728.0, 20700.0, 20685.0, 20665.0, 20643.0, 20648.0, 20670.0, 20687.0, 20708.0, 20710.0, 20703.0, 20713.0, 20717.0, 20687.0, 20691.0, 20677.0, 20675.0, 20693.0, 20687.0, 20675.0, 20663.0, 20658.0, 20643.0, 20633.0, 20654.0, 20674.0, 20671.0, 20653.0, 20620.0, 20601.0, 20624.0, 20622.0, 20632.0, 20628.0, 20639.0, 20644.0, 20640.0, 20630.0, 20622.0, 20620.0, 20622.0, 20630.0, 20626.0, 20650.0, 20682.0, 20693.0, 20691.0, 20687.0, 20692.0, 20707.0, 20701.0, 20715.0, 20737.0, 20758.0, 20747.0, 20751.0, 20748.0, 20739.0, 20742.0, 20725.0, 20715.0, 20723.0, 20740.0, 20748.0, 20734.0, 20734.0, 20721.0, 20709.0, 20715.0, 20730.0, 20743.0, 20745.0, 20727.0, 20721.0, 20694.0, 20673.0, 20666.0, 20667.0, 20661.0, 20695.0, 20704.0, 20741.0, 20739.0, 20734.0, 20715.0, 20711.0, 20700.0, 20717.0, 20738.0, 20764.0, 20758.0, 20768.0, 20746.0, 20738.0, 20735.0, 20745.0, 20753.0, 20769.0, 20775.0, 20779.0, 20774.0, 20746.0, 20727.0, 20698.0, 20693.0, 20719.0, 20731.0, 20758.0, 20761.0, 20750.0, 20743.0, 20731.0, 20694.0, 20685.0, 20682.0, 20706.0, 20735.0, 20748.0, 20756.0, 20764.0, 20759.0, 20743.0, 20724.0, 20734.0, 20736.0, 20720.0, 20742.0, 20725.0, 20732.0, 20750.0, 20757.0, 20732.0, 20726.0, 20701.0, 20715.0, 20706.0, 20730.0, 20732.0, 20741.0, 20734.0, 20735.0, 20758.0, 20770.0, 20771.0, 20763.0, 20754.0, 20744.0, 20722.0, 20707.0, 20688.0, 20688.0, 20684.0, 20684.0, 20682.0, 20688.0, 20690.0, 20675.0, 20656.0, 20645.0, 20646.0, 20656.0, 20670.0, 20670.0, 20682.0, 20675.0, 20678.0, 20692.0, 20670.0, 20667.0, 20667.0, 20668.0, 20668.0, 20670.0, 20669.0, 20681.0]
    },
    "slices": {}
  },
  "NumberOfVolumes": 192
}