{
  "AcquisitionMatrixPE": 104,
  "AcquisitionNumber": 1,
  "AcquisitionTime": "10:27:18.457500",
  "BandwidthPerPixelPhaseEncode": 16.297,
  "BaseResolution": 104,
  "BodyPartExamined": "BRAIN",
  "ConsistencyInfo": "N4_VE11C_LATEST_20160120",
  "ConversionSoftware": "dcm2niix",
  "ConversionSoftwareVersion": "v1.0.20200331",
  "DerivedVendorReportedEchoSpacing": 0.000590009,
  "DeviceSerialNumber": "166018",
  "DwellTime": 2.1e-06,
  "EchoTime": 0.0376,
  "EchoTrainLength": 104,
  "EffectiveEchoSpacing": 0.000590009,
  "FlipAngle": 68,
  "ImageComments": "Unaliased_MB6_PE3_LB",
  "ImageOrientationPatientDICOM": [0.998812, -0.00188016, 0.0486981, 0.0083678, 0.991032, -0.133364],
  "ImageType": [
    "ORIGINAL",
    "PRIMARY",
    "M",
    "MB",
    "ND",
    "MOSAIC"
],
  "ImagingFrequency": 123.191,
  "InPlanePhaseEncodingDirectionDICOM": "COL",
  "InstitutionAddress": "Washington_Place_6_NYC_NYC_US_10003",
  "InstitutionName": "NYU_-_CBI",
  "InstitutionalDepartmentName": "Department",
  "MRAcquisitionType": "2D",
  "MagneticFieldStrength": 3,
  "Manufacturer": "Siemens",
  "ManufacturersModelName": "Prisma",
  "Modality": "MR",
  "MultibandAccelerationFactor": 6,
  "PartialFourier": 1,
  "PatientPosition": "HFS",
  "PercentPhaseFOV": 100,
  "PercentSampling": 100,
  "PhaseEncodingDirection": "j",
  "PhaseEncodingSteps": 104,
  "PhaseResolution": 1,
  "PixelBandwidth": 2290,
  "ProcedureStepDescription": "Investigators_Winawer",
  "ProtocolName": "cmrr_mbepi_s6_2mm_66sl_PA_task-prf",
  "PulseSequenceDetails": "%CustomerSeq%_cmrr_mbep2d_bold",
  "ReceiveCoilActiveElements": "HC1-7",
  "ReceiveCoilName": "HeadNeck_64",
  "ReconMatrixPE": 104,
  "RepetitionTime": 1,
  "SAR": 0.0607197,
  "ScanOptions": "FS",
  "ScanningSequence": "EP",
  "SequenceName": "epfid2d1_104",
  "SequenceVariant": "SK_SS",
  "SeriesDescription": "cmrr_mbepi_s6_2mm_66sl_PA_task-prf",
  "SeriesNumber": 10,
  "ShimSetting": [260, -12640, -8437, 399, -69, -213, -38, 4],
  "SliceThickness": 2,
  "SliceTiming": [0, 0.5325, 0.0875, 0.6225, 0.1775, 0.7125, 0.2675, 0.8, 0.355, 0.89, 0.445, 0, 0.5325, 0.0875, 0.6225, 0.1775, 0.7125, 0.2675, 0.8, 0.355, 0.89, 0.445, 0, 0.5325, 0.0875, 0.6225, 0.1775, 0.7125, 0.2675, 0.8, 0.355, 0.89, 0.445, 0, 0.5325, 0.0875, 0.6225, 0.1775, 0.7125, 0.2675, 0.8, 0.355, 0.89, 0.445, 0, 0.5325, 0.0875, 0.6225, 0.1775, 0.7125, 0.2675, 0.8, 0.355, 0.89, 0.445, 0, 0.5325, 0.0875, 0.6225, 0.1775, 0.7125, 0.2675, 0.8, 0.355, 0.89, 0.445],
  "SoftwareVersions": "syngo_MR_E11",
  "SpacingBetweenSlices": 2,
  "StationName": "AWP166018",
  "TaskName": "prf",
  "TotalReadoutTime": 0.060771,
  "TxRefAmp": 199.303,
  "VendorReportedEchoSpacing": 0.00059,
  "WipMemBlock": "776dcde6-f6b9-4edf-a88b-858fb7a0e5e7||Sequence: R016 ve11c/master r/8780670; Nov 27 2017 15:05:12 by eja",
  "dcmmeta_affine": [
    [-1.9976235628128052, 0.016735604032874107, 0.09602134674787521, 107.77023315429688],
    [0.003760329680517316, 1.9820637702941895, -0.267225056886673, -70.01815032958984],
    [0.09739629924297333, 0.2667270004749298, 1.979740023612976, -47.58028793334961],
    [0.0, 0.0, 0.0, 1.0]
],
  "dcmmeta_reorient_transform": [
    [0.0, -1.0, 0.0, 103.0],
    [1.0, 0.0, 0.0, 0.0],
    [0.0, 0.0, 1.0, 0.0],
    [0.0, 0.0, 0.0, 1.0]
],
  "dcmmeta_shape": [104, 104, 66, 192],
  "dcmmeta_slice_dim": 2,
  "dcmmeta_version": 0.6,
  "global": {
    "const": {
      "AccessionNumber": "kh26bq36",
      "AcquisitionMatrix": [104, 0, 0, 104],
      "AngioFlag": "N",
      "BitsAllocated": 16,
      "BitsStored": 16,
      "BodyPartExamined": "BRAIN",
      "Columns": 936,
      "EchoNumbers": 1,
      "EchoTime": 37.6,
      "EchoTrainLength": 104,
      "FlipAngle": 68.0,
      "HighBit": 15,
      "ImageOrientationPatient": [0.99881177157187, -0.0018801648002, 0.04869815140005, 0.00836780230507, 0.99103186381031, -0.1333635062424],
      "ImagePositionPatient": [-947.46740799971, -957.10862645811, 50.334170661457],
      "ImageType": [
        "ORIGINAL",
        "PRIMARY",
        "M",
        "MB",
        "ND",
        "MOSAIC"
],
      "ImagedNucleus": "1H",
      "ImagingFrequency": 123.190663,
      "InPlanePhaseEncodingDirection": "COL",
      "MRAcquisitionType": "2D",
      "MagneticFieldStrength": 3.0,
      "Manufacturer": "SIEMENS",
      "ManufacturerModelName": "Prisma",
      "Modality": "MR",
      "NumberOfAverages": 1.0,
      "NumberOfPhaseEncodingSteps": 104,
      "PercentPhaseFieldOfView": 100.0,
      "PercentSampling": 100.0,
      "PerformedProcedureStepStartTime": "095140.540000",
      "PhotometricInterpretation": "MONOCHROME2",
      "PixelBandwidth": 2290.0,
      "PixelRepresentation": 0,
      "PixelSpacing": [2.0, 2.0],
      "ProtocolName": "cmrr_mbepi_s6_2mm_66sl_PA_task-prf",
      "RepetitionTime": 1000.0,
      "Rows": 936,
      "SAR": 0.06071968299982,
      "SamplesPerPixel": 1,
      "ScanOptions": "FS",
      "ScanningSequence": "EP",
      "SequenceName": "epfid2d1_104",
      "SequenceVariant": [
        "SK",
        "SS"
],
      "SeriesDescription": "cmrr_mbepi_s6_2mm_66sl_PA_task-prf",
      "SeriesNumber": 10,
      "SeriesTime": "102829.870000",
      "SliceLocation": -32.568875276939,
      "SliceThickness": 2.0,
      "SmallestImagePixelValue": 0,
      "SoftwareVersions": "syngo MR E11",
      "SpacingBetweenSlices": 1.9999999768666,
      "SpecificCharacterSet": "ISO_IR 100",
      "StudyID": "1",
      "StudyTime": "095140.416000",
      "TransmitCoilName": "Body",
      "VariableFlipAngleFlag": "N",
      "WindowCenterWidthExplanation": "Algo1",
      "dBdt": 0.0},
    "slices": {}
  },
  "time": {
    "samples": {
      "AcquisitionNumber": [1, 2, 3, 4, 5, 6, 7, 8, 9, 10, 11, 12, 13, 14, 15, 16, 17, 18, 19, 20, 21, 22, 23, 24, 25, 26, 27, 28, 29, 30, 31, 32, 33, 34, 35, 36, 37, 38, 39, 40, 41, 42, 43, 44, 45, 46, 47, 48, 49, 50, 51, 52, 53, 54, 55, 56, 57, 58, 59, 60, 61, 62, 63, 64, 65, 66, 67, 68, 69, 70, 71, 72, 73, 74, 75, 76, 77, 78, 79, 80, 81, 82, 83, 84, 85, 86, 87, 88, 89, 90, 91, 92, 93, 94, 95, 96, 97, 98, 99, 100, 101, 102, 103, 104, 105, 106, 107, 108, 109, 110, 111, 112, 113, 114, 115, 116, 117, 118, 119, 120, 121, 122, 123, 124, 125, 126, 127, 128, 129, 130, 131, 132, 133, 134, 135, 136, 137, 138, 139, 140, 141, 142, 143, 144, 145, 146, 147, 148, 149, 150, 151, 152, 153, 154, 155, 156, 157, 158, 159, 160, 161, 162, 163, 164, 165, 166, 167, 168, 169, 170, 171, 172, 173, 174, 175, 176, 177, 178, 179, 180, 181, 182, 183, 184, 185, 186, 187, 188, 189, 190, 191, 192],
      "AcquisitionTime": ["102718.457500", "102719.457500", "102720.457500", "102721.457500", "102722.457500", "102723.457500", "102724.457500", "102725.457500", "102726.457500", "102727.457500", "102728.457500", "102729.457500", "102730.457500", "102731.457500", "102732.457500", "102733.457500", "102734.457500", "102735.457500", "102736.457500", "102737.457500", "102738.457500", "102739.457500", "102740.457500", "102741.457500", "102742.457500", "102743.457500", "102744.457500", "102745.457500", "102746.457500", "102747.457500", "102748.457500", "102749.457500", "102750.457500", "102751.457500", "102752.457500", "102753.457500", "102754.457500", "102755.457500", "102756.457500", "102757.457500", "102758.457500", "102759.457500", "102800.457500", "102801.457500", "102802.457500", "102803.457500", "102804.457500", "102805.457500", "102806.457500", "102807.457500", "102808.457500", "102809.457500", "102810.457500", "102811.457500", "102812.457500", "102813.457500", "102814.457500", "102815.457500", "102816.457500", "102817.457500", "102818.457500", "102819.457500", "102820.457500", "102821.457500", "102822.457500", "102823.457500", "102824.457500", "102825.457500", "102826.457500", "102827.457500", "102828.457500", "102829.457500", "102830.457500", "102831.457500", "102832.457500", "102833.457500", "102834.457500", "102835.457500", "102836.457500", "102837.457500", "102838.457500", "102839.457500", "102840.457500", "102841.457500", "102842.457500", "102843.457500", "102844.457500", "102845.457500", "102846.457500", "102847.457500", "102848.457500", "102849.457500", "102850.457500", "102851.457500", "102852.457500", "102853.457500", "102854.457500", "102855.457500", "102856.457500", "102857.457500", "102858.457500", "102859.457500", "102900.457500", "102901.457500", "102902.457500", "102903.457500", "102904.457500", "102905.457500", "102906.457500", "102907.457500", "102908.457500", "102909.457500", "102910.457500", "102911.457500", "102912.457500", "102913.457500", "102914.457500", "102915.457500", "102916.457500", "102917.457500", "102918.457500", "102919.457500", "102920.457500", "102921.457500", "102922.457500", "102923.457500", "102924.457500", "102925.457500", "102926.457500", "102927.457500", "102928.457500", "102929.457500", "102930.457500", "102931.457500", "102932.457500", "102933.457500", "102934.457500", "102935.457500", "102936.457500", "102937.457500", "102938.457500", "102939.457500", "102940.457500", "102941.457500", "102942.457500", "102943.457500", "102944.457500", "102945.457500", "102946.457500", "102947.457500", "102948.457500", "102949.457500", "102950.457500", "102951.457500", "102952.457500", "102953.457500", "102954.457500", "102955.457500", "102956.457500", "102957.457500", "102958.457500", "102959.457500", "103000.457500", "103001.457500", "103002.457500", "103003.457500", "103004.457500", "103005.457500", "103006.457500", "103007.457500", "103008.457500", "103009.457500", "103010.457500", "103011.457500", "103012.457500", "103013.457500", "103014.457500", "103015.457500", "103016.457500", "103017.457500", "103018.457500", "103019.457500", "103020.457500", "103021.457500", "103022.457500", "103023.457500", "103024.457500", "103025.457500", "103026.457500", "103027.457500", "103028.457500", "103029.457500"],
      "ContentTime": ["102829.873000", "102829.877000", "102829.880000", "102829.882000", "102829.885000", "102829.888000", "102829.911000", "102829.914000", "102829.917000", "102829.920000", "102829.923000", "102829.926000", "102829.929000", "102829.932000", "102829.935000", "102829.938000", "102829.940000", "102829.943000", "102829.946000", "102829.949000", "102829.952000", "102829.955000", "102829.958000", "102829.961000", "102829.963000", "102829.966000", "102829.969000", "102829.972000", "102849.849000", "102849.852000", "102849.855000", "102849.858000", "102849.860000", "102849.863000", "102849.866000", "102849.869000", "102849.872000", "102849.875000", "102849.877000", "102849.880000", "102849.883000", "102849.886000", "102849.889000", "102849.892000", "102849.895000", "102849.897000", "102849.900000", "102849.903000", "102849.918000", "102849.920000", "102849.923000", "102849.926000", "102849.929000", "102849.932000", "102849.935000", "102849.938000", "102909.849000", "102909.852000", "102909.855000", "102909.857000", "102909.860000", "102909.863000", "102909.866000", "102909.869000", "102909.872000", "102909.874000", "102909.877000", "102909.880000", "102909.883000", "102909.886000", "102909.889000", "102909.892000", "102909.894000", "102909.897000", "102909.900000", "102909.903000", "102909.906000", "102909.909000", "102909.911000", "102909.914000", "102909.917000", "102909.920000", "102909.923000", "102909.926000", "102909.928000", "102929.849000", "102929.856000", "102929.859000", "102929.861000", "102929.864000", "102929.867000", "102929.870000", "102929.873000", "102929.876000", "102929.878000", "102929.881000", "102929.884000", "102929.887000", "102929.890000", "102929.893000", "102929.895000", "102929.898000", "102929.901000", "102929.904000", "102929.907000", "102929.910000", "102929.913000", "102929.915000", "102929.918000", "102929.921000", "102929.924000", "102929.927000", "102929.942000", "102949.849000", "102949.852000", "102949.854000", "102949.857000", "102949.860000", "102949.863000", "102949.866000", "102949.869000", "102949.871000", "102949.874000", "102949.877000", "102949.880000", "102949.883000", "102949.886000", "102949.889000", "102949.892000", "102949.894000", "102949.897000", "102949.900000", "102949.903000", "102949.906000", "102949.909000", "102949.911000", "102949.914000", "102949.917000", "102949.920000", "102949.923000", "102949.926000", "102949.929000", "103009.849000", "103009.889000", "103009.891000", "103009.894000", "103009.897000", "103009.900000", "103009.903000", "103009.906000", "103009.909000", "103009.911000", "103009.914000", "103009.917000", "103009.920000", "103009.923000", "103009.926000", "103009.928000", "103009.931000", "103009.934000", "103009.937000", "103009.940000", "103009.943000", "103009.946000", "103009.949000", "103009.951000", "103009.954000", "103009.957000", "103009.960000", "103009.963000", "103029.849000", "103029.852000", "103029.855000", "103029.858000", "103029.860000", "103029.863000", "103029.866000", "103029.869000", "103029.872000", "103029.875000", "103029.878000", "103029.881000", "103029.883000", "103029.886000", "103029.889000", "103029.892000", "103029.895000", "103029.898000", "103029.901000", "103029.903000", "103031.408000", "103031.411000"],
      "InstanceCreationTime": ["102829.873000", "102829.877000", "102829.880000", "102829.882000", "102829.885000", "102829.888000", "102829.911000", "102829.914000", "102829.917000", "102829.920000", "102829.923000", "102829.926000", "102829.929000", "102829.932000", "102829.935000", "102829.938000", "102829.940000", "102829.943000", "102829.946000", "102829.949000", "102829.952000", "102829.955000", "102829.958000", "102829.961000", "102829.963000", "102829.966000", "102829.969000", "102829.972000", "102849.849000", "102849.852000", "102849.855000", "102849.858000", "102849.860000", "102849.863000", "102849.866000", "102849.869000", "102849.872000", "102849.875000", "102849.877000", "102849.880000", "102849.883000", "102849.886000", "102849.889000", "102849.892000", "102849.895000", "102849.897000", "102849.900000", "102849.903000", "102849.918000", "102849.920000", "102849.923000", "102849.926000", "102849.929000", "102849.932000", "102849.935000", "102849.938000", "102909.849000", "102909.852000", "102909.855000", "102909.857000", "102909.860000", "102909.863000", "102909.866000", "102909.869000", "102909.872000", "102909.874000", "102909.877000", "102909.880000", "102909.883000", "102909.886000", "102909.889000", "102909.892000", "102909.894000", "102909.897000", "102909.900000", "102909.903000", "102909.906000", "102909.909000", "102909.911000", "102909.914000", "102909.917000", "102909.920000", "102909.923000", "102909.926000", "102909.928000", "102929.849000", "102929.856000", "102929.859000", "102929.861000", "102929.864000", "102929.867000", "102929.870000", "102929.873000", "102929.876000", "102929.878000", "102929.881000", "102929.884000", "102929.887000", "102929.890000", "102929.893000", "102929.895000", "102929.898000", "102929.901000", "102929.904000", "102929.907000", "102929.910000", "102929.913000", "102929.915000", "102929.918000", "102929.921000", "102929.924000", "102929.927000", "102929.942000", "102949.849000", "102949.852000", "102949.854000", "102949.857000", "102949.860000", "102949.863000", "102949.866000", "102949.869000", "102949.871000", "102949.874000", "102949.877000", "102949.880000", "102949.883000", "102949.886000", "102949.889000", "102949.892000", "102949.894000", "102949.897000", "102949.900000", "102949.903000", "102949.906000", "102949.909000", "102949.911000", "102949.914000", "102949.917000", "102949.920000", "102949.923000", "102949.926000", "102949.929000", "103009.849000", "103009.889000", "103009.891000", "103009.894000", "103009.897000", "103009.900000", "103009.903000", "103009.906000", "103009.909000", "103009.911000", "103009.914000", "103009.917000", "103009.920000", "103009.923000", "103009.926000", "103009.928000", "103009.931000", "103009.934000", "103009.937000", "103009.940000", "103009.943000", "103009.946000", "103009.949000", "103009.951000", "103009.954000", "103009.957000", "103009.960000", "103009.963000", "103029.849000", "103029.852000", "103029.855000", "103029.858000", "103029.860000", "103029.863000", "103029.866000", "103029.869000", "103029.872000", "103029.875000", "103029.878000", "103029.881000", "103029.883000", "103029.886000", "103029.889000", "103029.892000", "103029.895000", "103029.898000", "103029.901000", "103029.903000", "103031.408000", "103031.411000"],
      "InstanceNumber": [1, 2, 3, 4, 5, 6, 7, 8, 9, 10, 11, 12, 13, 14, 15, 16, 17, 18, 19, 20, 21, 22, 23, 24, 25, 26, 27, 28, 29, 30, 31, 32, 33, 34, 35, 36, 37, 38, 39, 40, 41, 42, 43, 44, 45, 46, 47, 48, 49, 50, 51, 52, 53, 54, 55, 56, 57, 58, 59, 60, 61, 62, 63, 64, 65, 66, 67, 68, 69, 70, 71, 72, 73, 74, 75, 76, 77, 78, 79, 80, 81, 82, 83, 84, 85, 86, 87, 88, 89, 90, 91, 92, 93, 94, 95, 96, 97, 98, 99, 100, 101, 102, 103, 104, 105, 106, 107, 108, 109, 110, 111, 112, 113, 114, 115, 116, 117, 118, 119, 120, 121, 122, 123, 124, 125, 126, 127, 128, 129, 130, 131, 132, 133, 134, 135, 136, 137, 138, 139, 140, 141, 142, 143, 144, 145, 146, 147, 148, 149, 150, 151, 152, 153, 154, 155, 156, 157, 158, 159, 160, 161, 162, 163, 164, 165, 166, 167, 168, 169, 170, 171, 172, 173, 174, 175, 176, 177, 178, 179, 180, 181, 182, 183, 184, 185, 186, 187, 188, 189, 190, 191, 192],
      "LargestImagePixelValue": [49019, 48089, 46737, 45998, 45747, 45930, 45305, 46124, 45987, 46075, 46249, 46148, 46056, 46067, 46554, 45837, 45583, 45802, 45542, 45704, 45582, 45517, 45892, 45506, 46002, 46232, 46405, 46553, 46320, 45978, 46366, 46142, 46435, 45916, 46728, 46472, 45914, 46067, 45658, 45607, 45509, 45525, 46004, 45873, 45617, 45940, 45427, 45620, 45514, 45543, 45018, 45417, 45672, 45917, 45638, 45506, 44970, 45753, 45687, 45704, 45344, 45304, 45245, 45582, 45464, 45226, 45188, 44812, 44961, 45019, 45226, 44974, 44928, 45065, 45327, 45340, 44512, 45115, 44829, 45080, 44919, 44571, 44440, 45150, 45017, 44591, 44875, 44720, 44631, 44687, 44804, 45351, 44719, 44524, 44741, 44934, 45003, 45100, 45224, 44897, 44995, 44816, 44909, 44639, 44643, 44904, 44817, 44931, 44830, 44793, 45059, 45704, 45338, 45159, 44762, 45621, 45252, 44786, 45308, 45486, 45501, 45822, 45479, 45990, 45997, 46032, 45992, 46104, 46038, 45910, 45696, 45825, 45023, 45557, 45606, 45702, 45413, 45334, 45057, 45157, 45299, 45164, 45808, 45121, 45039, 45385, 45034, 45033, 45619, 45713, 45433, 45370, 45271, 45851, 45299, 45380, 45173, 45746, 45489, 45429, 45731, 45762, 45642, 45500, 45804, 45179, 45615, 45397, 45899, 45113, 45902, 45692, 45340, 45362, 45379, 45867, 44867, 45186, 45829, 45350, 44997, 45084, 45633, 45081, 45522, 45688, 45078, 45148, 45317, 45043, 45266, 44926],
      "WindowCenter": [9960.0, 9940.0, 9934.0, 9942.0, 9951.0, 9953.0, 9942.0, 9932.0, 9921.0, 9919.0, 9926.0, 9914.0, 9912.0, 9911.0, 9916.0, 9911.0, 9911.0, 9925.0, 9927.0, 9935.0, 9936.0, 9945.0, 9947.0, 9942.0, 9946.0, 9945.0, 9946.0, 9951.0, 9946.0, 9937.0, 9936.0, 9931.0, 9927.0, 9907.0, 9911.0, 9911.0, 9913.0, 9918.0, 9925.0, 9929.0, 9922.0, 9922.0, 9915.0, 9902.0, 9899.0, 9905.0, 9908.0, 9919.0, 9920.0, 9915.0, 9908.0, 9907.0, 9904.0, 9897.0, 9892.0, 9883.0, 9875.0, 9874.0, 9879.0, 9874.0, 9867.0, 9864.0, 9865.0, 9878.0, 9881.0, 9889.0, 9886.0, 9886.0, 9884.0, 9883.0, 9886.0, 9892.0, 9879.0, 9870.0, 9872.0, 9866.0, 9855.0, 9860.0, 9868.0, 9883.0, 9880.0, 9871.0, 9863.0, 9868.0, 9873.0, 9868.0, 9883.0, 9905.0, 9904.0, 9917.0, 9919.0, 9915.0, 9895.0, 9894.0, 9887.0, 9885.0, 9885.0, 9886.0, 9894.0, 9901.0, 9907.0, 9901.0, 9904.0, 9904.0, 9903.0, 9908.0, 9917.0, 9925.0, 9919.0, 9913.0, 9919.0, 9921.0, 9917.0, 9923.0, 9925.0, 9929.0, 9927.0, 9936.0, 9935.0, 9923.0, 9919.0, 9924.0, 9918.0, 9916.0, 9910.0, 9905.0, 9889.0, 9889.0, 9888.0, 9896.0, 9907.0, 9907.0, 9895.0, 9901.0, 9900.0, 9898.0, 9898.0, 9901.0, 9896.0, 9899.0, 9893.0, 9874.0, 9864.0, 9849.0, 9854.0, 9860.0, 9862.0, 9869.0, 9876.0, 9876.0, 9855.0, 9845.0, 9851.0, 9857.0, 9856.0, 9858.0, 9868.0, 9871.0, 9873.0, 9881.0, 9882.0, 9881.0, 9873.0, 9868.0, 9860.0, 9853.0, 9853.0, 9853.0, 9852.0, 9860.0, 9881.0, 9895.0, 9886.0, 9891.0, 9886.0, 9877.0, 9864.0, 9870.0, 9876.0, 9882.0, 9883.0, 9885.0, 9890.0, 9879.0, 9870.0, 9861.0, 9856.0, 9849.0, 9854.0, 9855.0, 9870.0, 9874.0],
      "WindowWidth": [21282.0, 21219.0, 21198.0, 21213.0, 21234.0, 21239.0, 21214.0, 21186.0, 21161.0, 21155.0, 21167.0, 21141.0, 21135.0, 21132.0, 21142.0, 21128.0, 21133.0, 21162.0, 21170.0, 21189.0, 21194.0, 21217.0, 21222.0, 21212.0, 21216.0, 21215.0, 21219.0, 21227.0, 21216.0, 21196.0, 21193.0, 21180.0, 21166.0, 21122.0, 21129.0, 21130.0, 21135.0, 21145.0, 21162.0, 21171.0, 21158.0, 21157.0, 21140.0, 21111.0, 21104.0, 21117.0, 21126.0, 21147.0, 21151.0, 21141.0, 21125.0, 21119.0, 21109.0, 21095.0, 21083.0, 21061.0, 21042.0, 21038.0, 21049.0, 21040.0, 21025.0, 21014.0, 21016.0, 21047.0, 21056.0, 21076.0, 21074.0, 21073.0, 21066.0, 21064.0, 21072.0, 21085.0, 21053.0, 21033.0, 21033.0, 21018.0, 20998.0, 21008.0, 21028.0, 21063.0, 21057.0, 21034.0, 21013.0, 21022.0, 21033.0, 21026.0, 21061.0, 21113.0, 21116.0, 21144.0, 21148.0, 21133.0, 21091.0, 21085.0, 21068.0, 21064.0, 21065.0, 21070.0, 21090.0, 21105.0, 21114.0, 21103.0, 21115.0, 21114.0, 21110.0, 21121.0, 21144.0, 21160.0, 21147.0, 21133.0, 21145.0, 21146.0, 21140.0, 21155.0, 21160.0, 21168.0, 21168.0, 21190.0, 21184.0, 21155.0, 21144.0, 21153.0, 21137.0, 21133.0, 21119.0, 21101.0, 21063.0, 21064.0, 21064.0, 21085.0, 21111.0, 21110.0, 21085.0, 21097.0, 21093.0, 21087.0, 21087.0, 21096.0, 21087.0, 21091.0, 21077.0, 21035.0, 21008.0, 20977.0, 20988.0, 21001.0, 21009.0, 21022.0, 21037.0, 21029.0, 20980.0, 20960.0, 20974.0, 20985.0, 20982.0, 20992.0, 21014.0, 21019.0, 21023.0, 21042.0, 21043.0, 21042.0, 21023.0, 21011.0, 20992.0, 20978.0, 20977.0, 20977.0, 20976.0, 20998.0, 21046.0, 21075.0, 21058.0, 21070.0, 21057.0, 21035.0, 21008.0, 21022.0, 21035.0, 21045.0, 21049.0, 21054.0, 21062.0, 21037.0, 21013.0, 20991.0, 20984.0, 20971.0, 20980.0, 20985.0, 21022.0, 21032.0]
    },
    "slices": {}
  },
  "NumberOfVolumes": 192
}