{
  "AcquisitionMatrixPE": 104,
  "AcquisitionNumber": 1,
  "AcquisitionTime": "10:45:42.525000",
  "BandwidthPerPixelPhaseEncode": 16.297,
  "BaseResolution": 104,
  "BodyPartExamined": "BRAIN",
  "ConsistencyInfo": "N4_VE11C_LATEST_20160120",
  "ConversionSoftware": "dcm2niix",
  "ConversionSoftwareVersion": "v1.0.20200331",
  "DerivedVendorReportedEchoSpacing": 0.000590009,
  "DeviceSerialNumber": "166018",
  "DwellTime": 2.1e-06,
  "EchoTime": 0.0376,
  "EchoTrainLength": 104,
  "EffectiveEchoSpacing": 0.000590009,
  "FlipAngle": 68,
  "ImageComments": "Unaliased_MB6_PE3_LB",
  "ImageOrientationPatientDICOM": [0.998812, -0.00188016, 0.0486981, 0.0083678, 0.991032, -0.133364],
  "ImageType": [
    "ORIGINAL",
    "PRIMARY",
    "M",
    "MB",
    "ND",
    "MOSAIC"
],
  "ImagingFrequency": 123.191,
  "InPlanePhaseEncodingDirectionDICOM": "COL",
  "InstitutionAddress": "Washington_Place_6_NYC_NYC_US_10003",
  "InstitutionName": "NYU_-_CBI",
  "InstitutionalDepartmentName": "Department",
  "MRAcquisitionType": "2D",
  "MagneticFieldStrength": 3,
  "Manufacturer": "Siemens",
  "ManufacturersModelName": "Prisma",
  "Modality": "MR",
  "MultibandAccelerationFactor": 6,
  "PartialFourier": 1,
  "PatientPosition": "HFS",
  "PercentPhaseFOV": 100,
  "PercentSampling": 100,
  "PhaseEncodingDirection": "j",
  "PhaseEncodingSteps": 104,
  "PhaseResolution": 1,
  "PixelBandwidth": 2290,
  "ProcedureStepDescription": "Investigators_Winawer",
  "ProtocolName": "cmrr_mbepi_s6_2mm_66sl_PA_task-prf",
  "PulseSequenceDetails": "%CustomerSeq%_cmrr_mbep2d_bold",
  "ReceiveCoilActiveElements": "HC1-7",
  "ReceiveCoilName": "HeadNeck_64",
  "ReconMatrixPE": 104,
  "RepetitionTime": 1,
  "SAR": 0.0607197,
  "ScanOptions": "FS",
  "ScanningSequence": "EP",
  "SequenceName": "epfid2d1_104",
  "SequenceVariant": "SK_SS",
  "SeriesDescription": "cmrr_mbepi_s6_2mm_66sl_PA_task-prf",
  "SeriesNumber": 18,
  "ShimSetting": [260, -12640, -8437, 399, -69, -213, -38, 4],
  "SliceThickness": 2,
  "SliceTiming": [0, 0.535, 0.0875, 0.6225, 0.1775, 0.7125, 0.2675, 0.8025, 0.355, 0.89, 0.445, 0, 0.535, 0.0875, 0.6225, 0.1775, 0.7125, 0.2675, 0.8025, 0.355, 0.89, 0.445, 0, 0.535, 0.0875, 0.6225, 0.1775, 0.7125, 0.2675, 0.8025, 0.355, 0.89, 0.445, 0, 0.535, 0.0875, 0.6225, 0.1775, 0.7125, 0.2675, 0.8025, 0.355, 0.89, 0.445, 0, 0.535, 0.0875, 0.6225, 0.1775, 0.7125, 0.2675, 0.8025, 0.355, 0.89, 0.445, 0, 0.535, 0.0875, 0.6225, 0.1775, 0.7125, 0.2675, 0.8025, 0.355, 0.89, 0.445],
  "SoftwareVersions": "syngo_MR_E11",
  "SpacingBetweenSlices": 2,
  "StationName": "AWP166018",
  "TaskName": "prf",
  "TotalReadoutTime": 0.060771,
  "TxRefAmp": 199.303,
  "VendorReportedEchoSpacing": 0.00059,
  "WipMemBlock": "776dcde6-f6b9-4edf-a88b-858fb7a0e5e7||Sequence: R016 ve11c/master r/8780670; Nov 27 2017 15:05:12 by eja",
  "dcmmeta_affine": [
    [-1.9976235628128052, 0.016735604032874107, 0.09602134674787521, 107.77023315429688],
    [0.003760329680517316, 1.9820637702941895, -0.267225056886673, -70.01815032958984],
    [0.09739629924297333, 0.2667270004749298, 1.979740023612976, -47.58028793334961],
    [0.0, 0.0, 0.0, 1.0]
],
  "dcmmeta_reorient_transform": [
    [0.0, -1.0, 0.0, 103.0],
    [1.0, 0.0, 0.0, 0.0],
    [0.0, 0.0, 1.0, 0.0],
    [0.0, 0.0, 0.0, 1.0]
],
  "dcmmeta_shape": [104, 104, 66, 192],
  "dcmmeta_slice_dim": 2,
  "dcmmeta_version": 0.6,
  "global": {
    "const": {
      "AccessionNumber": "kh26bq36",
      "AcquisitionMatrix": [104, 0, 0, 104],
      "AngioFlag": "N",
      "BitsAllocated": 16,
      "BitsStored": 16,
      "BodyPartExamined": "BRAIN",
      "Columns": 936,
      "EchoNumbers": 1,
      "EchoTime": 37.6,
      "EchoTrainLength": 104,
      "FlipAngle": 68.0,
      "HighBit": 15,
      "ImageOrientationPatient": [0.99881177157187, -0.0018801648002, 0.04869815140005, 0.00836780230507, 0.99103186381031, -0.1333635062424],
      "ImagePositionPatient": [-947.46740799971, -957.10862645811, 50.334170661457],
      "ImageType": [
        "ORIGINAL",
        "PRIMARY",
        "M",
        "MB",
        "ND",
        "MOSAIC"
],
      "ImagedNucleus": "1H",
      "ImagingFrequency": 123.190663,
      "InPlanePhaseEncodingDirection": "COL",
      "MRAcquisitionType": "2D",
      "MagneticFieldStrength": 3.0,
      "Manufacturer": "SIEMENS",
      "ManufacturerModelName": "Prisma",
      "Modality": "MR",
      "NumberOfAverages": 1.0,
      "NumberOfPhaseEncodingSteps": 104,
      "PercentPhaseFieldOfView": 100.0,
      "PercentSampling": 100.0,
      "PerformedProcedureStepStartTime": "095140.540000",
      "PhotometricInterpretation": "MONOCHROME2",
      "PixelBandwidth": 2290.0,
      "PixelRepresentation": 0,
      "PixelSpacing": [2.0, 2.0],
      "ProtocolName": "cmrr_mbepi_s6_2mm_66sl_PA_task-prf",
      "RepetitionTime": 1000.0,
      "Rows": 936,
      "SAR": 0.06071968299982,
      "SamplesPerPixel": 1,
      "ScanOptions": "FS",
      "ScanningSequence": "EP",
      "SequenceName": "epfid2d1_104",
      "SequenceVariant": [
        "SK",
        "SS"
],
      "SeriesDescription": "cmrr_mbepi_s6_2mm_66sl_PA_task-prf",
      "SeriesNumber": 18,
      "SeriesTime": "104649.815000",
      "SliceLocation": -32.568875276939,
      "SliceThickness": 2.0,
      "SmallestImagePixelValue": 0,
      "SoftwareVersions": "syngo MR E11",
      "SpacingBetweenSlices": 1.9999999768666,
      "SpecificCharacterSet": "ISO_IR 100",
      "StudyID": "1",
      "StudyTime": "095140.416000",
      "TransmitCoilName": "Body",
      "VariableFlipAngleFlag": "N",
      "WindowCenterWidthExplanation": "Algo1",
      "dBdt": 0.0},
    "slices": {}
  },
  "time": {
    "samples": {
      "AcquisitionNumber": [1, 2, 3, 4, 5, 6, 7, 8, 9, 10, 11, 12, 13, 14, 15, 16, 17, 18, 19, 20, 21, 22, 23, 24, 25, 26, 27, 28, 29, 30, 31, 32, 33, 34, 35, 36, 37, 38, 39, 40, 41, 42, 43, 44, 45, 46, 47, 48, 49, 50, 51, 52, 53, 54, 55, 56, 57, 58, 59, 60, 61, 62, 63, 64, 65, 66, 67, 68, 69, 70, 71, 72, 73, 74, 75, 76, 77, 78, 79, 80, 81, 82, 83, 84, 85, 86, 87, 88, 89, 90, 91, 92, 93, 94, 95, 96, 97, 98, 99, 100, 101, 102, 103, 104, 105, 106, 107, 108, 109, 110, 111, 112, 113, 114, 115, 116, 117, 118, 119, 120, 121, 122, 123, 124, 125, 126, 127, 128, 129, 130, 131, 132, 133, 134, 135, 136, 137, 138, 139, 140, 141, 142, 143, 144, 145, 146, 147, 148, 149, 150, 151, 152, 153, 154, 155, 156, 157, 158, 159, 160, 161, 162, 163, 164, 165, 166, 167, 168, 169, 170, 171, 172, 173, 174, 175, 176, 177, 178, 179, 180, 181, 182, 183, 184, 185, 186, 187, 188, 189, 190, 191, 192],
      "AcquisitionTime": ["104542.525000", "104543.525000", "104544.525000", "104545.525000", "104546.525000", "104547.525000", "104548.525000", "104549.525000", "104550.525000", "104551.525000", "104552.525000", "104553.525000", "104554.525000", "104555.525000", "104556.525000", "104557.525000", "104558.525000", "104559.525000", "104600.525000", "104601.525000", "104602.525000", "104603.525000", "104604.525000", "104605.525000", "104606.525000", "104607.525000", "104608.525000", "104609.525000", "104610.525000", "104611.525000", "104612.525000", "104613.525000", "104614.525000", "104615.525000", "104616.525000", "104617.525000", "104618.525000", "104619.525000", "104620.525000", "104621.525000", "104622.525000", "104623.525000", "104624.525000", "104625.525000", "104626.525000", "104627.525000", "104628.525000", "104629.525000", "104630.525000", "104631.525000", "104632.525000", "104633.525000", "104634.525000", "104635.525000", "104636.525000", "104637.525000", "104638.525000", "104639.525000", "104640.525000", "104641.525000", "104642.525000", "104643.525000", "104644.525000", "104645.525000", "104646.525000", "104647.525000", "104648.525000", "104649.525000", "104650.525000", "104651.525000", "104652.525000", "104653.525000", "104654.525000", "104655.525000", "104656.525000", "104657.525000", "104658.525000", "104659.525000", "104700.525000", "104701.525000", "104702.525000", "104703.525000", "104704.525000", "104705.525000", "104706.525000", "104707.525000", "104708.525000", "104709.525000", "104710.525000", "104711.525000", "104712.525000", "104713.525000", "104714.525000", "104715.525000", "104716.525000", "104717.525000", "104718.525000", "104719.525000", "104720.525000", "104721.525000", "104722.525000", "104723.525000", "104724.525000", "104725.525000", "104726.525000", "104727.525000", "104728.525000", "104729.525000", "104730.525000", "104731.525000", "104732.525000", "104733.525000", "104734.525000", "104735.525000", "104736.525000", "104737.525000", "104738.525000", "104739.525000", "104740.525000", "104741.525000", "104742.525000", "104743.525000", "104744.525000", "104745.525000", "104746.525000", "104747.525000", "104748.525000", "104749.525000", "104750.525000", "104751.525000", "104752.525000", "104753.525000", "104754.525000", "104755.525000", "104756.525000", "104757.525000", "104758.525000", "104759.525000", "104800.525000", "104801.525000", "104802.525000", "104803.525000", "104804.525000", "104805.525000", "104806.525000", "104807.525000", "104808.525000", "104809.525000", "104810.525000", "104811.525000", "104812.525000", "104813.525000", "104814.525000", "104815.525000", "104816.525000", "104817.525000", "104818.525000", "104819.525000", "104820.525000", "104821.525000", "104822.525000", "104823.525000", "104824.525000", "104825.525000", "104826.525000", "104827.525000", "104828.525000", "104829.525000", "104830.525000", "104831.525000", "104832.525000", "104833.525000", "104834.525000", "104835.525000", "104836.525000", "104837.525000", "104838.525000", "104839.525000", "104840.525000", "104841.525000", "104842.525000", "104843.525000", "104844.525000", "104845.525000", "104846.525000", "104847.525000", "104848.525000", "104849.525000", "104850.525000", "104851.525000", "104852.525000", "104853.525000"],
      "ContentTime": ["104649.818000", "104649.821000", "104649.824000", "104649.827000", "104649.830000", "104649.833000", "104649.836000", "104649.839000", "104649.842000", "104649.845000", "104649.848000", "104649.851000", "104649.862000", "104649.865000", "104649.868000", "104649.871000", "104649.874000", "104649.876000", "104649.879000", "104649.882000", "104649.885000", "104709.781000", "104709.784000", "104709.787000", "104709.790000", "104709.793000", "104709.795000", "104709.798000", "104709.801000", "104709.811000", "104709.813000", "104709.816000", "104709.819000", "104709.822000", "104709.825000", "104709.828000", "104709.831000", "104709.833000", "104709.836000", "104709.839000", "104709.842000", "104709.845000", "104709.848000", "104709.850000", "104709.853000", "104709.856000", "104709.859000", "104709.862000", "104709.865000", "104709.867000", "104729.781000", "104729.784000", "104729.787000", "104729.790000", "104729.793000", "104729.795000", "104729.798000", "104729.801000", "104729.804000", "104729.807000", "104729.810000", "104729.813000", "104729.816000", "104729.818000", "104729.821000", "104729.824000", "104729.827000", "104729.830000", "104729.833000", "104729.835000", "104729.838000", "104729.841000", "104729.844000", "104729.847000", "104729.850000", "104729.853000", "104729.856000", "104729.858000", "104749.781000", "104749.784000", "104749.787000", "104749.790000", "104749.793000", "104749.795000", "104749.798000", "104749.801000", "104749.804000", "104749.807000", "104749.814000", "104749.817000", "104749.820000", "104749.822000", "104749.825000", "104749.828000", "104749.831000", "104749.834000", "104749.837000", "104749.839000", "104749.842000", "104749.845000", "104749.848000", "104749.851000", "104749.854000", "104749.857000", "104749.859000", "104749.862000", "104809.781000", "104809.784000", "104809.787000", "104809.789000", "104809.792000", "104809.795000", "104809.798000", "104809.801000", "104809.804000", "104809.807000", "104809.810000", "104809.812000", "104809.815000", "104809.818000", "104809.828000", "104809.830000", "104809.833000", "104809.836000", "104809.839000", "104809.842000", "104809.845000", "104809.847000", "104809.850000", "104809.853000", "104809.856000", "104809.859000", "104809.862000", "104809.864000", "104809.867000", "104829.781000", "104829.784000", "104829.787000", "104829.790000", "104829.792000", "104829.795000", "104829.798000", "104829.801000", "104829.804000", "104829.807000", "104829.810000", "104829.812000", "104829.815000", "104829.818000", "104829.821000", "104829.824000", "104829.827000", "104829.829000", "104829.832000", "104829.835000", "104829.838000", "104829.841000", "104829.844000", "104829.846000", "104829.849000", "104829.852000", "104829.855000", "104829.858000", "104849.781000", "104849.784000", "104849.787000", "104849.789000", "104849.792000", "104849.795000", "104849.798000", "104849.801000", "104849.803000", "104849.806000", "104849.809000", "104849.812000", "104849.815000", "104849.818000", "104849.821000", "104849.824000", "104849.826000", "104849.829000", "104849.832000", "104849.835000", "104849.838000", "104849.841000", "104849.853000", "104855.157000", "104855.161000", "104855.164000", "104855.167000", "104855.170000", "104855.172000"],
      "InstanceCreationTime": ["104649.818000", "104649.821000", "104649.824000", "104649.827000", "104649.830000", "104649.833000", "104649.836000", "104649.839000", "104649.842000", "104649.845000", "104649.848000", "104649.851000", "104649.862000", "104649.865000", "104649.868000", "104649.871000", "104649.874000", "104649.876000", "104649.879000", "104649.882000", "104649.885000", "104709.781000", "104709.784000", "104709.787000", "104709.790000", "104709.793000", "104709.795000", "104709.798000", "104709.801000", "104709.811000", "104709.813000", "104709.816000", "104709.819000", "104709.822000", "104709.825000", "104709.828000", "104709.831000", "104709.833000", "104709.836000", "104709.839000", "104709.842000", "104709.845000", "104709.848000", "104709.850000", "104709.853000", "104709.856000", "104709.859000", "104709.862000", "104709.865000", "104709.867000", "104729.781000", "104729.784000", "104729.787000", "104729.790000", "104729.793000", "104729.795000", "104729.798000", "104729.801000", "104729.804000", "104729.807000", "104729.810000", "104729.813000", "104729.816000", "104729.818000", "104729.821000", "104729.824000", "104729.827000", "104729.830000", "104729.833000", "104729.835000", "104729.838000", "104729.841000", "104729.844000", "104729.847000", "104729.850000", "104729.853000", "104729.856000", "104729.858000", "104749.781000", "104749.784000", "104749.787000", "104749.790000", "104749.793000", "104749.795000", "104749.798000", "104749.801000", "104749.804000", "104749.807000", "104749.814000", "104749.817000", "104749.820000", "104749.822000", "104749.825000", "104749.828000", "104749.831000", "104749.834000", "104749.837000", "104749.839000", "104749.842000", "104749.845000", "104749.848000", "104749.851000", "104749.854000", "104749.857000", "104749.859000", "104749.862000", "104809.781000", "104809.784000", "104809.787000", "104809.789000", "104809.792000", "104809.795000", "104809.798000", "104809.801000", "104809.804000", "104809.807000", "104809.810000", "104809.812000", "104809.815000", "104809.818000", "104809.828000", "104809.830000", "104809.833000", "104809.836000", "104809.839000", "104809.842000", "104809.845000", "104809.847000", "104809.850000", "104809.853000", "104809.856000", "104809.859000", "104809.862000", "104809.864000", "104809.867000", "104829.781000", "104829.784000", "104829.787000", "104829.790000", "104829.792000", "104829.795000", "104829.798000", "104829.801000", "104829.804000", "104829.807000", "104829.810000", "104829.812000", "104829.815000", "104829.818000", "104829.821000", "104829.824000", "104829.827000", "104829.829000", "104829.832000", "104829.835000", "104829.838000", "104829.841000", "104829.844000", "104829.846000", "104829.849000", "104829.852000", "104829.855000", "104829.858000", "104849.781000", "104849.784000", "104849.787000", "104849.789000", "104849.792000", "104849.795000", "104849.798000", "104849.801000", "104849.803000", "104849.806000", "104849.809000", "104849.812000", "104849.815000", "104849.818000", "104849.821000", "104849.824000", "104849.826000", "104849.829000", "104849.832000", "104849.835000", "104849.838000", "104849.841000", "104849.853000", "104855.157000", "104855.161000", "104855.164000", "104855.167000", "104855.170000", "104855.172000"],
      "InstanceNumber": [1, 2, 3, 4, 5, 6, 7, 8, 9, 10, 11, 12, 13, 14, 15, 16, 17, 18, 19, 20, 21, 22, 23, 24, 25, 26, 27, 28, 29, 30, 31, 32, 33, 34, 35, 36, 37, 38, 39, 40, 41, 42, 43, 44, 45, 46, 47, 48, 49, 50, 51, 52, 53, 54, 55, 56, 57, 58, 59, 60, 61, 62, 63, 64, 65, 66, 67, 68, 69, 70, 71, 72, 73, 74, 75, 76, 77, 78, 79, 80, 81, 82, 83, 84, 85, 86, 87, 88, 89, 90, 91, 92, 93, 94, 95, 96, 97, 98, 99, 100, 101, 102, 103, 104, 105, 106, 107, 108, 109, 110, 111, 112, 113, 114, 115, 116, 117, 118, 119, 120, 121, 122, 123, 124, 125, 126, 127, 128, 129, 130, 131, 132, 133, 134, 135, 136, 137, 138, 139, 140, 141, 142, 143, 144, 145, 146, 147, 148, 149, 150, 151, 152, 153, 154, 155, 156, 157, 158, 159, 160, 161, 162, 163, 164, 165, 166, 167, 168, 169, 170, 171, 172, 173, 174, 175, 176, 177, 178, 179, 180, 181, 182, 183, 184, 185, 186, 187, 188, 189, 190, 191, 192],
      "LargestImagePixelValue": [44085, 43027, 42306, 42069, 42506, 41714, 41561, 42337, 42613, 42758, 42849, 43447, 43368, 43030, 42856, 43549, 43410, 42664, 42483, 42785, 43376, 42724, 43236, 43278, 43220, 42457, 42500, 42941, 42679, 42618, 42869, 42841, 43038, 42822, 43766, 42764, 42913, 42838, 43387, 42708, 42474, 43373, 43627, 42565, 41929, 42802, 43232, 43127, 43131, 43328, 43196, 42552, 42777, 43181, 43942, 43447, 43389, 43188, 43056, 43177, 43203, 43511, 43339, 43076, 43398, 43045, 42973, 43411, 42694, 42827, 43033, 42462, 42797, 42902, 42664, 42290, 42924, 42567, 42862, 43185, 43242, 42973, 43051, 42945, 43428, 43213, 43512, 43566, 43908, 43397, 43399, 43139, 43428, 42378, 42862, 43020, 42697, 42602, 43046, 42671, 43122, 42790, 43185, 43704, 43337, 43419, 43713, 43859, 44279, 43611, 43194, 43246, 43310, 43335, 43379, 42835, 43101, 43372, 43410, 43796, 42856, 43148, 43601, 42933, 42901, 43206, 43072, 43118, 42921, 43712, 43055, 43246, 43445, 43004, 43367, 43685, 42810, 42676, 43135, 42812, 42841, 43328, 42450, 42484, 42976, 42914, 42888, 43176, 42896, 42437, 42450, 42614, 43094, 42654, 43158, 43495, 43330, 43088, 42841, 43021, 43151, 42950, 42836, 43161, 43268, 43789, 43436, 43293, 43469, 43045, 43688, 43949, 43529, 43164, 43332, 43605, 43320, 43365, 43923, 43711, 43501, 43488, 43995, 43680, 43072, 43359, 42668, 42446, 42211, 43353, 43296, 42940],
      "WindowCenter": [9845.0, 9804.0, 9782.0, 9786.0, 9798.0, 9779.0, 9779.0, 9770.0, 9758.0, 9761.0, 9770.0, 9783.0, 9791.0, 9795.0, 9804.0, 9811.0, 9803.0, 9789.0, 9782.0, 9779.0, 9778.0, 9771.0, 9785.0, 9787.0, 9779.0, 9772.0, 9763.0, 9761.0, 9752.0, 9752.0, 9761.0, 9771.0, 9785.0, 9781.0, 9778.0, 9763.0, 9761.0, 9767.0, 9780.0, 9779.0, 9787.0, 9806.0, 9795.0, 9774.0, 9766.0, 9777.0, 9770.0, 9763.0, 9756.0, 9745.0, 9743.0, 9738.0, 9751.0, 9766.0, 9767.0, 9753.0, 9749.0, 9738.0, 9736.0, 9736.0, 9744.0, 9758.0, 9766.0, 9774.0, 9774.0, 9761.0, 9748.0, 9751.0, 9747.0, 9761.0, 9762.0, 9772.0, 9778.0, 9773.0, 9771.0, 9767.0, 9778.0, 9765.0, 9770.0, 9777.0, 9772.0, 9770.0, 9778.0, 9786.0, 9786.0, 9785.0, 9791.0, 9792.0, 9792.0, 9786.0, 9792.0, 9794.0, 9793.0, 9789.0, 9797.0, 9797.0, 9796.0, 9784.0, 9796.0, 9797.0, 9796.0, 9788.0, 9788.0, 9788.0, 9773.0, 9777.0, 9783.0, 9785.0, 9790.0, 9778.0, 9776.0, 9779.0, 9780.0, 9786.0, 9790.0, 9781.0, 9788.0, 9793.0, 9785.0, 9784.0, 9772.0, 9770.0, 9770.0, 9770.0, 9778.0, 9780.0, 9772.0, 9772.0, 9766.0, 9763.0, 9762.0, 9762.0, 9774.0, 9779.0, 9793.0, 9799.0, 9789.0, 9785.0, 9782.0, 9775.0, 9780.0, 9793.0, 9796.0, 9791.0, 9784.0, 9781.0, 9782.0, 9782.0, 9788.0, 9784.0, 9791.0, 9792.0, 9792.0, 9789.0, 9789.0, 9801.0, 9797.0, 9798.0, 9806.0, 9808.0, 9807.0, 9806.0, 9805.0, 9797.0, 9787.0, 9779.0, 9778.0, 9779.0, 9796.0, 9806.0, 9825.0, 9828.0, 9815.0, 9799.0, 9797.0, 9798.0, 9798.0, 9812.0, 9833.0, 9837.0, 9837.0, 9838.0, 9835.0, 9827.0, 9813.0, 9813.0, 9815.0, 9824.0, 9834.0, 9840.0, 9830.0, 9817.0],
      "WindowWidth": [20966.0, 20857.0, 20802.0, 20810.0, 20828.0, 20787.0, 20785.0, 20761.0, 20730.0, 20735.0, 20758.0, 20788.0, 20804.0, 20818.0, 20840.0, 20852.0, 20834.0, 20802.0, 20785.0, 20777.0, 20772.0, 20758.0, 20788.0, 20795.0, 20776.0, 20761.0, 20739.0, 20731.0, 20710.0, 20711.0, 20735.0, 20758.0, 20791.0, 20782.0, 20770.0, 20739.0, 20733.0, 20744.0, 20775.0, 20777.0, 20800.0, 20838.0, 20815.0, 20766.0, 20749.0, 20768.0, 20751.0, 20737.0, 20722.0, 20695.0, 20688.0, 20679.0, 20707.0, 20742.0, 20742.0, 20711.0, 20701.0, 20677.0, 20673.0, 20674.0, 20692.0, 20721.0, 20739.0, 20756.0, 20755.0, 20731.0, 20702.0, 20705.0, 20704.0, 20732.0, 20737.0, 20765.0, 20776.0, 20766.0, 20760.0, 20751.0, 20770.0, 20745.0, 20757.0, 20771.0, 20760.0, 20757.0, 20776.0, 20795.0, 20793.0, 20791.0, 20801.0, 20807.0, 20802.0, 20790.0, 20804.0, 20807.0, 20807.0, 20804.0, 20820.0, 20819.0, 20814.0, 20792.0, 20817.0, 20820.0, 20814.0, 20797.0, 20796.0, 20793.0, 20762.0, 20770.0, 20782.0, 20785.0, 20795.0, 20774.0, 20770.0, 20776.0, 20777.0, 20788.0, 20796.0, 20783.0, 20797.0, 20804.0, 20785.0, 20782.0, 20759.0, 20753.0, 20751.0, 20754.0, 20772.0, 20776.0, 20759.0, 20759.0, 20745.0, 20735.0, 20732.0, 20732.0, 20759.0, 20775.0, 20805.0, 20816.0, 20801.0, 20792.0, 20781.0, 20768.0, 20779.0, 20805.0, 20817.0, 20804.0, 20788.0, 20780.0, 20783.0, 20782.0, 20795.0, 20791.0, 20809.0, 20813.0, 20809.0, 20802.0, 20801.0, 20826.0, 20819.0, 20821.0, 20839.0, 20845.0, 20839.0, 20837.0, 20835.0, 20814.0, 20790.0, 20769.0, 20769.0, 20776.0, 20815.0, 20842.0, 20885.0, 20889.0, 20859.0, 20825.0, 20817.0, 20819.0, 20820.0, 20853.0, 20900.0, 20911.0, 20913.0, 20914.0, 20903.0, 20884.0, 20854.0, 20853.0, 20861.0, 20885.0, 20908.0, 20919.0, 20895.0, 20863.0]
    },
    "slices": {}
  },
  "NumberOfVolumes": 192
}