{
  "AcquisitionMatrixPE": 104,
  "AcquisitionNumber": 1,
  "AcquisitionTime": "14:54:26.350000",
  "BandwidthPerPixelPhaseEncode": 16.578,
  "BaseResolution": 104,
  "BodyPartExamined": "BRAIN",
  "ConsistencyInfo": "N4_VE11C_LATEST_20160120",
  "ConversionSoftware": "dcm2niix",
  "ConversionSoftwareVersion": "v1.0.20190902",
  "DerivedVendorReportedEchoSpacing": 0.000580009,
  "DeviceSerialNumber": "166018",
  "DwellTime": 2.1e-06,
  "EchoTime": 0.037,
  "EchoTrainLength": 104,
  "EffectiveEchoSpacing": 0.000580009,
  "FlipAngle": 68,
  "ImageComments": "Unaliased_MB6_PE3_LB",
  "ImageOrientationPatientDICOM": [0.9964, -0.0642978, 0.0552591, 0.0708984, 0.989335, -0.127238],
  "ImageType": [
    "ORIGINAL",
    "PRIMARY",
    "M",
    "MB",
    "ND",
    "MOSAIC"
],
  "ImagingFrequency": 123.191,
  "InPlanePhaseEncodingDirectionDICOM": "COL",
  "InstitutionAddress": "Washington_Place_6_NYC_NYC_US_10003",
  "InstitutionName": "NYU_-_CBI",
  "InstitutionalDepartmentName": "Department",
  "MRAcquisitionType": "2D",
  "MagneticFieldStrength": 3,
  "Manufacturer": "Siemens",
  "ManufacturersModelName": "Prisma",
  "Modality": "MR",
  "MultibandAccelerationFactor": 6,
  "PartialFourier": 1,
  "PatientPosition": "HFS",
  "PercentPhaseFOV": 100,
  "PhaseEncodingDirection": "j",
  "PhaseEncodingSteps": 104,
  "PhaseResolution": 1,
  "PixelBandwidth": 2290,
  "ProcedureStepDescription": "Investigators_Winawer",
  "ProtocolName": "cmrr_mbepi_s6_2mm_66sl_PA_task-prf",
  "PulseSequenceDetails": "%CustomerSeq%_cmrr_mbep2d_bold",
  "ReceiveCoilActiveElements": "HC1-7",
  "ReceiveCoilName": "HeadNeck_64",
  "ReconMatrixPE": 104,
  "RepetitionTime": 1,
  "SAR": 0.0673601,
  "ScanOptions": "FS",
  "ScanningSequence": "EP",
  "SequenceName": "epfid2d1_104",
  "SequenceVariant": "SK_SS",
  "SeriesDescription": "cmrr_mbepi_s6_2mm_66sl_PA_task-prf",
  "SeriesNumber": 10,
  "ShimSetting": [261, -12646, -8425, 301, -13, -271, 17, 51],
  "SliceThickness": 2,
  "SliceTiming": [0, 0.535, 0.0875, 0.6225, 0.1775, 0.7125, 0.2675, 0.8025, 0.355, 0.89, 0.445, 0, 0.535, 0.0875, 0.6225, 0.1775, 0.7125, 0.2675, 0.8025, 0.355, 0.89, 0.445, 0, 0.535, 0.0875, 0.6225, 0.1775, 0.7125, 0.2675, 0.8025, 0.355, 0.89, 0.445, 0, 0.535, 0.0875, 0.6225, 0.1775, 0.7125, 0.2675, 0.8025, 0.355, 0.89, 0.445, 0, 0.535, 0.0875, 0.6225, 0.1775, 0.7125, 0.2675, 0.8025, 0.355, 0.89, 0.445, 0, 0.535, 0.0875, 0.6225, 0.1775, 0.7125, 0.2675, 0.8025, 0.355, 0.89, 0.445],
  "SoftwareVersions": "syngo_MR_E11",
  "SpacingBetweenSlices": 2,
  "StationName": "AWP166018",
  "TaskName": "prf",
  "TotalReadoutTime": 0.0597409,
  "TxRefAmp": 215.024,
  "WipMemBlock": "a841da6f-ac49-4ad6-a570-01fce2a0ce28||Sequence: R016 ve11c/master r/8780670; Nov 27 2017 15:05:12 by eja",
  "dcmmeta_affine": [
    [-1.9927992820739746, 0.14179673790931702, 0.09297719597816467, 104.64225006103516],
    [0.12859554588794708, 1.9786701202392578, -0.2613958418369293, -81.9386978149414],
    [0.11051813513040543, 0.25447648763656616, 1.9806634187698364, -49.38460922241211],
    [0.0, 0.0, 0.0, 1.0]
],
  "dcmmeta_reorient_transform": [
    [0.0, -1.0, 0.0, 103.0],
    [1.0, 0.0, 0.0, 0.0],
    [0.0, 0.0, 1.0, 0.0],
    [0.0, 0.0, 0.0, 1.0]
],
  "dcmmeta_shape": [104, 104, 66, 192],
  "dcmmeta_slice_dim": 2,
  "dcmmeta_version": 0.6,
  "global": {
    "const": {
      "AccessionNumber": "jo097yqd",
      "AcquisitionMatrix": [104, 0, 0, 104],
      "AngioFlag": "N",
      "BitsAllocated": 16,
      "BitsStored": 16,
      "BodyPartExamined": "BRAIN",
      "Columns": 936,
      "EchoNumbers": 1,
      "EchoTime": 37.0,
      "EchoTrainLength": 104,
      "FlipAngle": 68.0,
      "HighBit": 15,
      "ImageOrientationPatient": [0.99639963470853, -0.064297771156, 0.05525906782677, 0.07089836605073, 0.98933505407746, -0.1272382507931],
      "ImagePositionPatient": [-1007.2392531049, -891.49533916682, 36.713150556175],
      "ImageType": [
        "ORIGINAL",
        "PRIMARY",
        "M",
        "MB",
        "ND",
        "MOSAIC"
],
      "ImagedNucleus": "1H",
      "ImagingFrequency": 123.190931,
      "InPlanePhaseEncodingDirection": "COL",
      "MRAcquisitionType": "2D",
      "MagneticFieldStrength": 3.0,
      "Manufacturer": "SIEMENS",
      "ManufacturerModelName": "Prisma",
      "Modality": "MR",
      "NumberOfAverages": 1.0,
      "NumberOfPhaseEncodingSteps": 104,
      "PercentPhaseFieldOfView": 100.0,
      "PercentSampling": 100.0,
      "PerformedProcedureStepStartTime": "143324.930000",
      "PhotometricInterpretation": "MONOCHROME2",
      "PixelBandwidth": 2290.0,
      "PixelRepresentation": 0,
      "PixelSpacing": [2.0, 2.0],
      "ProtocolName": "cmrr_mbepi_s6_2mm_66sl_PA_task-prf",
      "RepetitionTime": 1000.0,
      "Rows": 936,
      "SAR": 0.06736012406692,
      "SamplesPerPixel": 1,
      "ScanOptions": "FS",
      "ScanningSequence": "EP",
      "SequenceName": "epfid2d1_104",
      "SequenceVariant": [
        "SK",
        "SS"
],
      "SeriesDescription": "cmrr_mbepi_s6_2mm_66sl_PA_task-prf",
      "SeriesNumber": 10,
      "SeriesTime": "145523.107000",
      "SliceLocation": -33.333254084509,
      "SliceThickness": 2.0,
      "SmallestImagePixelValue": 0,
      "SoftwareVersions": "syngo MR E11",
      "SpacingBetweenSlices": 2.0000000026208,
      "SpecificCharacterSet": "ISO_IR 100",
      "StudyID": "1",
      "StudyTime": "143324.846000",
      "TransmitCoilName": "Body",
      "VariableFlipAngleFlag": "N",
      "WindowCenterWidthExplanation": "Algo1",
      "dBdt": 0.0},
    "slices": {}
  },
  "time": {
    "samples": {
      "AcquisitionNumber": [1, 2, 3, 4, 5, 6, 7, 8, 9, 10, 11, 12, 13, 14, 15, 16, 17, 18, 19, 20, 21, 22, 23, 24, 25, 26, 27, 28, 29, 30, 31, 32, 33, 34, 35, 36, 37, 38, 39, 40, 41, 42, 43, 44, 45, 46, 47, 48, 49, 50, 51, 52, 53, 54, 55, 56, 57, 58, 59, 60, 61, 62, 63, 64, 65, 66, 67, 68, 69, 70, 71, 72, 73, 74, 75, 76, 77, 78, 79, 80, 81, 82, 83, 84, 85, 86, 87, 88, 89, 90, 91, 92, 93, 94, 95, 96, 97, 98, 99, 100, 101, 102, 103, 104, 105, 106, 107, 108, 109, 110, 111, 112, 113, 114, 115, 116, 117, 118, 119, 120, 121, 122, 123, 124, 125, 126, 127, 128, 129, 130, 131, 132, 133, 134, 135, 136, 137, 138, 139, 140, 141, 142, 143, 144, 145, 146, 147, 148, 149, 150, 151, 152, 153, 154, 155, 156, 157, 158, 159, 160, 161, 162, 163, 164, 165, 166, 167, 168, 169, 170, 171, 172, 173, 174, 175, 176, 177, 178, 179, 180, 181, 182, 183, 184, 185, 186, 187, 188, 189, 190, 191, 192],
      "AcquisitionTime": ["145426.350000", "145427.350000", "145428.350000", "145429.350000", "145430.350000", "145431.350000", "145432.350000", "145433.350000", "145434.350000", "145435.350000", "145436.350000", "145437.350000", "145438.350000", "145439.350000", "145440.350000", "145441.350000", "145442.350000", "145443.350000", "145444.350000", "145445.350000", "145446.350000", "145447.350000", "145448.350000", "145449.350000", "145450.350000", "145451.350000", "145452.350000", "145453.350000", "145454.350000", "145455.350000", "145456.350000", "145457.350000", "145458.350000", "145459.350000", "145500.350000", "145501.350000", "145502.350000", "145503.350000", "145504.350000", "145505.350000", "145506.350000", "145507.350000", "145508.350000", "145509.350000", "145510.350000", "145511.350000", "145512.350000", "145513.350000", "145514.350000", "145515.350000", "145516.350000", "145517.350000", "145518.350000", "145519.350000", "145520.350000", "145521.350000", "145522.350000", "145523.350000", "145524.350000", "145525.350000", "145526.350000", "145527.350000", "145528.350000", "145529.350000", "145530.350000", "145531.350000", "145532.350000", "145533.350000", "145534.350000", "145535.350000", "145536.350000", "145537.350000", "145538.350000", "145539.350000", "145540.350000", "145541.350000", "145542.350000", "145543.350000", "145544.350000", "145545.350000", "145546.350000", "145547.350000", "145548.350000", "145549.350000", "145550.350000", "145551.350000", "145552.350000", "145553.350000", "145554.350000", "145555.350000", "145556.350000", "145557.350000", "145558.350000", "145559.350000", "145600.350000", "145601.350000", "145602.350000", "145603.350000", "145604.350000", "145605.350000", "145606.350000", "145607.350000", "145608.350000", "145609.350000", "145610.350000", "145611.350000", "145612.350000", "145613.350000", "145614.350000", "145615.350000", "145616.350000", "145617.350000", "145618.350000", "145619.350000", "145620.350000", "145621.350000", "145622.350000", "145623.350000", "145624.350000", "145625.350000", "145626.350000", "145627.350000", "145628.350000", "145629.350000", "145630.350000", "145631.350000", "145632.350000", "145633.350000", "145634.350000", "145635.350000", "145636.350000", "145637.350000", "145638.350000", "145639.350000", "145640.350000", "145641.350000", "145642.350000", "145643.350000", "145644.350000", "145645.350000", "145646.350000", "145647.350000", "145648.350000", "145649.350000", "145650.350000", "145651.350000", "145652.350000", "145653.350000", "145654.350000", "145655.350000", "145656.350000", "145657.350000", "145658.350000", "145659.350000", "145700.350000", "145701.350000", "145702.350000", "145703.350000", "145704.350000", "145705.350000", "145706.350000", "145707.350000", "145708.350000", "145709.350000", "145710.350000", "145711.350000", "145712.350000", "145713.350000", "145714.350000", "145715.350000", "145716.350000", "145717.350000", "145718.350000", "145719.350000", "145720.350000", "145721.350000", "145722.350000", "145723.350000", "145724.350000", "145725.350000", "145726.350000", "145727.350000", "145728.350000", "145729.350000", "145730.350000", "145731.350000", "145732.350000", "145733.350000", "145734.350000", "145735.350000", "145736.350000", "145737.350000"],
      "ContentTime": ["145523.109000", "145528.069000", "145528.072000", "145528.075000", "145528.078000", "145528.081000", "145528.084000", "145528.132000", "145533.069000", "145533.072000", "145533.075000", "145533.078000", "145533.081000", "145533.084000", "145533.087000", "145538.070000", "145538.073000", "145538.076000", "145538.079000", "145538.082000", "145538.085000", "145538.088000", "145538.090000", "145543.069000", "145543.072000", "145543.075000", "145543.078000", "145543.081000", "145543.089000", "145543.092000", "145548.069000", "145548.093000", "145548.096000", "145548.099000", "145548.102000", "145548.105000", "145548.108000", "145553.070000", "145553.073000", "145553.076000", "145553.079000", "145553.082000", "145553.085000", "145553.088000", "145558.069000", "145558.072000", "145558.075000", "145558.078000", "145558.081000", "145558.084000", "145558.087000", "145603.069000", "145603.072000", "145603.076000", "145603.078000", "145603.081000", "145603.084000", "145603.087000", "145608.069000", "145608.072000", "145608.075000", "145608.078000", "145608.081000", "145608.084000", "145608.087000", "145613.070000", "145613.073000", "145613.076000", "145613.079000", "145613.082000", "145613.085000", "145613.088000", "145618.069000", "145618.072000", "145618.075000", "145618.078000", "145618.081000", "145618.084000", "145618.087000", "145623.069000", "145623.072000", "145623.075000", "145623.078000", "145623.081000", "145623.092000", "145623.095000", "145628.070000", "145628.073000", "145628.076000", "145628.079000", "145628.082000", "145628.085000", "145628.089000", "145633.069000", "145633.072000", "145633.075000", "145633.078000", "145633.081000", "145633.084000", "145633.087000", "145638.069000", "145638.072000", "145638.075000", "145638.078000", "145638.081000", "145638.084000", "145638.087000", "145638.090000", "145643.069000", "145643.072000", "145643.075000", "145643.078000", "145643.081000", "145643.084000", "145643.087000", "145648.070000", "145648.073000", "145648.076000", "145648.079000", "145648.082000", "145648.085000", "145648.088000", "145653.069000", "145653.072000", "145653.075000", "145653.078000", "145653.081000", "145653.084000", "145653.087000", "145658.069000", "145658.072000", "145658.075000", "145658.078000", "145658.081000", "145658.084000", "145658.087000", "145703.070000", "145703.073000", "145703.076000", "145703.079000", "145703.082000", "145703.085000", "145703.088000", "145708.069000", "145708.072000", "145708.076000", "145708.079000", "145708.082000", "145708.085000", "145708.087000", "145713.069000", "145713.072000", "145713.075000", "145713.078000", "145713.081000", "145713.084000", "145713.087000", "145718.069000", "145718.072000", "145718.075000", "145718.078000", "145718.081000", "145718.084000", "145718.087000", "145723.070000", "145723.073000", "145723.076000", "145723.080000", "145723.083000", "145723.086000", "145723.089000", "145723.091000", "145728.069000", "145728.072000", "145728.075000", "145728.078000", "145728.081000", "145728.084000", "145728.087000", "145733.069000", "145733.072000", "145733.075000", "145733.078000", "145733.081000", "145733.084000", "145738.070000", "145738.073000", "145738.076000", "145738.079000", "145738.083000", "145739.246000", "145739.249000"],
      "InstanceCreationTime": ["145523.109000", "145528.069000", "145528.072000", "145528.075000", "145528.078000", "145528.081000", "145528.084000", "145528.132000", "145533.069000", "145533.072000", "145533.075000", "145533.078000", "145533.081000", "145533.084000", "145533.087000", "145538.070000", "145538.073000", "145538.076000", "145538.079000", "145538.082000", "145538.085000", "145538.088000", "145538.090000", "145543.069000", "145543.072000", "145543.075000", "145543.078000", "145543.081000", "145543.089000", "145543.092000", "145548.069000", "145548.093000", "145548.096000", "145548.099000", "145548.102000", "145548.105000", "145548.108000", "145553.070000", "145553.073000", "145553.076000", "145553.079000", "145553.082000", "145553.085000", "145553.088000", "145558.069000", "145558.072000", "145558.075000", "145558.078000", "145558.081000", "145558.084000", "145558.087000", "145603.069000", "145603.072000", "145603.076000", "145603.078000", "145603.081000", "145603.084000", "145603.087000", "145608.069000", "145608.072000", "145608.075000", "145608.078000", "145608.081000", "145608.084000", "145608.087000", "145613.070000", "145613.073000", "145613.076000", "145613.079000", "145613.082000", "145613.085000", "145613.088000", "145618.069000", "145618.072000", "145618.075000", "145618.078000", "145618.081000", "145618.084000", "145618.087000", "145623.069000", "145623.072000", "145623.075000", "145623.078000", "145623.081000", "145623.092000", "145623.095000", "145628.070000", "145628.073000", "145628.076000", "145628.079000", "145628.082000", "145628.085000", "145628.089000", "145633.069000", "145633.072000", "145633.075000", "145633.078000", "145633.081000", "145633.084000", "145633.087000", "145638.069000", "145638.072000", "145638.075000", "145638.078000", "145638.081000", "145638.084000", "145638.087000", "145638.090000", "145643.069000", "145643.072000", "145643.075000", "145643.078000", "145643.081000", "145643.084000", "145643.087000", "145648.070000", "145648.073000", "145648.076000", "145648.079000", "145648.082000", "145648.085000", "145648.088000", "145653.069000", "145653.072000", "145653.075000", "145653.078000", "145653.081000", "145653.084000", "145653.087000", "145658.069000", "145658.072000", "145658.075000", "145658.078000", "145658.081000", "145658.084000", "145658.087000", "145703.070000", "145703.073000", "145703.076000", "145703.079000", "145703.082000", "145703.085000", "145703.088000", "145708.069000", "145708.072000", "145708.076000", "145708.079000", "145708.082000", "145708.085000", "145708.087000", "145713.069000", "145713.072000", "145713.075000", "145713.078000", "145713.081000", "145713.084000", "145713.087000", "145718.069000", "145718.072000", "145718.075000", "145718.078000", "145718.081000", "145718.084000", "145718.087000", "145723.070000", "145723.073000", "145723.076000", "145723.080000", "145723.083000", "145723.086000", "145723.089000", "145723.091000", "145728.069000", "145728.072000", "145728.075000", "145728.078000", "145728.081000", "145728.084000", "145728.087000", "145733.069000", "145733.072000", "145733.075000", "145733.078000", "145733.081000", "145733.084000", "145738.070000", "145738.073000", "145738.076000", "145738.079000", "145738.083000", "145739.246000", "145739.249000"],
      "InstanceNumber": [1, 2, 3, 4, 5, 6, 7, 8, 9, 10, 11, 12, 13, 14, 15, 16, 17, 18, 19, 20, 21, 22, 23, 24, 25, 26, 27, 28, 29, 30, 31, 32, 33, 34, 35, 36, 37, 38, 39, 40, 41, 42, 43, 44, 45, 46, 47, 48, 49, 50, 51, 52, 53, 54, 55, 56, 57, 58, 59, 60, 61, 62, 63, 64, 65, 66, 67, 68, 69, 70, 71, 72, 73, 74, 75, 76, 77, 78, 79, 80, 81, 82, 83, 84, 85, 86, 87, 88, 89, 90, 91, 92, 93, 94, 95, 96, 97, 98, 99, 100, 101, 102, 103, 104, 105, 106, 107, 108, 109, 110, 111, 112, 113, 114, 115, 116, 117, 118, 119, 120, 121, 122, 123, 124, 125, 126, 127, 128, 129, 130, 131, 132, 133, 134, 135, 136, 137, 138, 139, 140, 141, 142, 143, 144, 145, 146, 147, 148, 149, 150, 151, 152, 153, 154, 155, 156, 157, 158, 159, 160, 161, 162, 163, 164, 165, 166, 167, 168, 169, 170, 171, 172, 173, 174, 175, 176, 177, 178, 179, 180, 181, 182, 183, 184, 185, 186, 187, 188, 189, 190, 191, 192],
      "LargestImagePixelValue": [51174, 49862, 47115, 48282, 47530, 46671, 47330, 46893, 47559, 46139, 46105, 46843, 47561, 46099, 46374, 47168, 47037, 44968, 46764, 46831, 47039, 46536, 46381, 47188, 45140, 45411, 46216, 46427, 45212, 45576, 47059, 46056, 45736, 46579, 44803, 45714, 47610, 45740, 45561, 46333, 45980, 46282, 46198, 45948, 45903, 46203, 45359, 46578, 46189, 44871, 46445, 46805, 46233, 45732, 46738, 46634, 45926, 46154, 46249, 45121, 46613, 46909, 45384, 47163, 45354, 46508, 46816, 45905, 45250, 46363, 46172, 45842, 45887, 46137, 44498, 45729, 45972, 44424, 45558, 45165, 44638, 45643, 46548, 45004, 45461, 45761, 45832, 44853, 44677, 45304, 46194, 45310, 45797, 46279, 47068, 44638, 45671, 46873, 45821, 44986, 46119, 46869, 45056, 45923, 46361, 44284, 45913, 46145, 44858, 45534, 46165, 44658, 46272, 46144, 43857, 45900, 46309, 44620, 45505, 46449, 44573, 45613, 46829, 45110, 45507, 47114, 47112, 43966, 45849, 46136, 44453, 45383, 46445, 44158, 45125, 45830, 45377, 43684, 45599, 45662, 44974, 45678, 45740, 45902, 45489, 44329, 45132, 45212, 45389, 43991, 44390, 45549, 43117, 45020, 46124, 44784, 45526, 46625, 44144, 45480, 46311, 43872, 45629, 46382, 44474, 45329, 45062, 45258, 43831, 44593, 45229, 45435, 43991, 44734, 45337, 44143, 44874, 44991, 43916, 43389, 45490, 46782, 45043, 44501, 46782, 46417, 44250, 43720, 44347, 44946, 46533, 43899],
      "WindowCenter": [10631.0, 10591.0, 10559.0, 10564.0, 10564.0, 10555.0, 10552.0, 10544.0, 10541.0, 10532.0, 10532.0, 10537.0, 10547.0, 10534.0, 10530.0, 10540.0, 10542.0, 10524.0, 10542.0, 10544.0, 10550.0, 10558.0, 10563.0, 10569.0, 10556.0, 10547.0, 10549.0, 10542.0, 10532.0, 10530.0, 10545.0, 10549.0, 10544.0, 10556.0, 10544.0, 10545.0, 10555.0, 10543.0, 10538.0, 10548.0, 10543.0, 10541.0, 10540.0, 10536.0, 10534.0, 10534.0, 10544.0, 10554.0, 10551.0, 10543.0, 10550.0, 10548.0, 10531.0, 10529.0, 10539.0, 10538.0, 10536.0, 10542.0, 10543.0, 10539.0, 10548.0, 10546.0, 10538.0, 10566.0, 10561.0, 10568.0, 10568.0, 10552.0, 10539.0, 10542.0, 10535.0, 10529.0, 10535.0, 10534.0, 10521.0, 10528.0, 10533.0, 10534.0, 10533.0, 10527.0, 10521.0, 10536.0, 10550.0, 10541.0, 10545.0, 10544.0, 10532.0, 10522.0, 10521.0, 10517.0, 10521.0, 10522.0, 10528.0, 10533.0, 10544.0, 10522.0, 10530.0, 10539.0, 10532.0, 10526.0, 10537.0, 10548.0, 10540.0, 10551.0, 10558.0, 10540.0, 10545.0, 10544.0, 10541.0, 10542.0, 10560.0, 10558.0, 10573.0, 10562.0, 10530.0, 10539.0, 10536.0, 10524.0, 10531.0, 10535.0, 10522.0, 10525.0, 10535.0, 10528.0, 10525.0, 10539.0, 10532.0, 10504.0, 10514.0, 10521.0, 10512.0, 10523.0, 10542.0, 10532.0, 10547.0, 10551.0, 10539.0, 10525.0, 10531.0, 10529.0, 10523.0, 10528.0, 10523.0, 10521.0, 10512.0, 10506.0, 10504.0, 10505.0, 10517.0, 10505.0, 10509.0, 10524.0, 10509.0, 10527.0, 10543.0, 10538.0, 10543.0, 10550.0, 10525.0, 10526.0, 10534.0, 10516.0, 10529.0, 10534.0, 10520.0, 10525.0, 10525.0, 10519.0, 10505.0, 10507.0, 10511.0, 10522.0, 10525.0, 10531.0, 10534.0, 10533.0, 10537.0, 10544.0, 10535.0, 10523.0, 10526.0, 10540.0, 10534.0, 10529.0, 10549.0, 10549.0, 10526.0, 10521.0, 10516.0, 10513.0, 10527.0, 10512.0],
      "WindowWidth": [22954.0, 22831.0, 22744.0, 22745.0, 22740.0, 22718.0, 22708.0, 22686.0, 22675.0, 22657.0, 22657.0, 22666.0, 22690.0, 22666.0, 22654.0, 22675.0, 22682.0, 22647.0, 22683.0, 22690.0, 22701.0, 22723.0, 22736.0, 22749.0, 22722.0, 22699.0, 22701.0, 22686.0, 22662.0, 22656.0, 22692.0, 22705.0, 22691.0, 22716.0, 22694.0, 22692.0, 22709.0, 22685.0, 22673.0, 22694.0, 22686.0, 22681.0, 22678.0, 22669.0, 22661.0, 22664.0, 22691.0, 22711.0, 22704.0, 22688.0, 22702.0, 22698.0, 22657.0, 22653.0, 22673.0, 22672.0, 22669.0, 22685.0, 22685.0, 22678.0, 22696.0, 22691.0, 22675.0, 22736.0, 22730.0, 22744.0, 22741.0, 22705.0, 22676.0, 22681.0, 22663.0, 22652.0, 22666.0, 22662.0, 22634.0, 22648.0, 22659.0, 22667.0, 22664.0, 22647.0, 22636.0, 22669.0, 22700.0, 22681.0, 22691.0, 22688.0, 22660.0, 22638.0, 22634.0, 22623.0, 22628.0, 22633.0, 22644.0, 22656.0, 22681.0, 22637.0, 22649.0, 22672.0, 22659.0, 22647.0, 22671.0, 22697.0, 22680.0, 22705.0, 22720.0, 22682.0, 22688.0, 22684.0, 22679.0, 22682.0, 22726.0, 22723.0, 22758.0, 22732.0, 22658.0, 22672.0, 22665.0, 22640.0, 22653.0, 22662.0, 22636.0, 22639.0, 22663.0, 22650.0, 22640.0, 22667.0, 22652.0, 22592.0, 22611.0, 22627.0, 22612.0, 22635.0, 22680.0, 22664.0, 22695.0, 22704.0, 22674.0, 22645.0, 22654.0, 22649.0, 22636.0, 22645.0, 22636.0, 22630.0, 22611.0, 22597.0, 22590.0, 22593.0, 22623.0, 22599.0, 22605.0, 22639.0, 22613.0, 22646.0, 22682.0, 22677.0, 22685.0, 22699.0, 22644.0, 22642.0, 22658.0, 22625.0, 22650.0, 22660.0, 22633.0, 22642.0, 22642.0, 22626.0, 22599.0, 22601.0, 22608.0, 22634.0, 22649.0, 22660.0, 22666.0, 22667.0, 22675.0, 22689.0, 22673.0, 22643.0, 22642.0, 22674.0, 22665.0, 22653.0, 22696.0, 22698.0, 22650.0, 22637.0, 22624.0, 22613.0, 22642.0, 22617.0]
    },
    "slices": {}
  },
  "NumberOfVolumes": 192
}