{
  "AcquisitionMatrixPE": 104,
  "AcquisitionNumber": 1,
  "AcquisitionTime": "12:11:8.590000",
  "BandwidthPerPixelPhaseEncode": 16.297,
  "BaseResolution": 104,
  "BodyPartExamined": "BRAIN",
  "ConsistencyInfo": "N4_VE11C_LATEST_20160120",
  "ConversionSoftware": "dcm2niix",
  "ConversionSoftwareVersion": "v1.0.20210317",
  "DerivedVendorReportedEchoSpacing": 0.000590009,
  "DeviceSerialNumber": "166018",
  "DwellTime": 2.1e-06,
  "EchoTime": 0.0376,
  "EchoTrainLength": 104,
  "EffectiveEchoSpacing": 0.000590009,
  "FlipAngle": 68,
  "ImageComments": "Unaliased MB6/PE3/LB",
  "ImageOrientationPatientDICOM": [0.998262, 0.0507435, 0.0299598, -0.0505698, 0.998699, -0.00652948],
  "ImageType": [
    "ORIGINAL",
    "PRIMARY",
    "M",
    "MB",
    "ND",
    "MOSAIC"
],
  "ImagingFrequency": 123.197,
  "InPlanePhaseEncodingDirectionDICOM": "COL",
  "InstitutionAddress": "Washington Place 6,NYC,NYC,US,10003",
  "InstitutionName": "NYU - CBI",
  "InstitutionalDepartmentName": "Department",
  "MRAcquisitionType": "2D",
  "MagneticFieldStrength": 3,
  "Manufacturer": "Siemens",
  "ManufacturersModelName": "Prisma",
  "Modality": "MR",
  "MultibandAccelerationFactor": 6,
  "PartialFourier": 1,
  "PatientPosition": "HFS",
  "PercentPhaseFOV": 100,
  "PercentSampling": 100,
  "PhaseEncodingDirection": "j",
  "PhaseEncodingSteps": 104,
  "PhaseResolution": 1,
  "PixelBandwidth": 2290,
  "ProcedureStepDescription": "Investigators^Winawer",
  "ProtocolName": "cmrr_mbepi_s6_2mm_66sl_PA_task-wedgering2",
  "PulseSequenceDetails": "%CustomerSeq%\\cmrr_mbep2d_bold",
  "ReceiveCoilActiveElements": "HC1-7",
  "ReceiveCoilName": "HeadNeck_64",
  "ReconMatrixPE": 104,
  "RepetitionTime": 1,
  "SAR": 0.0754537,
  "ScanOptions": "FS",
  "ScanningSequence": "EP",
  "SequenceName": "epfid2d1_104",
  "SequenceVariant": "SK\\SS",
  "SeriesDescription": "cmrr_mbepi_s6_2mm_66sl_PA_task-wedgering2",
  "SeriesNumber": 14,
  "ShimSetting": [303, -12677, -8528, 278, -17, -168, -114, 9],
  "SliceThickness": 2,
  "SliceTiming": [0, 0.535, 0.0875, 0.6225, 0.1775, 0.7125, 0.2675, 0.8, 0.355, 0.89, 0.445, 0, 0.535, 0.0875, 0.6225, 0.1775, 0.7125, 0.2675, 0.8, 0.355, 0.89, 0.445, 0, 0.535, 0.0875, 0.6225, 0.1775, 0.7125, 0.2675, 0.8, 0.355, 0.89, 0.445, 0, 0.535, 0.0875, 0.6225, 0.1775, 0.7125, 0.2675, 0.8, 0.355, 0.89, 0.445, 0, 0.535, 0.0875, 0.6225, 0.1775, 0.7125, 0.2675, 0.8, 0.355, 0.89, 0.445, 0, 0.535, 0.0875, 0.6225, 0.1775, 0.7125, 0.2675, 0.8, 0.355, 0.89, 0.445],
  "SoftwareVersions": "syngo MR E11",
  "SpacingBetweenSlices": 2,
  "StationName": "AWP166018",
  "TaskName": "wedgering2",
  "TotalReadoutTime": 0.060771,
  "TxRefAmp": 213.632,
  "VendorReportedEchoSpacing": 0.00059,
  "WipMemBlock": "57e160bb-815b-4336-98d8-85c9e93716b2||Sequence: R016 ve11c/master r/8780670; Nov 27 2017 15:05:12 by eja",
  "dcmmeta_affine": [
    [-1.996524453163147, -0.10113956034183502, 0.06050429120659828, 111.08380126953125],
    [-0.10148706287145615, 1.9973983764648438, -0.010006144642829895, -79.30956268310547],
    [0.0599195770919323, 0.013058957643806934, 1.9990595579147339, -50.673770904541016],
    [0.0, 0.0, 0.0, 1.0]
],
  "dcmmeta_reorient_transform": [
    [0.0, -1.0, 0.0, 103.0],
    [1.0, 0.0, 0.0, 0.0],
    [0.0, 0.0, 1.0, 0.0],
    [0.0, 0.0, 0.0, 1.0]
],
  "dcmmeta_shape": [104, 104, 66, 300],
  "dcmmeta_slice_dim": 2,
  "dcmmeta_version": 0.6,
  "global": {
    "const": {
      "AccessionNumber": "Lf37ry4e",
      "AcquisitionMatrix": [104, 0, 0, 104],
      "AngioFlag": "N",
      "BitsAllocated": 16,
      "BitsStored": 16,
      "BodyPartExamined": "BRAIN",
      "Columns": 936,
      "EchoNumbers": 1,
      "EchoTime": 37.6,
      "EchoTrainLength": 104,
      "FlipAngle": 68.0,
      "HighBit": 15,
      "ImageOrientationPatient": [0.9982622427124, 0.05074353048973, 0.02995978785393, -0.0505697787768, 0.99869918563124, -0.0065294788433],
      "ImagePositionPatient": [-889.14655746236, -999.55881022197, -68.82271411921],
      "ImageType": [
        "ORIGINAL",
        "PRIMARY",
        "M",
        "MB",
        "ND",
        "MOSAIC"
],
      "ImagedNucleus": "1H",
      "ImagingFrequency": 123.196836,
      "InPlanePhaseEncodingDirection": "COL",
      "MRAcquisitionType": "2D",
      "MagneticFieldStrength": 3.0,
      "Manufacturer": "SIEMENS",
      "ManufacturerModelName": "Prisma",
      "Modality": "MR",
      "NumberOfAverages": 1.0,
      "NumberOfPhaseEncodingSteps": 104,
      "PercentPhaseFieldOfView": 100.0,
      "PercentSampling": 100.0,
      "PerformedProcedureStepStartTime": "113840.211000",
      "PhotometricInterpretation": "MONOCHROME2",
      "PixelBandwidth": 2290.0,
      "PixelRepresentation": 0,
      "PixelSpacing": [2.0, 2.0],
      "ProtocolName": "cmrr_mbepi_s6_2mm_66sl_PA_task-wedgering2",
      "RepetitionTime": 1000.0,
      "Rows": 936,
      "SAR": 0.07545369010814,
      "SamplesPerPixel": 1,
      "ScanOptions": "FS",
      "ScanningSequence": "EP",
      "SequenceName": "epfid2d1_104",
      "SequenceVariant": [
        "SK",
        "SS"
],
      "SeriesDescription": "cmrr_mbepi_s6_2mm_66sl_PA_task-wedgering2",
      "SeriesNumber": 14,
      "SeriesTime": "121231.791000",
      "SliceLocation": -46.89262703355,
      "SliceThickness": 2.0,
      "SmallestImagePixelValue": 0,
      "SoftwareVersions": "syngo MR E11",
      "SpacingBetweenSlices": 2.0000000331362,
      "SpecificCharacterSet": "ISO_IR 100",
      "StudyID": "1",
      "StudyTime": "113840.168000",
      "TransmitCoilName": "Body",
      "VariableFlipAngleFlag": "N",
      "WindowCenterWidthExplanation": "Algo1",
      "dBdt": 0.0},
    "slices": {}
  },
  "time": {
    "samples": {
      "AcquisitionNumber": [1, 2, 3, 4, 5, 6, 7, 8, 9, 10, 11, 12, 13, 14, 15, 16, 17, 18, 19, 20, 21, 22, 23, 24, 25, 26, 27, 28, 29, 30, 31, 32, 33, 34, 35, 36, 37, 38, 39, 40, 41, 42, 43, 44, 45, 46, 47, 48, 49, 50, 51, 52, 53, 54, 55, 56, 57, 58, 59, 60, 61, 62, 63, 64, 65, 66, 67, 68, 69, 70, 71, 72, 73, 74, 75, 76, 77, 78, 79, 80, 81, 82, 83, 84, 85, 86, 87, 88, 89, 90, 91, 92, 93, 94, 95, 96, 97, 98, 99, 100, 101, 102, 103, 104, 105, 106, 107, 108, 109, 110, 111, 112, 113, 114, 115, 116, 117, 118, 119, 120, 121, 122, 123, 124, 125, 126, 127, 128, 129, 130, 131, 132, 133, 134, 135, 136, 137, 138, 139, 140, 141, 142, 143, 144, 145, 146, 147, 148, 149, 150, 151, 152, 153, 154, 155, 156, 157, 158, 159, 160, 161, 162, 163, 164, 165, 166, 167, 168, 169, 170, 171, 172, 173, 174, 175, 176, 177, 178, 179, 180, 181, 182, 183, 184, 185, 186, 187, 188, 189, 190, 191, 192, 193, 194, 195, 196, 197, 198, 199, 200, 201, 202, 203, 204, 205, 206, 207, 208, 209, 210, 211, 212, 213, 214, 215, 216, 217, 218, 219, 220, 221, 222, 223, 224, 225, 226, 227, 228, 229, 230, 231, 232, 233, 234, 235, 236, 237, 238, 239, 240, 241, 242, 243, 244, 245, 246, 247, 248, 249, 250, 251, 252, 253, 254, 255, 256, 257, 258, 259, 260, 261, 262, 263, 264, 265, 266, 267, 268, 269, 270, 271, 272, 273, 274, 275, 276, 277, 278, 279, 280, 281, 282, 283, 284, 285, 286, 287, 288, 289, 290, 291, 292, 293, 294, 295, 296, 297, 298, 299, 300],
      "AcquisitionTime": ["121108.590000", "121109.590000", "121110.590000", "121111.590000", "121112.590000", "121113.590000", "121114.590000", "121115.590000", "121116.590000", "121117.590000", "121118.590000", "121119.590000", "121120.590000", "121121.590000", "121122.590000", "121123.590000", "121124.590000", "121125.590000", "121126.590000", "121127.590000", "121128.590000", "121129.590000", "121130.590000", "121131.590000", "121132.590000", "121133.590000", "121134.590000", "121135.590000", "121136.590000", "121137.590000", "121138.590000", "121139.590000", "121140.590000", "121141.590000", "121142.590000", "121143.590000", "121144.590000", "121145.590000", "121146.590000", "121147.590000", "121148.590000", "121149.590000", "121150.590000", "121151.590000", "121152.590000", "121153.590000", "121154.590000", "121155.590000", "121156.590000", "121157.590000", "121158.590000", "121159.590000", "121200.590000", "121201.590000", "121202.590000", "121203.590000", "121204.590000", "121205.590000", "121206.590000", "121207.590000", "121208.590000", "121209.590000", "121210.590000", "121211.590000", "121212.590000", "121213.590000", "121214.590000", "121215.590000", "121216.590000", "121217.590000", "121218.590000", "121219.590000", "121220.590000", "121221.590000", "121222.590000", "121223.590000", "121224.590000", "121225.590000", "121226.590000", "121227.590000", "121228.590000", "121229.590000", "121230.590000", "121231.590000", "121232.590000", "121233.590000", "121234.590000", "121235.590000", "121236.590000", "121237.590000", "121238.590000", "121239.590000", "121240.590000", "121241.590000", "121242.590000", "121243.590000", "121244.590000", "121245.590000", "121246.590000", "121247.590000", "121248.590000", "121249.590000", "121250.590000", "121251.590000", "121252.590000", "121253.590000", "121254.590000", "121255.590000", "121256.590000", "121257.590000", "121258.590000", "121259.590000", "121300.590000", "121301.590000", "121302.590000", "121303.590000", "121304.590000", "121305.590000", "121306.590000", "121307.590000", "121308.590000", "121309.590000", "121310.590000", "121311.590000", "121312.590000", "121313.590000", "121314.590000", "121315.590000", "121316.590000", "121317.590000", "121318.590000", "121319.590000", "121320.590000", "121321.590000", "121322.590000", "121323.590000", "121324.590000", "121325.590000", "121326.590000", "121327.590000", "121328.590000", "121329.590000", "121330.590000", "121331.590000", "121332.590000", "121333.590000", "121334.590000", "121335.590000", "121336.590000", "121337.590000", "121338.590000", "121339.590000", "121340.590000", "121341.590000", "121342.590000", "121343.590000", "121344.590000", "121345.590000", "121346.590000", "121347.590000", "121348.590000", "121349.590000", "121350.590000", "121351.590000", "121352.590000", "121353.590000", "121354.590000", "121355.590000", "121356.590000", "121357.590000", "121358.590000", "121359.590000", "121400.590000", "121401.590000", "121402.590000", "121403.590000", "121404.590000", "121405.590000", "121406.590000", "121407.590000", "121408.590000", "121409.590000", "121410.590000", "121411.590000", "121412.590000", "121413.590000", "121414.590000", "121415.590000", "121416.590000", "121417.590000", "121418.590000", "121419.590000", "121420.590000", "121421.590000", "121422.590000", "121423.590000", "121424.590000", "121425.590000", "121426.590000", "121427.590000", "121428.590000", "121429.590000", "121430.590000", "121431.590000", "121432.590000", "121433.590000", "121434.590000", "121435.590000", "121436.590000", "121437.590000", "121438.590000", "121439.590000", "121440.590000", "121441.590000", "121442.590000", "121443.590000", "121444.590000", "121445.590000", "121446.590000", "121447.590000", "121448.590000", "121449.590000", "121450.590000", "121451.590000", "121452.590000", "121453.590000", "121454.590000", "121455.590000", "121456.590000", "121457.590000", "121458.590000", "121459.590000", "121500.590000", "121501.590000", "121502.590000", "121503.590000", "121504.590000", "121505.590000", "121506.590000", "121507.590000", "121508.590000", "121509.590000", "121510.590000", "121511.590000", "121512.590000", "121513.590000", "121514.590000", "121515.590000", "121516.590000", "121517.590000", "121518.590000", "121519.590000", "121520.590000", "121521.590000", "121522.590000", "121523.590000", "121524.590000", "121525.590000", "121526.590000", "121527.590000", "121528.590000", "121529.590000", "121530.590000", "121531.590000", "121532.590000", "121533.590000", "121534.590000", "121535.590000", "121536.590000", "121537.590000", "121538.590000", "121539.590000", "121540.590000", "121541.590000", "121542.590000", "121543.590000", "121544.590000", "121545.590000", "121546.590000", "121547.590000", "121548.590000", "121549.590000", "121550.590000", "121551.590000", "121552.590000", "121553.590000", "121554.590000", "121555.590000", "121556.590000", "121557.590000", "121558.590000", "121559.590000", "121600.590000", "121601.590000", "121602.590000", "121603.590000", "121604.590000", "121605.590000", "121606.590000", "121607.590000"],
      "ContentTime": ["121231.794000", "121231.798000", "121231.801000", "121231.804000", "121231.814000", "121231.817000", "121231.820000", "121231.823000", "121231.826000", "121231.829000", "121231.832000", "121231.848000", "121231.860000", "121231.863000", "121231.866000", "121231.869000", "121231.872000", "121231.875000", "121231.878000", "121231.881000", "121231.888000", "121231.891000", "121231.894000", "121231.897000", "121231.901000", "121231.904000", "121231.907000", "121231.910000", "121231.913000", "121231.916000", "121231.919000", "121231.922000", "121231.925000", "121231.928000", "121231.931000", "121231.934000", "121231.937000", "121231.940000", "121231.943000", "121231.946000", "121231.949000", "121231.952000", "121231.955000", "121231.958000", "121231.961000", "121231.964000", "121231.967000", "121231.976000", "121251.753000", "121251.756000", "121251.759000", "121251.762000", "121251.765000", "121251.769000", "121251.772000", "121251.775000", "121251.777000", "121251.781000", "121251.784000", "121251.848000", "121251.851000", "121251.854000", "121251.857000", "121251.860000", "121251.863000", "121251.866000", "121251.869000", "121251.872000", "121251.875000", "121251.885000", "121251.888000", "121251.891000", "121251.894000", "121251.898000", "121251.901000", "121251.903000", "121311.753000", "121311.756000", "121311.759000", "121311.762000", "121311.765000", "121311.768000", "121311.771000", "121311.774000", "121311.777000", "121311.780000", "121311.784000", "121311.868000", "121311.871000", "121311.874000", "121311.877000", "121311.891000", "121311.894000", "121311.897000", "121311.900000", "121311.903000", "121311.906000", "121311.909000", "121311.912000", "121311.915000", "121311.918000", "121311.921000", "121311.924000", "121311.927000", "121331.753000", "121331.756000", "121331.759000", "121331.762000", "121331.766000", "121331.769000", "121331.772000", "121331.775000", "121331.778000", "121331.794000", "121331.797000", "121331.800000", "121331.803000", "121331.806000", "121331.810000", "121331.812000", "121331.815000", "121331.818000", "121331.822000", "121331.825000", "121331.828000", "121331.831000", "121331.834000", "121331.837000", "121331.840000", "121331.843000", "121331.846000", "121331.849000", "121351.753000", "121351.756000", "121351.759000", "121351.762000", "121351.765000", "121351.768000", "121351.772000", "121351.775000", "121351.778000", "121351.781000", "121351.784000", "121351.787000", "121351.790000", "121351.793000", "121351.796000", "121351.799000", "121351.802000", "121351.805000", "121351.808000", "121351.811000", "121351.814000", "121351.817000", "121351.821000", "121351.823000", "121351.827000", "121351.830000", "121351.833000", "121351.836000", "121351.839000", "121411.753000", "121411.756000", "121411.759000", "121411.762000", "121411.765000", "121411.774000", "121411.777000", "121411.780000", "121411.783000", "121411.786000", "121411.789000", "121411.793000", "121411.796000", "121411.799000", "121411.802000", "121411.805000", "121411.808000", "121411.811000", "121411.814000", "121411.817000", "121411.820000", "121431.753000", "121431.756000", "121431.759000", "121431.762000", "121431.765000", "121431.768000", "121431.771000", "121431.774000", "121431.777000", "121431.780000", "121431.783000", "121431.786000", "121431.790000", "121431.793000", "121431.796000", "121431.799000", "121431.802000", "121431.805000", "121431.808000", "121431.811000", "121451.752000", "121451.755000", "121451.758000", "121451.784000", "121451.798000", "121451.801000", "121451.804000", "121451.807000", "121451.810000", "121451.813000", "121451.816000", "121451.819000", "121451.822000", "121451.825000", "121451.829000", "121451.832000", "121451.835000", "121451.838000", "121451.841000", "121451.844000", "121511.753000", "121511.756000", "121511.759000", "121511.762000", "121511.765000", "121511.768000", "121511.771000", "121511.774000", "121511.777000", "121511.780000", "121511.784000", "121511.826000", "121511.829000", "121511.832000", "121511.836000", "121511.839000", "121511.842000", "121511.845000", "121511.848000", "121511.856000", "121531.753000", "121531.756000", "121531.759000", "121531.762000", "121531.765000", "121531.768000", "121531.771000", "121531.774000", "121531.777000", "121531.780000", "121531.783000", "121531.786000", "121531.789000", "121531.793000", "121531.796000", "121531.799000", "121531.802000", "121531.805000", "121531.808000", "121531.811000", "121551.753000", "121551.756000", "121551.759000", "121551.762000", "121551.765000", "121551.768000", "121551.771000", "121551.774000", "121551.778000", "121551.780000", "121551.784000", "121551.787000", "121551.790000", "121551.793000", "121551.796000", "121551.799000", "121551.802000", "121551.805000", "121551.808000", "121551.811000", "121609.619000", "121609.622000", "121609.625000", "121609.628000", "121609.631000", "121609.634000", "121609.638000", "121609.641000", "121609.644000", "121609.647000", "121609.650000", "121609.653000", "121609.656000", "121609.659000", "121609.662000", "121609.665000", "121609.668000", "121609.671000"],
      "InstanceCreationTime": ["121231.794000", "121231.798000", "121231.801000", "121231.804000", "121231.814000", "121231.817000", "121231.820000", "121231.823000", "121231.826000", "121231.829000", "121231.832000", "121231.848000", "121231.860000", "121231.863000", "121231.866000", "121231.869000", "121231.872000", "121231.875000", "121231.878000", "121231.881000", "121231.888000", "121231.891000", "121231.894000", "121231.897000", "121231.901000", "121231.904000", "121231.907000", "121231.910000", "121231.913000", "121231.916000", "121231.919000", "121231.922000", "121231.925000", "121231.928000", "121231.931000", "121231.934000", "121231.937000", "121231.940000", "121231.943000", "121231.946000", "121231.949000", "121231.952000", "121231.955000", "121231.958000", "121231.961000", "121231.964000", "121231.967000", "121231.976000", "121251.753000", "121251.756000", "121251.759000", "121251.762000", "121251.765000", "121251.769000", "121251.772000", "121251.775000", "121251.777000", "121251.781000", "121251.784000", "121251.848000", "121251.851000", "121251.854000", "121251.857000", "121251.860000", "121251.863000", "121251.866000", "121251.869000", "121251.872000", "121251.875000", "121251.885000", "121251.888000", "121251.891000", "121251.894000", "121251.898000", "121251.901000", "121251.903000", "121311.753000", "121311.756000", "121311.759000", "121311.762000", "121311.765000", "121311.768000", "121311.771000", "121311.774000", "121311.777000", "121311.780000", "121311.784000", "121311.868000", "121311.871000", "121311.874000", "121311.877000", "121311.891000", "121311.894000", "121311.897000", "121311.900000", "121311.903000", "121311.906000", "121311.909000", "121311.912000", "121311.915000", "121311.918000", "121311.921000", "121311.924000", "121311.927000", "121331.753000", "121331.756000", "121331.759000", "121331.762000", "121331.766000", "121331.769000", "121331.772000", "121331.775000", "121331.778000", "121331.794000", "121331.797000", "121331.800000", "121331.803000", "121331.806000", "121331.810000", "121331.812000", "121331.815000", "121331.818000", "121331.822000", "121331.825000", "121331.828000", "121331.831000", "121331.834000", "121331.837000", "121331.840000", "121331.843000", "121331.846000", "121331.849000", "121351.753000", "121351.756000", "121351.759000", "121351.762000", "121351.765000", "121351.768000", "121351.772000", "121351.775000", "121351.778000", "121351.781000", "121351.784000", "121351.787000", "121351.790000", "121351.793000", "121351.796000", "121351.799000", "121351.802000", "121351.805000", "121351.808000", "121351.811000", "121351.814000", "121351.817000", "121351.821000", "121351.823000", "121351.827000", "121351.830000", "121351.833000", "121351.836000", "121351.839000", "121411.753000", "121411.756000", "121411.759000", "121411.762000", "121411.765000", "121411.774000", "121411.777000", "121411.780000", "121411.783000", "121411.786000", "121411.789000", "121411.793000", "121411.796000", "121411.799000", "121411.802000", "121411.805000", "121411.808000", "121411.811000", "121411.814000", "121411.817000", "121411.820000", "121431.753000", "121431.756000", "121431.759000", "121431.762000", "121431.765000", "121431.768000", "121431.771000", "121431.774000", "121431.777000", "121431.780000", "121431.783000", "121431.786000", "121431.790000", "121431.793000", "121431.796000", "121431.799000", "121431.802000", "121431.805000", "121431.808000", "121431.811000", "121451.752000", "121451.755000", "121451.758000", "121451.784000", "121451.798000", "121451.801000", "121451.804000", "121451.807000", "121451.810000", "121451.813000", "121451.816000", "121451.819000", "121451.822000", "121451.825000", "121451.829000", "121451.832000", "121451.835000", "121451.838000", "121451.841000", "121451.844000", "121511.753000", "121511.756000", "121511.759000", "121511.762000", "121511.765000", "121511.768000", "121511.771000", "121511.774000", "121511.777000", "121511.780000", "121511.784000", "121511.826000", "121511.829000", "121511.832000", "121511.836000", "121511.839000", "121511.842000", "121511.845000", "121511.848000", "121511.856000", "121531.753000", "121531.756000", "121531.759000", "121531.762000", "121531.765000", "121531.768000", "121531.771000", "121531.774000", "121531.777000", "121531.780000", "121531.783000", "121531.786000", "121531.789000", "121531.793000", "121531.796000", "121531.799000", "121531.802000", "121531.805000", "121531.808000", "121531.811000", "121551.753000", "121551.756000", "121551.759000", "121551.762000", "121551.765000", "121551.768000", "121551.771000", "121551.774000", "121551.778000", "121551.780000", "121551.784000", "121551.787000", "121551.790000", "121551.793000", "121551.796000", "121551.799000", "121551.802000", "121551.805000", "121551.808000", "121551.811000", "121609.619000", "121609.622000", "121609.625000", "121609.628000", "121609.631000", "121609.634000", "121609.638000", "121609.641000", "121609.644000", "121609.647000", "121609.650000", "121609.653000", "121609.656000", "121609.659000", "121609.662000", "121609.665000", "121609.668000", "121609.671000"],
      "InstanceNumber": [1, 2, 3, 4, 5, 6, 7, 8, 9, 10, 11, 12, 13, 14, 15, 16, 17, 18, 19, 20, 21, 22, 23, 24, 25, 26, 27, 28, 29, 30, 31, 32, 33, 34, 35, 36, 37, 38, 39, 40, 41, 42, 43, 44, 45, 46, 47, 48, 49, 50, 51, 52, 53, 54, 55, 56, 57, 58, 59, 60, 61, 62, 63, 64, 65, 66, 67, 68, 69, 70, 71, 72, 73, 74, 75, 76, 77, 78, 79, 80, 81, 82, 83, 84, 85, 86, 87, 88, 89, 90, 91, 92, 93, 94, 95, 96, 97, 98, 99, 100, 101, 102, 103, 104, 105, 106, 107, 108, 109, 110, 111, 112, 113, 114, 115, 116, 117, 118, 119, 120, 121, 122, 123, 124, 125, 126, 127, 128, 129, 130, 131, 132, 133, 134, 135, 136, 137, 138, 139, 140, 141, 142, 143, 144, 145, 146, 147, 148, 149, 150, 151, 152, 153, 154, 155, 156, 157, 158, 159, 160, 161, 162, 163, 164, 165, 166, 167, 168, 169, 170, 171, 172, 173, 174, 175, 176, 177, 178, 179, 180, 181, 182, 183, 184, 185, 186, 187, 188, 189, 190, 191, 192, 193, 194, 195, 196, 197, 198, 199, 200, 201, 202, 203, 204, 205, 206, 207, 208, 209, 210, 211, 212, 213, 214, 215, 216, 217, 218, 219, 220, 221, 222, 223, 224, 225, 226, 227, 228, 229, 230, 231, 232, 233, 234, 235, 236, 237, 238, 239, 240, 241, 242, 243, 244, 245, 246, 247, 248, 249, 250, 251, 252, 253, 254, 255, 256, 257, 258, 259, 260, 261, 262, 263, 264, 265, 266, 267, 268, 269, 270, 271, 272, 273, 274, 275, 276, 277, 278, 279, 280, 281, 282, 283, 284, 285, 286, 287, 288, 289, 290, 291, 292, 293, 294, 295, 296, 297, 298, 299, 300],
      "LargestImagePixelValue": [40058, 39660, 38605, 38301, 38100, 37613, 37990, 38536, 38104, 37889, 37987, 37797, 37892, 38022, 38314, 37925, 38316, 38098, 38112, 38324, 38359, 38298, 38087, 38349, 37819, 38381, 38331, 38679, 38619, 38363, 38024, 38317, 38134, 37827, 38387, 38088, 38421, 38335, 38026, 38297, 38084, 38252, 38252, 38384, 38516, 38346, 38280, 38036, 38337, 38473, 38567, 38331, 38445, 38462, 38910, 39081, 38823, 38717, 38684, 38978, 38876, 38672, 38466, 38964, 38559, 38950, 38775, 38869, 38576, 39058, 38301, 38194, 38354, 38231, 37960, 37872, 37965, 38466, 38335, 38205, 38106, 38111, 38378, 38178, 38111, 37842, 37974, 38123, 37784, 37950, 37998, 37711, 38177, 38083, 37879, 38084, 38088, 38200, 37985, 38071, 38159, 38016, 37907, 38173, 37893, 38309, 38469, 38468, 38523, 38613, 38729, 38392, 38723, 38549, 38839, 38796, 38704, 38277, 38782, 38326, 38447, 38635, 38516, 38457, 38432, 38434, 38379, 38774, 38489, 38692, 38739, 38803, 38442, 38301, 38148, 38349, 38219, 38222, 38240, 38017, 38589, 39027, 38581, 38700, 38097, 38491, 38212, 38702, 38476, 38661, 38329, 38819, 38528, 38769, 38728, 38999, 38512, 38532, 38250, 38189, 38191, 38163, 38105, 38195, 38003, 38298, 38494, 38128, 38189, 38222, 38187, 38279, 37941, 38266, 38200, 37556, 38440, 38067, 37910, 37786, 37788, 38109, 38393, 38223, 38561, 38427, 38191, 38248, 38347, 38190, 38289, 37917, 38168, 38110, 38039, 38133, 37644, 37750, 37912, 38081, 38047, 38106, 38078, 37893, 37878, 38145, 37927, 38022, 37816, 37854, 37750, 38096, 37530, 37851, 37902, 37688, 37769, 37855, 37873, 38055, 37627, 37846, 37804, 38099, 37989, 38079, 37821, 37703, 37929, 37751, 37798, 38204, 37973, 38204, 38025, 38514, 38380, 37793, 37226, 37531, 37192, 37437, 37270, 37443, 37428, 37898, 37481, 37571, 37713, 37550, 37403, 37558, 37431, 37504, 37745, 37685, 37997, 37731, 37558, 37620, 37598, 37692, 37834, 37423, 37691, 37883, 37625, 37736, 37930, 37837, 37775, 37932, 37678, 37844, 37897, 37911, 37263, 37960, 37945, 37744, 37742, 37222, 37630, 37395, 37174, 37884, 37621, 37561, 37395, 38119, 37774, 37660, 37725, 37967, 38224, 38254, 38061, 37743, 37780, 38028],
      "WindowCenter": [9725.0, 9691.0, 9656.0, 9645.0, 9638.0, 9614.0, 9618.0, 9616.0, 9602.0, 9594.0, 9600.0, 9589.0, 9589.0, 9596.0, 9609.0, 9598.0, 9605.0, 9606.0, 9606.0, 9612.0, 9605.0, 9604.0, 9597.0, 9597.0, 9581.0, 9592.0, 9593.0, 9592.0, 9609.0, 9604.0, 9604.0, 9613.0, 9604.0, 9613.0, 9619.0, 9612.0, 9620.0, 9611.0, 9605.0, 9610.0, 9596.0, 9594.0, 9592.0, 9584.0, 9576.0, 9582.0, 9573.0, 9576.0, 9589.0, 9591.0, 9607.0, 9609.0, 9608.0, 9609.0, 9605.0, 9597.0, 9592.0, 9587.0, 9580.0, 9586.0, 9571.0, 9571.0, 9574.0, 9587.0, 9588.0, 9596.0, 9589.0, 9588.0, 9597.0, 9606.0, 9607.0, 9611.0, 9617.0, 9605.0, 9605.0, 9596.0, 9586.0, 9597.0, 9590.0, 9588.0, 9584.0, 9592.0, 9591.0, 9600.0, 9602.0, 9589.0, 9594.0, 9593.0, 9584.0, 9599.0, 9609.0, 9602.0, 9601.0, 9592.0, 9583.0, 9599.0, 9599.0, 9600.0, 9602.0, 9595.0, 9594.0, 9602.0, 9601.0, 9611.0, 9605.0, 9602.0, 9600.0, 9593.0, 9589.0, 9597.0, 9596.0, 9590.0, 9604.0, 9606.0, 9619.0, 9621.0, 9621.0, 9616.0, 9616.0, 9618.0, 9610.0, 9610.0, 9608.0, 9594.0, 9599.0, 9583.0, 9571.0, 9570.0, 9563.0, 9559.0, 9561.0, 9560.0, 9554.0, 9561.0, 9564.0, 9579.0, 9588.0, 9599.0, 9605.0, 9606.0, 9614.0, 9604.0, 9604.0, 9606.0, 9590.0, 9582.0, 9583.0, 9585.0, 9580.0, 9580.0, 9570.0, 9569.0, 9563.0, 9553.0, 9551.0, 9557.0, 9551.0, 9560.0, 9570.0, 9572.0, 9570.0, 9571.0, 9557.0, 9548.0, 9555.0, 9554.0, 9562.0, 9570.0, 9579.0, 9587.0, 9590.0, 9597.0, 9597.0, 9597.0, 9589.0, 9583.0, 9588.0, 9589.0, 9582.0, 9577.0, 9575.0, 9572.0, 9578.0, 9571.0, 9576.0, 9578.0, 9565.0, 9571.0, 9577.0, 9564.0, 9578.0, 9574.0, 9574.0, 9573.0, 9574.0, 9575.0, 9576.0, 9586.0, 9585.0, 9591.0, 9585.0, 9582.0, 9582.0, 9583.0, 9576.0, 9573.0, 9567.0, 9571.0, 9557.0, 9558.0, 9572.0, 9572.0, 9575.0, 9591.0, 9590.0, 9590.0, 9584.0, 9575.0, 9574.0, 9574.0, 9566.0, 9565.0, 9564.0, 9570.0, 9578.0, 9595.0, 9598.0, 9599.0, 9600.0, 9592.0, 9591.0, 9583.0, 9580.0, 9579.0, 9581.0, 9595.0, 9607.0, 9609.0, 9597.0, 9596.0, 9589.0, 9578.0, 9562.0, 9567.0, 9573.0, 9575.0, 9569.0, 9570.0, 9575.0, 9574.0, 9566.0, 9567.0, 9565.0, 9558.0, 9564.0, 9563.0, 9555.0, 9555.0, 9540.0, 9543.0, 9553.0, 9563.0, 9563.0, 9558.0, 9550.0, 9548.0, 9562.0, 9574.0, 9590.0, 9600.0, 9602.0, 9594.0, 9579.0, 9574.0, 9557.0, 9547.0, 9542.0, 9561.0, 9578.0, 9605.0, 9625.0, 9622.0, 9622.0, 9614.0, 9599.0, 9595.0, 9579.0, 9575.0, 9574.0, 9580.0, 9566.0, 9565.0, 9567.0, 9563.0, 9571.0, 9580.0, 9588.0, 9593.0, 9601.0, 9601.0],
