{
  "AcquisitionMatrixPE": 104,
  "AcquisitionNumber": 1,
  "AcquisitionTime": "16:52:53.485000",
  "BandwidthPerPixelPhaseEncode": 16.578,
  "BaseResolution": 104,
  "BodyPartExamined": "BRAIN",
  "ConsistencyInfo": "N4_VE11C_LATEST_20160120",
  "ConversionSoftware": "dcm2niix",
  "ConversionSoftwareVersion": "v1.0.20190410  GCC6.3.0",
  "DerivedVendorReportedEchoSpacing": 0.000580009,
  "DeviceSerialNumber": "166018",
  "DwellTime": 2.1e-06,
  "EchoTime": 0.037,
  "EchoTrainLength": 104,
  "EffectiveEchoSpacing": 0.000580009,
  "FlipAngle": 68,
  "ImageComments": "Unaliased_MB6_PE3_LB",
  "ImageOrientationPatientDICOM": [0.992628, 0.11781, 0.0284809, -0.11608, 0.991647, -0.0562373],
  "ImageType": [
    "ORIGINAL",
    "PRIMARY",
    "M",
    "MB",
    "ND",
    "MOSAIC"
],
  "ImagingFrequency": 123.191,
  "InPlanePhaseEncodingDirectionDICOM": "COL",
  "InstitutionAddress": "Washington_Place_6_NYC_NYC_US_10003",
  "InstitutionName": "NYU_-_CBI",
  "InstitutionalDepartmentName": "Department",
  "MRAcquisitionType": "2D",
  "MagneticFieldStrength": 3,
  "Manufacturer": "Siemens",
  "ManufacturersModelName": "Prisma",
  "Modality": "MR",
  "MultibandAccelerationFactor": 6,
  "PartialFourier": 1,
  "PatientPosition": "HFS",
  "PercentPhaseFOV": 100,
  "PhaseEncodingDirection": "j",
  "PhaseEncodingSteps": 104,
  "PhaseResolution": 1,
  "PixelBandwidth": 2290,
  "ProcedureStepDescription": "Investigators_Winawer",
  "ProtocolName": "cmrr_mbepi_s6_2mm_66sl_PA_TR1.0",
  "PulseSequenceDetails": "%CustomerSeq%_cmrr_mbep2d_bold",
  "ReceiveCoilActiveElements": "HC1-7",
  "ReceiveCoilName": "HeadNeck_64",
  "ReconMatrixPE": 104,
  "RepetitionTime": 1,
  "SAR": 0.094829,
  "ScanOptions": "FS",
  "ScanningSequence": "EP",
  "SequenceName": "epfid2d1_104",
  "SequenceVariant": "SK_SS",
  "SeriesDescription": "cmrr_mbepi_s6_2mm_66sl_PA_TR1.0",
  "SeriesNumber": 17,
  "ShimSetting": [278, -12586, -8467, 420, 14, -7, 117, -10],
  "SliceThickness": 2,
  "SliceTiming": [0, 0.535, 0.09, 0.6225, 0.1775, 0.7125, 0.2675, 0.8025, 0.3575, 0.89, 0.445, 0, 0.535, 0.09, 0.6225, 0.1775, 0.7125, 0.2675, 0.8025, 0.3575, 0.89, 0.445, 0, 0.535, 0.09, 0.6225, 0.1775, 0.7125, 0.2675, 0.8025, 0.3575, 0.89, 0.445, 0, 0.535, 0.09, 0.6225, 0.1775, 0.7125, 0.2675, 0.8025, 0.3575, 0.89, 0.445, 0, 0.535, 0.09, 0.6225, 0.1775, 0.7125, 0.2675, 0.8025, 0.3575, 0.89, 0.445, 0, 0.535, 0.09, 0.6225, 0.1775, 0.7125, 0.2675, 0.8025, 0.3575, 0.89, 0.445],
  "SoftwareVersions": "syngo_MR_E11",
  "SpacingBetweenSlices": 2,
  "StationName": "AWP166018",
  "TaskName": "prf",
  "TotalReadoutTime": 0.0597409,
  "TxRefAmp": 249.597,
  "WipMemBlock": "378e3d9d-94cd-453b-9b79-7487a7b1d39e||Sequence: ve11c/master r/ab69a6c; Apr 19 2017 09:47:47 by eja",
  "dcmmeta_affine": [
    [-1.985255241394043, -0.23216015100479126, 0.06973659247159958, 117.7916030883789],
    [-0.23562020063400269, 1.983293056488037, -0.10503323376178741, -64.5477294921875],
    [0.0569617785513401, 0.11247456073760986, 1.996022343635559, -72.51181030273438],
    [0.0, 0.0, 0.0, 1.0]
],
  "dcmmeta_reorient_transform": [
    [0.0, -1.0, 0.0, 103.0],
    [1.0, 0.0, 0.0, 0.0],
    [0.0, 0.0, 1.0, 0.0],
    [0.0, 0.0, 0.0, 1.0]
],
  "dcmmeta_shape": [104, 104, 66, 192],
  "dcmmeta_slice_dim": 2,
  "dcmmeta_version": 0.6,
  "global": {
    "const": {
      "AccessionNumber": "j7kn9geb",
      "AcquisitionMatrix": [104, 0, 0, 104],
      "AngioFlag": "N",
      "BitsAllocated": 16,
      "BitsStored": 16,
      "BodyPartExamined": "BRAIN",
      "Columns": 936,
      "EchoNumbers": 1,
      "EchoTime": 37.0,
      "EchoTrainLength": 104,
      "FlipAngle": 68.0,
      "HighBit": 15,
      "ImageOrientationPatient": [0.99262763332945, 0.11781010333735, 0.02848089012673, -0.1160800739755, 0.99164650197298, -0.0562372790113],
      "ImagePositionPatient": [-823.16667737666, -1062.7993420889, -37.833614822178],
      "ImageType": [
        "ORIGINAL",
        "PRIMARY",
        "M",
        "MB",
        "ND",
        "MOSAIC"
],
      "ImagedNucleus": "1H",
      "ImagingFrequency": 123.19134,
      "InPlanePhaseEncodingDirection": "COL",
      "MRAcquisitionType": "2D",
      "MagneticFieldStrength": 3.0,
      "Manufacturer": "SIEMENS",
      "ManufacturerModelName": "Prisma",
      "Modality": "MR",
      "NumberOfAverages": 1.0,
      "NumberOfPhaseEncodingSteps": 104,
      "PercentPhaseFieldOfView": 100.0,
      "PercentSampling": 100.0,
      "PerformedProcedureStepStartTime": "162143.637000",
      "PhotometricInterpretation": "MONOCHROME2",
      "PixelBandwidth": 2290.0,
      "PixelRepresentation": 0,
      "PixelSpacing": [2.0, 2.0],
      "ProtocolName": "cmrr_mbepi_s6_2mm_66sl_PA_TR1.0",
      "RepetitionTime": 1000.0,
      "Rows": 936,
      "SAR": 0.09482904661685,
      "SamplesPerPixel": 1,
      "ScanOptions": "FS",
      "ScanningSequence": "EP",
      "SequenceName": "epfid2d1_104",
      "SequenceVariant": [
        "SK",
        "SS"
],
      "SeriesDescription": "cmrr_mbepi_s6_2mm_66sl_PA_TR1.0",
      "SeriesNumber": 17,
      "SeriesTime": "165411.752000",
      "SliceLocation": -64.870572317908,
      "SliceThickness": 2.0,
      "SmallestImagePixelValue": 0,
      "SoftwareVersions": "syngo MR E11",
      "SpacingBetweenSlices": 2.0000000752904,
      "SpecificCharacterSet": "ISO_IR 100",
      "StudyID": "1",
      "StudyTime": "162143.546000",
      "TransmitCoilName": "Body",
      "VariableFlipAngleFlag": "N",
      "WindowCenterWidthExplanation": "Algo1",
      "dBdt": 0.0},
    "slices": {}
  },
  "time": {
    "samples": {
      "AcquisitionNumber": [1, 2, 3, 4, 5, 6, 7, 8, 9, 10, 11, 12, 13, 14, 15, 16, 17, 18, 19, 20, 21, 22, 23, 24, 25, 26, 27, 28, 29, 30, 31, 32, 33, 34, 35, 36, 37, 38, 39, 40, 41, 42, 43, 44, 45, 46, 47, 48, 49, 50, 51, 52, 53, 54, 55, 56, 57, 58, 59, 60, 61, 62, 63, 64, 65, 66, 67, 68, 69, 70, 71, 72, 73, 74, 75, 76, 77, 78, 79, 80, 81, 82, 83, 84, 85, 86, 87, 88, 89, 90, 91, 92, 93, 94, 95, 96, 97, 98, 99, 100, 101, 102, 103, 104, 105, 106, 107, 108, 109, 110, 111, 112, 113, 114, 115, 116, 117, 118, 119, 120, 121, 122, 123, 124, 125, 126, 127, 128, 129, 130, 131, 132, 133, 134, 135, 136, 137, 138, 139, 140, 141, 142, 143, 144, 145, 146, 147, 148, 149, 150, 151, 152, 153, 154, 155, 156, 157, 158, 159, 160, 161, 162, 163, 164, 165, 166, 167, 168, 169, 170, 171, 172, 173, 174, 175, 176, 177, 178, 179, 180, 181, 182, 183, 184, 185, 186, 187, 188, 189, 190, 191, 192],
      "AcquisitionTime": ["165253.485000", "165254.485000", "165255.485000", "165256.485000", "165257.485000", "165258.485000", "165259.485000", "165300.485000", "165301.485000", "165302.485000", "165303.485000", "165304.485000", "165305.485000", "165306.485000", "165307.485000", "165308.485000", "165309.485000", "165310.485000", "165311.485000", "165312.485000", "165313.485000", "165314.485000", "165315.485000", "165316.485000", "165317.485000", "165318.485000", "165319.485000", "165320.485000", "165321.485000", "165322.485000", "165323.485000", "165324.485000", "165325.485000", "165326.485000", "165327.485000", "165328.485000", "165329.485000", "165330.485000", "165331.485000", "165332.485000", "165333.485000", "165334.485000", "165335.485000", "165336.485000", "165337.485000", "165338.485000", "165339.485000", "165340.485000", "165341.485000", "165342.485000", "165343.485000", "165344.485000", "165345.485000", "165346.485000", "165347.485000", "165348.485000", "165349.485000", "165350.485000", "165351.485000", "165352.485000", "165353.485000", "165354.485000", "165355.485000", "165356.485000", "165357.485000", "165358.485000", "165359.485000", "165400.485000", "165401.485000", "165402.485000", "165403.485000", "165404.485000", "165405.485000", "165406.485000", "165407.485000", "165408.485000", "165409.485000", "165410.485000", "165411.485000", "165412.485000", "165413.485000", "165414.485000", "165415.485000", "165416.485000", "165417.485000", "165418.485000", "165419.485000", "165420.485000", "165421.485000", "165422.485000", "165423.485000", "165424.485000", "165425.485000", "165426.485000", "165427.485000", "165428.485000", "165429.485000", "165430.485000", "165431.485000", "165432.485000", "165433.485000", "165434.485000", "165435.485000", "165436.485000", "165437.485000", "165438.485000", "165439.485000", "165440.485000", "165441.485000", "165442.485000", "165443.485000", "165444.485000", "165445.485000", "165446.485000", "165447.485000", "165448.485000", "165449.485000", "165450.485000", "165451.485000", "165452.485000", "165453.485000", "165454.485000", "165455.485000", "165456.485000", "165457.485000", "165458.485000", "165459.485000", "165500.485000", "165501.485000", "165502.485000", "165503.485000", "165504.485000", "165505.485000", "165506.485000", "165507.485000", "165508.485000", "165509.485000", "165510.485000", "165511.485000", "165512.485000", "165513.485000", "165514.485000", "165515.485000", "165516.485000", "165517.485000", "165518.485000", "165519.485000", "165520.485000", "165521.485000", "165522.485000", "165523.485000", "165524.485000", "165525.485000", "165526.485000", "165527.485000", "165528.485000", "165529.485000", "165530.485000", "165531.485000", "165532.485000", "165533.485000", "165534.485000", "165535.485000", "165536.485000", "165537.485000", "165538.485000", "165539.485000", "165540.485000", "165541.485000", "165542.485000", "165543.485000", "165544.485000", "165545.485000", "165546.485000", "165547.485000", "165548.485000", "165549.485000", "165550.485000", "165551.485000", "165552.485000", "165553.485000", "165554.485000", "165555.485000", "165556.485000", "165557.485000", "165558.485000", "165559.485000", "165600.485000", "165601.485000", "165602.485000", "165603.485000", "165604.485000"],
      "ContentTime": ["165411.755000", "165411.758000", "165411.761000", "165411.765000", "165411.768000", "165411.771000", "165411.779000", "165411.782000", "165411.785000", "165411.789000", "165411.796000", "165411.816000", "165411.820000", "165411.823000", "165411.827000", "165411.830000", "165411.833000", "165411.836000", "165411.838000", "165411.841000", "165411.844000", "165411.847000", "165411.850000", "165411.853000", "165411.856000", "165411.859000", "165411.861000", "165411.864000", "165411.867000", "165411.872000", "165411.875000", "165411.877000", "165431.703000", "165431.706000", "165431.709000", "165431.712000", "165431.714000", "165431.717000", "165431.720000", "165431.723000", "165431.726000", "165431.729000", "165431.732000", "165431.734000", "165431.737000", "165431.740000", "165431.743000", "165431.746000", "165431.749000", "165431.752000", "165431.760000", "165431.763000", "165431.766000", "165431.769000", "165431.771000", "165431.774000", "165431.777000", "165431.780000", "165431.783000", "165431.786000", "165451.703000", "165451.706000", "165451.709000", "165451.712000", "165451.715000", "165451.717000", "165451.720000", "165451.723000", "165451.726000", "165451.729000", "165451.732000", "165451.735000", "165451.738000", "165451.741000", "165451.743000", "165451.746000", "165451.749000", "165451.752000", "165451.755000", "165451.757000", "165451.760000", "165451.763000", "165451.766000", "165451.769000", "165451.772000", "165451.775000", "165451.778000", "165451.780000", "165511.703000", "165511.706000", "165511.709000", "165511.712000", "165511.714000", "165511.717000", "165511.720000", "165511.723000", "165511.726000", "165511.729000", "165511.732000", "165511.735000", "165511.738000", "165511.740000", "165511.750000", "165511.753000", "165511.756000", "165511.758000", "165511.761000", "165511.764000", "165511.767000", "165511.770000", "165511.773000", "165511.776000", "165511.779000", "165511.781000", "165511.784000", "165511.787000", "165511.790000", "165531.702000", "165531.705000", "165531.708000", "165531.711000", "165531.714000", "165531.717000", "165531.720000", "165531.722000", "165531.725000", "165531.728000", "165531.731000", "165531.734000", "165531.737000", "165531.740000", "165531.742000", "165531.745000", "165531.748000", "165531.751000", "165531.754000", "165531.757000", "165531.760000", "165531.763000", "165531.765000", "165531.768000", "165531.771000", "165531.774000", "165531.777000", "165531.780000", "165551.703000", "165551.706000", "165551.709000", "165551.712000", "165551.715000", "165551.718000", "165551.721000", "165551.723000", "165551.732000", "165551.735000", "165551.738000", "165551.741000", "165551.744000", "165551.746000", "165551.749000", "165551.752000", "165551.755000", "165551.758000", "165551.761000", "165551.764000", "165551.767000", "165551.770000", "165551.773000", "165551.776000", "165551.779000", "165551.781000", "165551.784000", "165551.787000", "165606.290000", "165606.294000", "165606.297000", "165606.300000", "165606.304000", "165606.307000", "165606.312000", "165606.316000", "165606.319000", "165606.322000", "165606.325000", "165606.329000", "165606.335000", "165606.338000", "165606.342000", "165606.345000", "165606.348000", "165606.351000", "165606.360000"],
      "InstanceCreationTime": ["165411.755000", "165411.758000", "165411.761000", "165411.765000", "165411.768000", "165411.771000", "165411.779000", "165411.782000", "165411.785000", "165411.789000", "165411.796000", "165411.816000", "165411.820000", "165411.823000", "165411.827000", "165411.830000", "165411.833000", "165411.836000", "165411.838000", "165411.841000", "165411.844000", "165411.847000", "165411.850000", "165411.853000", "165411.856000", "165411.859000", "165411.861000", "165411.864000", "165411.867000", "165411.872000", "165411.875000", "165411.877000", "165431.703000", "165431.706000", "165431.709000", "165431.712000", "165431.714000", "165431.717000", "165431.720000", "165431.723000", "165431.726000", "165431.729000", "165431.732000", "165431.734000", "165431.737000", "165431.740000", "165431.743000", "165431.746000", "165431.749000", "165431.752000", "165431.760000", "165431.763000", "165431.766000", "165431.769000", "165431.771000", "165431.774000", "165431.777000", "165431.780000", "165431.783000", "165431.786000", "165451.703000", "165451.706000", "165451.709000", "165451.712000", "165451.715000", "165451.717000", "165451.720000", "165451.723000", "165451.726000", "165451.729000", "165451.732000", "165451.735000", "165451.738000", "165451.741000", "165451.743000", "165451.746000", "165451.749000", "165451.752000", "165451.755000", "165451.757000", "165451.760000", "165451.763000", "165451.766000", "165451.769000", "165451.772000", "165451.775000", "165451.778000", "165451.780000", "165511.703000", "165511.706000", "165511.709000", "165511.712000", "165511.714000", "165511.717000", "165511.720000", "165511.723000", "165511.726000", "165511.729000", "165511.732000", "165511.735000", "165511.738000", "165511.740000", "165511.750000", "165511.753000", "165511.756000", "165511.758000", "165511.761000", "165511.764000", "165511.767000", "165511.770000", "165511.773000", "165511.776000", "165511.779000", "165511.781000", "165511.784000", "165511.787000", "165511.790000", "165531.702000", "165531.705000", "165531.708000", "165531.711000", "165531.714000", "165531.717000", "165531.720000", "165531.722000", "165531.725000", "165531.728000", "165531.731000", "165531.734000", "165531.737000", "165531.740000", "165531.742000", "165531.745000", "165531.748000", "165531.751000", "165531.754000", "165531.757000", "165531.760000", "165531.763000", "165531.765000", "165531.768000", "165531.771000", "165531.774000", "165531.777000", "165531.780000", "165551.703000", "165551.706000", "165551.709000", "165551.712000", "165551.715000", "165551.718000", "165551.721000", "165551.723000", "165551.732000", "165551.735000", "165551.738000", "165551.741000", "165551.744000", "165551.746000", "165551.749000", "165551.752000", "165551.755000", "165551.758000", "165551.761000", "165551.764000", "165551.767000", "165551.770000", "165551.773000", "165551.776000", "165551.779000", "165551.781000", "165551.784000", "165551.787000", "165606.290000", "165606.294000", "165606.297000", "165606.300000", "165606.304000", "165606.307000", "165606.312000", "165606.316000", "165606.319000", "165606.322000", "165606.325000", "165606.329000", "165606.335000", "165606.338000", "165606.342000", "165606.345000", "165606.348000", "165606.351000", "165606.360000"],
      "InstanceNumber": [1, 2, 3, 4, 5, 6, 7, 8, 9, 10, 11, 12, 13, 14, 15, 16, 17, 18, 19, 20, 21, 22, 23, 24, 25, 26, 27, 28, 29, 30, 31, 32, 33, 34, 35, 36, 37, 38, 39, 40, 41, 42, 43, 44, 45, 46, 47, 48, 49, 50, 51, 52, 53, 54, 55, 56, 57, 58, 59, 60, 61, 62, 63, 64, 65, 66, 67, 68, 69, 70, 71, 72, 73, 74, 75, 76, 77, 78, 79, 80, 81, 82, 83, 84, 85, 86, 87, 88, 89, 90, 91, 92, 93, 94, 95, 96, 97, 98, 99, 100, 101, 102, 103, 104, 105, 106, 107, 108, 109, 110, 111, 112, 113, 114, 115, 116, 117, 118, 119, 120, 121, 122, 123, 124, 125, 126, 127, 128, 129, 130, 131, 132, 133, 134, 135, 136, 137, 138, 139, 140, 141, 142, 143, 144, 145, 146, 147, 148, 149, 150, 151, 152, 153, 154, 155, 156, 157, 158, 159, 160, 161, 162, 163, 164, 165, 166, 167, 168, 169, 170, 171, 172, 173, 174, 175, 176, 177, 178, 179, 180, 181, 182, 183, 184, 185, 186, 187, 188, 189, 190, 191, 192],
      "LargestImagePixelValue": [33520, 29450, 32555, 31851, 31818, 32191, 31186, 28964, 28746, 29290, 33903, 34207, 33844, 31792, 29049, 29762, 29578, 31125, 35334, 35981, 35029, 34877, 33225, 29986, 29579, 34255, 37393, 35101, 30286, 32331, 38067, 35437, 32965, 35524, 35067, 31311, 36388, 35999, 28758, 31950, 35806, 35342, 29410, 29208, 29186, 29540, 30463, 30029, 35526, 29467, 29254, 30241, 30593, 36219, 35969, 36956, 36497, 36115, 35208, 36635, 34368, 29065, 29512, 36085, 34473, 37364, 36504, 36883, 35728, 30034, 30001, 32497, 32920, 38502, 37817, 36490, 29622, 32541, 33089, 34653, 39032, 39939, 40307, 39921, 38437, 29118, 29288, 33883, 35916, 41331, 38810, 36123, 29883, 32620, 34026, 35520, 40371, 39711, 39393, 29635, 34559, 34797, 39819, 39344, 38400, 35099, 30198, 29191, 39624, 33416, 40154, 39998, 29571, 30583, 35025, 41247, 29198, 32348, 34622, 31464, 29384, 33762, 36905, 41679, 39626, 40942, 40161, 41501, 42275, 41266, 40938, 38153, 39002, 29391, 36823, 36704, 35360, 29713, 36455, 38212, 43079, 43006, 42747, 40882, 39602, 40066, 29899, 37435, 40277, 40161, 39166, 42314, 42641, 40352, 39405, 29285, 38907, 42664, 42652, 41571, 38211, 29077, 41303, 39926, 41397, 42842, 42970, 41033, 34456, 42135, 39561, 41164, 41604, 38793, 29739, 41047, 43499, 40808, 34887, 29165, 40212, 41820, 42460, 42003, 38198, 40451, 42461, 41814, 40195, 40254, 32822, 38871],
      "WindowCenter": [9372.0, 9317.0, 9362.0, 9358.0, 9359.0, 9357.0, 9329.0, 9302.0, 9288.0, 9298.0, 9354.0, 9362.0, 9372.0, 9349.0, 9312.0, 9318.0, 9312.0, 9336.0, 9379.0, 9391.0, 9387.0, 9387.0, 9377.0, 9342.0, 9341.0, 9398.0, 9430.0, 9416.0, 9377.0, 9404.0, 9463.0, 9450.0, 9421.0, 9442.0, 9416.0, 9356.0, 9415.0, 9420.0, 9353.0, 9396.0, 9430.0, 9418.0, 9352.0, 9351.0, 9316.0, 9300.0, 9311.0, 9322.0, 9400.0, 9346.0, 9331.0, 9325.0, 9324.0, 9390.0, 9392.0, 9394.0, 9388.0, 9397.0, 9384.0, 9389.0, 9380.0, 9330.0, 9346.0, 9425.0, 9410.0, 9439.0, 9433.0, 9436.0, 9423.0, 9364.0, 9365.0, 9395.0, 9403.0, 9461.0, 9457.0, 9445.0, 9374.0, 9401.0, 9398.0, 9402.0, 9441.0, 9452.0, 9450.0, 9447.0, 9441.0, 9343.0, 9357.0, 9411.0, 9437.0, 9486.0, 9478.0, 9456.0, 9387.0, 9429.0, 9442.0, 9452.0, 9497.0, 9484.0, 9485.0, 9384.0, 9437.0, 9443.0, 9482.0, 9478.0, 9463.0, 9424.0, 9364.0, 9352.0, 9456.0, 9392.0, 9456.0, 9465.0, 9361.0, 9386.0, 9435.0, 9495.0, 9375.0, 9415.0, 9430.0, 9375.0, 9324.0, 9385.0, 9424.0, 9473.0, 9456.0, 9443.0, 9434.0, 9447.0, 9452.0, 9465.0, 9475.0, 9464.0, 9476.0, 9381.0, 9473.0, 9483.0, 9454.0, 9380.0, 9457.0, 9475.0, 9523.0, 9516.0, 9500.0, 9490.0, 9476.0, 9475.0, 9377.0, 9461.0, 9489.0, 9471.0, 9444.0, 9486.0, 9495.0, 9472.0, 9469.0, 9371.0, 9470.0, 9491.0, 9491.0, 9485.0, 9457.0, 9362.0, 9476.0, 9464.0, 9474.0, 9484.0, 9484.0, 9475.0, 9418.0, 9488.0, 9471.0, 9484.0, 9491.0, 9463.0, 9375.0, 9488.0, 9519.0, 9497.0, 9438.0, 9363.0, 9473.0, 9475.0, 9480.0, 9475.0, 9446.0, 9470.0, 9489.0, 9476.0, 9456.0, 9454.0, 9382.0, 9434.0],
      "WindowWidth": [19800.0, 19701.0, 19775.0, 19772.0, 19771.0, 19763.0, 19711.0, 19661.0, 19633.0, 19649.0, 19742.0, 19760.0, 19782.0, 19745.0, 19683.0, 19694.0, 19686.0, 19726.0, 19797.0, 19816.0, 19814.0, 19812.0, 19797.0, 19741.0, 19744.0, 19839.0, 19891.0, 19875.0, 19815.0, 19862.0, 19962.0, 19947.0, 19900.0, 19930.0, 19872.0, 19766.0, 19863.0, 19880.0, 19779.0, 19852.0, 19905.0, 19884.0, 19774.0, 19770.0, 19691.0, 19651.0, 19667.0, 19697.0, 19833.0, 19755.0, 19725.0, 19704.0, 19701.0, 19812.0, 19816.0, 19813.0, 19802.0, 19823.0, 19800.0, 19805.0, 19797.0, 19721.0, 19751.0, 19885.0, 19864.0, 19912.0, 19906.0, 19913.0, 19891.0, 19795.0, 19797.0, 19846.0, 19861.0, 19955.0, 19949.0, 19928.0, 19811.0, 19851.0, 19842.0, 19844.0, 19907.0, 19922.0, 19918.0, 19916.0, 19906.0, 19750.0, 19775.0, 19865.0, 19916.0, 19998.0, 19990.0, 19959.0, 19846.0, 19916.0, 19940.0, 19953.0, 20024.0, 20000.0, 20002.0, 19835.0, 19922.0, 19931.0, 19995.0, 19988.0, 19958.0, 19888.0, 19789.0, 19768.0, 19938.0, 19831.0, 19936.0, 19956.0, 19788.0, 19833.0, 19918.0, 20021.0, 19826.0, 19889.0, 19909.0, 19801.0, 19705.0, 19810.0, 19880.0, 19964.0, 19937.0, 19902.0, 19885.0, 19908.0, 19915.0, 19947.0, 19972.0, 19962.0, 19981.0, 19833.0, 19992.0, 20014.0, 19956.0, 19829.0, 19959.0, 19990.0, 20070.0, 20057.0, 20023.0, 20011.0, 19985.0, 19980.0, 19825.0, 19963.0, 20008.0, 19966.0, 19916.0, 19993.0, 20010.0, 19972.0, 19970.0, 19814.0, 19977.0, 20009.0, 20006.0, 19999.0, 19952.0, 19796.0, 19980.0, 19956.0, 19969.0, 19985.0, 19984.0, 19971.0, 19877.0, 19994.0, 19967.0, 19993.0, 20006.0, 19959.0, 19815.0, 20004.0, 20061.0, 20024.0, 19923.0, 19794.0, 19970.0, 19969.0, 19977.0, 19974.0, 19927.0, 19965.0, 19999.0, 19975.0, 19938.0, 19929.0, 19809.0, 19895.0]
    },
    "slices": {}
  },
  "NumberOfVolumes": 192
}