{
  "AcquisitionMatrixPE": 104,
  "AcquisitionNumber": 1,
  "AcquisitionTime": "11:35:49.457500",
  "BandwidthPerPixelPhaseEncode": 16.297,
  "BaseResolution": 104,
  "BodyPartExamined": "BRAIN",
  "ConsistencyInfo": "N4_VE11C_LATEST_20160120",
  "ConversionSoftware": "dcm2niix",
  "ConversionSoftwareVersion": "v1.0.20210317",
  "DerivedVendorReportedEchoSpacing": 0.000590009,
  "DeviceSerialNumber": "166018",
  "DwellTime": 2.1e-06,
  "EchoTime": 0.0376,
  "EchoTrainLength": 104,
  "EffectiveEchoSpacing": 0.000590009,
  "FlipAngle": 68,
  "ImageComments": "Unaliased MB6/PE3/LB",
  "ImageOrientationPatientDICOM": [0.998791, -0.0136688, 0.04722, 0.0226657, 0.980418, -0.195621],
  "ImageType": [
    "ORIGINAL",
    "PRIMARY",
    "M",
    "MB",
    "ND",
    "MOSAIC"
],
  "ImagingFrequency": 123.197,
  "InPlanePhaseEncodingDirectionDICOM": "COL",
  "InstitutionAddress": "Washington Place 6,NYC,NYC,US,10003",
  "InstitutionName": "NYU - CBI",
  "InstitutionalDepartmentName": "Department",
  "MRAcquisitionType": "2D",
  "MagneticFieldStrength": 3,
  "Manufacturer": "Siemens",
  "ManufacturersModelName": "Prisma",
  "Modality": "MR",
  "MultibandAccelerationFactor": 6,
  "PartialFourier": 1,
  "PatientPosition": "HFS",
  "PercentPhaseFOV": 100,
  "PercentSampling": 100,
  "PhaseEncodingDirection": "j",
  "PhaseEncodingSteps": 104,
  "PhaseResolution": 1,
  "PixelBandwidth": 2290,
  "ProcedureStepDescription": "Investigators^Winawer",
  "ProtocolName": "cmrr_mbepi_s6_2mm_66sl_PA_task-prf",
  "PulseSequenceDetails": "%CustomerSeq%\\cmrr_mbep2d_bold",
  "ReceiveCoilActiveElements": "HC1-7",
  "ReceiveCoilName": "HeadNeck_64",
  "ReconMatrixPE": 104,
  "RepetitionTime": 1,
  "SAR": 0.0918345,
  "ScanOptions": "FS",
  "ScanningSequence": "EP",
  "SequenceName": "epfid2d1_104",
  "SequenceVariant": "SK\\SS",
  "SeriesDescription": "cmrr_mbepi_s6_2mm_66sl_PA_task-prf",
  "SeriesNumber": 12,
  "ShimSetting": [316, -12633, -8503, 139, 23, -125, 105, 101],
  "SliceThickness": 2,
  "SliceTiming": [0, 0.535, 0.09, 0.625, 0.1775, 0.7125, 0.2675, 0.8025, 0.3575, 0.8925, 0.445, 0, 0.535, 0.09, 0.625, 0.1775, 0.7125, 0.2675, 0.8025, 0.3575, 0.8925, 0.445, 0, 0.535, 0.09, 0.625, 0.1775, 0.7125, 0.2675, 0.8025, 0.3575, 0.8925, 0.445, 0, 0.535, 0.09, 0.625, 0.1775, 0.7125, 0.2675, 0.8025, 0.3575, 0.8925, 0.445, 0, 0.535, 0.09, 0.625, 0.1775, 0.7125, 0.2675, 0.8025, 0.3575, 0.8925, 0.445, 0, 0.535, 0.09, 0.625, 0.1775, 0.7125, 0.2675, 0.8025, 0.3575, 0.8925, 0.445],
  "SoftwareVersions": "syngo MR E11",
  "SpacingBetweenSlices": 2,
  "StationName": "AWP166018",
  "TaskName": "prf",
  "TotalReadoutTime": 0.060771,
  "TxRefAmp": 263.077,
  "VendorReportedEchoSpacing": 0.00059,
  "WipMemBlock": "44e431e4-5897-45e1-91bf-026199605165||Sequence: R016 ve11c/master r/8780670; Nov 27 2017 15:05:12 by eja",
  "dcmmeta_affine": [
    [-1.997581958770752, 0.0453314371407032, 0.08724290132522583, 102.45104217529297],
    [0.027337506413459778, 1.9608352184295654, -0.39290952682495117, -65.47602844238281],
    [0.09444005787372589, 0.39124199748039246, 1.959084153175354, -55.4233512878418],
    [0.0, 0.0, 0.0, 1.0]
],
  "dcmmeta_reorient_transform": [
    [0.0, -1.0, 0.0, 103.0],
    [1.0, 0.0, 0.0, 0.0],
    [0.0, 0.0, 1.0, 0.0],
    [0.0, 0.0, 0.0, 1.0]
],
  "dcmmeta_shape": [104, 104, 66, 192],
  "dcmmeta_slice_dim": 2,
  "dcmmeta_version": 0.6,
  "global": {
    "const": {
      "AccessionNumber": "L5mqz82m",
      "AcquisitionMatrix": [104, 0, 0, 104],
      "AngioFlag": "N",
      "BitsAllocated": 16,
      "BitsStored": 16,
      "BodyPartExamined": "BRAIN",
      "Columns": 936,
      "EchoNumbers": 1,
      "EchoTime": 37.6,
      "EchoTrainLength": 104,
      "FlipAngle": 68.0,
      "HighBit": 15,
      "ImageOrientationPatient": [0.99879098617124, -0.0136687528333, 0.04722002900325, 0.02266571833323, 0.98041761027041, -0.1956209975542],
      "ImagePositionPatient": [-956.97215921212, -940.82504686365, 108.34418066342],
      "ImageType": [
        "ORIGINAL",
        "PRIMARY",
        "M",
        "MB",
        "ND",
        "MOSAIC"
],
      "ImagedNucleus": "1H",
      "ImagingFrequency": 123.196815,
      "InPlanePhaseEncodingDirection": "COL",
      "MRAcquisitionType": "2D",
      "MagneticFieldStrength": 3.0,
      "Manufacturer": "SIEMENS",
      "ManufacturerModelName": "Prisma",
      "Modality": "MR",
      "NumberOfAverages": 1.0,
      "NumberOfPhaseEncodingSteps": 104,
      "PercentPhaseFieldOfView": 100.0,
      "PercentSampling": 100.0,
      "PerformedProcedureStepStartTime": "111458.126000",
      "PhotometricInterpretation": "MONOCHROME2",
      "PixelBandwidth": 2290.0,
      "PixelRepresentation": 0,
      "PixelSpacing": [2.0, 2.0],
      "ProtocolName": "cmrr_mbepi_s6_2mm_66sl_PA_task-prf",
      "RepetitionTime": 1000.0,
      "Rows": 936,
      "SAR": 0.09183454342287,
      "SamplesPerPixel": 1,
      "ScanOptions": "FS",
      "ScanningSequence": "EP",
      "SequenceName": "epfid2d1_104",
      "SequenceVariant": [
        "SK",
        "SS"
],
      "SeriesDescription": "cmrr_mbepi_s6_2mm_66sl_PA_task-prf",
      "SeriesNumber": 12,
      "SeriesTime": "113709.344000",
      "SliceLocation": -36.957362927095,
      "SliceThickness": 2.0,
      "SmallestImagePixelValue": 0,
      "SoftwareVersions": "syngo MR E11",
      "SpacingBetweenSlices": 1.999999945464,
      "SpecificCharacterSet": "ISO_IR 100",
      "StudyID": "1",
      "StudyTime": "111458.052000",
      "TransmitCoilName": "Body",
      "VariableFlipAngleFlag": "N",
      "WindowCenterWidthExplanation": "Algo1",
      "dBdt": 0.0},
    "slices": {}
  },
  "time": {
    "samples": {
      "AcquisitionNumber": [1, 2, 3, 4, 5, 6, 7, 8, 9, 10, 11, 12, 13, 14, 15, 16, 17, 18, 19, 20, 21, 22, 23, 24, 25, 26, 27, 28, 29, 30, 31, 32, 33, 34, 35, 36, 37, 38, 39, 40, 41, 42, 43, 44, 45, 46, 47, 48, 49, 50, 51, 52, 53, 54, 55, 56, 57, 58, 59, 60, 61, 62, 63, 64, 65, 66, 67, 68, 69, 70, 71, 72, 73, 74, 75, 76, 77, 78, 79, 80, 81, 82, 83, 84, 85, 86, 87, 88, 89, 90, 91, 92, 93, 94, 95, 96, 97, 98, 99, 100, 101, 102, 103, 104, 105, 106, 107, 108, 109, 110, 111, 112, 113, 114, 115, 116, 117, 118, 119, 120, 121, 122, 123, 124, 125, 126, 127, 128, 129, 130, 131, 132, 133, 134, 135, 136, 137, 138, 139, 140, 141, 142, 143, 144, 145, 146, 147, 148, 149, 150, 151, 152, 153, 154, 155, 156, 157, 158, 159, 160, 161, 162, 163, 164, 165, 166, 167, 168, 169, 170, 171, 172, 173, 174, 175, 176, 177, 178, 179, 180, 181, 182, 183, 184, 185, 186, 187, 188, 189, 190, 191, 192],
      "AcquisitionTime": ["113549.457500", "113550.457500", "113551.457500", "113552.457500", "113553.457500", "113554.457500", "113555.457500", "113556.457500", "113557.457500", "113558.457500", "113559.457500", "113600.457500", "113601.457500", "113602.457500", "113603.457500", "113604.457500", "113605.457500", "113606.457500", "113607.457500", "113608.457500", "113609.457500", "113610.457500", "113611.457500", "113612.457500", "113613.457500", "113614.457500", "113615.457500", "113616.457500", "113617.457500", "113618.457500", "113619.457500", "113620.457500", "113621.457500", "113622.457500", "113623.457500", "113624.457500", "113625.457500", "113626.457500", "113627.457500", "113628.457500", "113629.457500", "113630.457500", "113631.457500", "113632.457500", "113633.457500", "113634.457500", "113635.457500", "113636.457500", "113637.457500", "113638.457500", "113639.457500", "113640.457500", "113641.457500", "113642.457500", "113643.457500", "113644.457500", "113645.457500", "113646.457500", "113647.457500", "113648.457500", "113649.457500", "113650.457500", "113651.457500", "113652.457500", "113653.457500", "113654.457500", "113655.457500", "113656.457500", "113657.457500", "113658.457500", "113659.457500", "113700.457500", "113701.457500", "113702.457500", "113703.457500", "113704.457500", "113705.457500", "113706.457500", "113707.457500", "113708.457500", "113709.457500", "113710.457500", "113711.457500", "113712.457500", "113713.457500", "113714.457500", "113715.457500", "113716.457500", "113717.457500", "113718.457500", "113719.457500", "113720.457500", "113721.457500", "113722.457500", "113723.457500", "113724.457500", "113725.457500", "113726.457500", "113727.457500", "113728.457500", "113729.457500", "113730.457500", "113731.457500", "113732.457500", "113733.457500", "113734.457500", "113735.457500", "113736.457500", "113737.457500", "113738.457500", "113739.457500", "113740.457500", "113741.457500", "113742.457500", "113743.457500", "113744.457500", "113745.457500", "113746.457500", "113747.457500", "113748.457500", "113749.457500", "113750.457500", "113751.457500", "113752.457500", "113753.457500", "113754.457500", "113755.457500", "113756.457500", "113757.457500", "113758.457500", "113759.457500", "113800.457500", "113801.457500", "113802.457500", "113803.457500", "113804.457500", "113805.457500", "113806.457500", "113807.457500", "113808.457500", "113809.457500", "113810.457500", "113811.457500", "113812.457500", "113813.457500", "113814.457500", "113815.457500", "113816.457500", "113817.457500", "113818.457500", "113819.457500", "113820.457500", "113821.457500", "113822.457500", "113823.457500", "113824.457500", "113825.457500", "113826.457500", "113827.457500", "113828.457500", "113829.457500", "113830.457500", "113831.457500", "113832.457500", "113833.457500", "113834.457500", "113835.457500", "113836.457500", "113837.457500", "113838.457500", "113839.457500", "113840.457500", "113841.457500", "113842.457500", "113843.457500", "113844.457500", "113845.457500", "113846.457500", "113847.457500", "113848.457500", "113849.457500", "113850.457500", "113851.457500", "113852.457500", "113853.457500", "113854.457500", "113855.457500", "113856.457500", "113857.457500", "113858.457500", "113859.457500", "113900.457500"],
      "ContentTime": ["113709.346000", "113709.350000", "113709.353000", "113709.356000", "113709.359000", "113709.362000", "113709.365000", "113709.368000", "113709.371000", "113709.374000", "113709.377000", "113709.380000", "113709.383000", "113709.386000", "113709.389000", "113709.392000", "113709.395000", "113709.404000", "113709.407000", "113709.410000", "113709.413000", "113709.416000", "113709.419000", "113709.422000", "113709.425000", "113709.428000", "113709.431000", "113709.434000", "113709.437000", "113709.439000", "113709.447000", "113709.450000", "113709.453000", "113709.456000", "113729.319000", "113729.322000", "113729.325000", "113729.328000", "113729.331000", "113729.334000", "113729.337000", "113729.340000", "113729.343000", "113729.346000", "113729.349000", "113729.352000", "113729.355000", "113729.358000", "113729.361000", "113729.364000", "113729.367000", "113729.370000", "113729.373000", "113729.376000", "113729.379000", "113729.382000", "113729.385000", "113729.388000", "113729.391000", "113729.394000", "113729.397000", "113729.400000", "113749.319000", "113749.322000", "113749.325000", "113749.328000", "113749.331000", "113749.334000", "113749.337000", "113749.340000", "113749.343000", "113749.346000", "113749.349000", "113749.352000", "113749.355000", "113749.358000", "113749.361000", "113749.364000", "113749.367000", "113749.370000", "113749.373000", "113749.376000", "113749.384000", "113749.387000", "113749.390000", "113749.393000", "113749.396000", "113749.399000", "113749.402000", "113749.405000", "113809.319000", "113809.322000", "113809.325000", "113809.328000", "113809.331000", "113809.334000", "113809.337000", "113809.340000", "113809.343000", "113809.346000", "113809.349000", "113809.352000", "113809.355000", "113809.358000", "113809.369000", "113809.372000", "113809.375000", "113809.378000", "113809.381000", "113809.384000", "113809.387000", "113809.390000", "113809.393000", "113809.396000", "113809.399000", "113809.402000", "113809.405000", "113809.408000", "113829.319000", "113829.322000", "113829.325000", "113829.328000", "113829.331000", "113829.336000", "113829.339000", "113829.342000", "113829.345000", "113829.348000", "113829.351000", "113829.354000", "113829.357000", "113829.360000", "113829.363000", "113829.366000", "113829.369000", "113829.372000", "113829.375000", "113829.378000", "113829.381000", "113829.384000", "113829.387000", "113829.390000", "113829.393000", "113829.396000", "113829.399000", "113829.402000", "113849.319000", "113849.322000", "113849.325000", "113849.328000", "113849.331000", "113849.334000", "113849.337000", "113849.340000", "113849.343000", "113849.346000", "113849.349000", "113849.352000", "113849.355000", "113849.358000", "113849.372000", "113849.375000", "113849.378000", "113849.381000", "113849.384000", "113849.387000", "113849.390000", "113849.393000", "113849.396000", "113849.399000", "113849.402000", "113849.405000", "113849.408000", "113849.411000", "113849.414000", "113902.417000", "113902.420000", "113902.423000", "113902.426000", "113902.429000", "113902.432000", "113902.435000", "113902.438000", "113902.441000", "113902.444000", "113902.447000", "113902.450000", "113902.453000", "113902.456000", "113902.459000", "113902.462000", "113902.465000"],
      "InstanceCreationTime": ["113709.346000", "113709.350000", "113709.353000", "113709.356000", "113709.359000", "113709.362000", "113709.365000", "113709.368000", "113709.371000", "113709.374000", "113709.377000", "113709.380000", "113709.383000", "113709.386000", "113709.389000", "113709.392000", "113709.395000", "113709.404000", "113709.407000", "113709.410000", "113709.413000", "113709.416000", "113709.419000", "113709.422000", "113709.425000", "113709.428000", "113709.431000", "113709.434000", "113709.437000", "113709.439000", "113709.447000", "113709.450000", "113709.453000", "113709.456000", "113729.319000", "113729.322000", "113729.325000", "113729.328000", "113729.331000", "113729.334000", "113729.337000", "113729.340000", "113729.343000", "113729.346000", "113729.349000", "113729.352000", "113729.355000", "113729.358000", "113729.361000", "113729.364000", "113729.367000", "113729.370000", "113729.373000", "113729.376000", "113729.379000", "113729.382000", "113729.385000", "113729.388000", "113729.391000", "113729.394000", "113729.397000", "113729.400000", "113749.319000", "113749.322000", "113749.325000", "113749.328000", "113749.331000", "113749.334000", "113749.337000", "113749.340000", "113749.343000", "113749.346000", "113749.349000", "113749.352000", "113749.355000", "113749.358000", "113749.361000", "113749.364000", "113749.367000", "113749.370000", "113749.373000", "113749.376000", "113749.384000", "113749.387000", "113749.390000", "113749.393000", "113749.396000", "113749.399000", "113749.402000", "113749.405000", "113809.319000", "113809.322000", "113809.325000", "113809.328000", "113809.331000", "113809.334000", "113809.337000", "113809.340000", "113809.343000", "113809.346000", "113809.349000", "113809.352000", "113809.355000", "113809.358000", "113809.369000", "113809.372000", "113809.375000", "113809.378000", "113809.381000", "113809.384000", "113809.387000", "113809.390000", "113809.393000", "113809.396000", "113809.399000", "113809.402000", "113809.405000", "113809.408000", "113829.319000", "113829.322000", "113829.325000", "113829.328000", "113829.331000", "113829.336000", "113829.339000", "113829.342000", "113829.345000", "113829.348000", "113829.351000", "113829.354000", "113829.357000", "113829.360000", "113829.363000", "113829.366000", "113829.369000", "113829.372000", "113829.375000", "113829.378000", "113829.381000", "113829.384000", "113829.387000", "113829.390000", "113829.393000", "113829.396000", "113829.399000", "113829.402000", "113849.319000", "113849.322000", "113849.325000", "113849.328000", "113849.331000", "113849.334000", "113849.337000", "113849.340000", "113849.343000", "113849.346000", "113849.349000", "113849.352000", "113849.355000", "113849.358000", "113849.372000", "113849.375000", "113849.378000", "113849.381000", "113849.384000", "113849.387000", "113849.390000", "113849.393000", "113849.396000", "113849.399000", "113849.402000", "113849.405000", "113849.408000", "113849.411000", "113849.414000", "113902.417000", "113902.420000", "113902.423000", "113902.426000", "113902.429000", "113902.432000", "113902.435000", "113902.438000", "113902.441000", "113902.444000", "113902.447000", "113902.450000", "113902.453000", "113902.456000", "113902.459000", "113902.462000", "113902.465000"],
      "InstanceNumber": [1, 2, 3, 4, 5, 6, 7, 8, 9, 10, 11, 12, 13, 14, 15, 16, 17, 18, 19, 20, 21, 22, 23, 24, 25, 26, 27, 28, 29, 30, 31, 32, 33, 34, 35, 36, 37, 38, 39, 40, 41, 42, 43, 44, 45, 46, 47, 48, 49, 50, 51, 52, 53, 54, 55, 56, 57, 58, 59, 60, 61, 62, 63, 64, 65, 66, 67, 68, 69, 70, 71, 72, 73, 74, 75, 76, 77, 78, 79, 80, 81, 82, 83, 84, 85, 86, 87, 88, 89, 90, 91, 92, 93, 94, 95, 96, 97, 98, 99, 100, 101, 102, 103, 104, 105, 106, 107, 108, 109, 110, 111, 112, 113, 114, 115, 116, 117, 118, 119, 120, 121, 122, 123, 124, 125, 126, 127, 128, 129, 130, 131, 132, 133, 134, 135, 136, 137, 138, 139, 140, 141, 142, 143, 144, 145, 146, 147, 148, 149, 150, 151, 152, 153, 154, 155, 156, 157, 158, 159, 160, 161, 162, 163, 164, 165, 166, 167, 168, 169, 170, 171, 172, 173, 174, 175, 176, 177, 178, 179, 180, 181, 182, 183, 184, 185, 186, 187, 188, 189, 190, 191, 192],
      "LargestImagePixelValue": [56262, 54753, 53224, 52598, 52592, 52119, 51049, 51099, 52053, 51953, 51922, 51847, 52785, 52023, 51975, 52498, 53302, 51415, 51831, 53487, 52208, 52836, 51698, 52088, 52898, 52572, 51860, 52972, 52360, 52716, 53338, 53672, 53077, 53184, 52830, 53664, 53338, 52636, 52476, 53485, 53552, 53156, 52919, 53147, 53617, 53674, 53231, 53336, 53089, 53084, 52287, 52993, 53587, 53777, 53493, 53581, 53867, 53079, 53481, 53868, 53998, 54002, 54118, 54291, 54163, 53419, 54021, 54544, 54844, 54118, 53613, 53627, 54289, 53362, 53366, 54122, 53987, 53641, 53972, 54465, 54422, 54080, 53858, 54337, 53558, 54145, 54317, 54157, 54446, 54280, 53267, 52870, 53721, 53968, 54265, 54805, 55154, 54801, 54015, 54218, 54195, 53443, 53447, 53977, 54029, 54142, 53630, 53923, 54649, 54719, 53910, 54760, 54616, 54569, 53869, 53798, 53685, 54280, 54221, 53624, 53948, 54558, 53830, 54338, 54066, 54939, 53882, 54498, 55017, 53666, 53780, 54165, 54654, 53629, 54030, 55771, 55414, 54360, 53028, 53753, 55214, 53870, 52841, 53917, 55402, 55030, 54504, 54017, 56057, 56055, 55122, 55017, 56342, 55189, 53951, 54126, 55190, 54551, 54816, 53861, 54580, 55350, 55430, 54689, 53418, 53210, 53822, 53693, 53491, 53882, 54305, 54562, 53869, 54139, 55056, 55357, 54540, 54585, 55608, 55013, 54321, 54766, 56161, 56758, 55748, 56118, 55283, 54799, 54441, 55598, 55632, 54236],
      "WindowCenter": [10701.0, 10669.0, 10651.0, 10649.0, 10634.0, 10614.0, 10603.0, 10608.0, 10612.0, 10614.0, 10619.0, 10619.0, 10623.0, 10619.0, 10620.0, 10630.0, 10646.0, 10635.0, 10635.0, 10637.0, 10621.0, 10624.0, 10615.0, 10618.0, 10621.0, 10615.0, 10610.0, 10618.0, 10621.0, 10623.0, 10641.0, 10645.0, 10640.0, 10632.0, 10626.0, 10621.0, 10624.0, 10621.0, 10638.0, 10666.0, 10677.0, 10669.0, 10656.0, 10639.0, 10624.0, 10619.0, 10608.0, 10620.0, 10633.0, 10647.0, 10638.0, 10655.0, 10658.0, 10657.0, 10644.0, 10636.0, 10640.0, 10635.0, 10634.0, 10645.0, 10652.0, 10660.0, 10663.0, 10669.0, 10671.0, 10664.0, 10676.0, 10684.0, 10685.0, 10670.0, 10674.0, 10674.0, 10672.0, 10654.0, 10641.0, 10642.0, 10633.0, 10640.0, 10660.0, 10674.0, 10672.0, 10665.0, 10652.0, 10653.0, 10641.0, 10641.0, 10646.0, 10644.0, 10657.0, 10666.0, 10660.0, 10655.0, 10649.0, 10639.0, 10641.0, 10639.0, 10626.0, 10612.0, 10597.0, 10597.0, 10604.0, 10603.0, 10600.0, 10602.0, 10596.0, 10596.0, 10602.0, 10620.0, 10646.0, 10665.0, 10659.0, 10662.0, 10649.0, 10640.0, 10628.0, 10625.0, 10626.0, 10635.0, 10637.0, 10639.0, 10646.0, 10653.0, 10651.0, 10669.0, 10686.0, 10702.0, 10687.0, 10683.0, 10680.0, 10654.0, 10643.0, 10634.0, 10643.0, 10640.0, 10658.0, 10682.0, 10693.0, 10688.0, 10681.0, 10711.0, 10711.0, 10683.0, 10663.0, 10661.0, 10662.0, 10661.0, 10649.0, 10667.0, 10696.0, 10700.0, 10697.0, 10688.0, 10682.0, 10671.0, 10662.0, 10670.0, 10684.0, 10682.0, 10692.0, 10690.0, 10696.0, 10685.0, 10668.0, 10653.0, 10636.0, 10635.0, 10639.0, 10631.0, 10627.0, 10639.0, 10653.0, 10667.0, 10658.0, 10663.0, 10668.0, 10668.0, 10662.0, 10664.0, 10671.0, 10675.0, 10672.0, 10686.0, 10697.0, 10690.0, 10695.0, 10695.0, 10690.0, 10667.0, 10657.0, 10652.0, 10642.0, 10625.0],
      "WindowWidth": [23173.0, 23067.0, 23010.0, 22995.0, 22957.0, 22908.0, 22881.0, 22889.0, 22897.0, 22904.0, 22914.0, 22916.0, 22925.0, 22919.0, 22920.0, 22938.0, 22975.0, 22954.0, 22954.0, 22958.0, 22921.0, 22927.0, 22908.0, 22912.0, 22915.0, 22903.0, 22892.0, 22908.0, 22919.0, 22924.0, 22966.0, 22978.0, 22966.0, 22951.0, 22936.0, 22919.0, 22925.0, 22924.0, 22968.0, 23032.0, 23059.0, 23045.0, 23012.0, 22967.0, 22926.0, 22910.0, 22887.0, 22916.0, 22948.0, 22980.0, 22962.0, 23000.0, 23006.0, 23004.0, 22976.0, 22960.0, 22965.0, 22955.0, 22954.0, 22978.0, 22994.0, 23015.0, 23025.0, 23041.0, 23045.0, 23033.0, 23059.0, 23079.0, 23079.0, 23050.0, 23055.0, 23050.0, 23041.0, 23001.0, 22973.0, 22969.0, 22948.0, 22963.0, 23008.0, 23040.0, 23038.0, 23022.0, 22992.0, 22988.0, 22961.0, 22964.0, 22973.0, 22965.0, 22994.0, 23016.0, 23007.0, 23000.0, 22983.0, 22961.0, 22964.0, 22956.0, 22920.0, 22887.0, 22851.0, 22851.0, 22867.0, 22872.0, 22868.0, 22867.0, 22850.0, 22852.0, 22866.0, 22910.0, 22972.0, 23022.0, 23018.0, 23022.0, 22992.0, 22968.0, 22941.0, 22934.0, 22937.0, 22953.0, 22959.0, 22966.0, 22980.0, 22996.0, 22995.0, 23037.0, 23085.0, 23121.0, 23092.0, 23073.0, 23057.0, 22997.0, 22971.0, 22949.0, 22969.0, 22969.0, 23016.0, 23070.0, 23097.0, 23085.0, 23071.0, 23141.0, 23135.0, 23070.0, 23024.0, 23017.0, 23017.0, 23015.0, 22992.0, 23039.0, 23104.0, 23118.0, 23115.0, 23095.0, 23071.0, 23047.0, 23030.0, 23047.0, 23074.0, 23071.0, 23087.0, 23086.0, 23097.0, 23065.0, 23018.0, 22983.0, 22947.0, 22947.0, 22954.0, 22935.0, 22930.0, 22961.0, 22993.0, 23024.0, 23010.0, 23022.0, 23033.0, 23031.0, 23023.0, 23029.0, 23043.0, 23053.0, 23051.0, 23082.0, 23106.0, 23088.0, 23094.0, 23088.0, 23072.0, 23022.0, 23000.0, 22983.0, 22958.0, 22923.0]
    },
    "slices": {}
  }
}