{
  "AcquisitionMatrixPE": 104,
  "AcquisitionNumber": 1,
  "AcquisitionTime": "11:52:52.370000",
  "BandwidthPerPixelPhaseEncode": 16.297,
  "BaseResolution": 104,
  "BodyPartExamined": "BRAIN",
  "ConsistencyInfo": "N4_VE11C_LATEST_20160120",
  "ConversionSoftware": "dcm2niix",
  "ConversionSoftwareVersion": "v1.0.20210317",
  "DerivedVendorReportedEchoSpacing": 0.000590009,
  "DeviceSerialNumber": "166018",
  "DwellTime": 2.1e-06,
  "EchoTime": 0.0376,
  "EchoTrainLength": 104,
  "EffectiveEchoSpacing": 0.000590009,
  "FlipAngle": 68,
  "ImageComments": "Unaliased MB6/PE3/LB",
  "ImageOrientationPatientDICOM": [0.998791, -0.0136688, 0.04722, 0.0226657, 0.980418, -0.195621],
  "ImageType": [
    "ORIGINAL",
    "PRIMARY",
    "M",
    "MB",
    "ND",
    "MOSAIC"
],
  "ImagingFrequency": 123.197,
  "InPlanePhaseEncodingDirectionDICOM": "COL",
  "InstitutionAddress": "Washington Place 6,NYC,NYC,US,10003",
  "InstitutionName": "NYU - CBI",
  "InstitutionalDepartmentName": "Department",
  "MRAcquisitionType": "2D",
  "MagneticFieldStrength": 3,
  "Manufacturer": "Siemens",
  "ManufacturersModelName": "Prisma",
  "Modality": "MR",
  "MultibandAccelerationFactor": 6,
  "PartialFourier": 1,
  "PatientPosition": "HFS",
  "PercentPhaseFOV": 100,
  "PercentSampling": 100,
  "PhaseEncodingDirection": "j",
  "PhaseEncodingSteps": 104,
  "PhaseResolution": 1,
  "PixelBandwidth": 2290,
  "ProcedureStepDescription": "Investigators^Winawer",
  "ProtocolName": "cmrr_mbepi_s6_2mm_66sl_PA_task-prf",
  "PulseSequenceDetails": "%CustomerSeq%\\cmrr_mbep2d_bold",
  "ReceiveCoilActiveElements": "HC1-7",
  "ReceiveCoilName": "HeadNeck_64",
  "ReconMatrixPE": 104,
  "RepetitionTime": 1,
  "SAR": 0.0918345,
  "ScanOptions": "FS",
  "ScanningSequence": "EP",
  "SequenceName": "epfid2d1_104",
  "SequenceVariant": "SK\\SS",
  "SeriesDescription": "cmrr_mbepi_s6_2mm_66sl_PA_task-prf",
  "SeriesNumber": 17,
  "ShimSetting": [316, -12633, -8503, 139, 23, -125, 105, 101],
  "SliceThickness": 2,
  "SliceTiming": [0, 0.535, 0.0875, 0.6225, 0.1775, 0.7125, 0.2675, 0.8025, 0.355, 0.89, 0.445, 0, 0.535, 0.0875, 0.6225, 0.1775, 0.7125, 0.2675, 0.8025, 0.355, 0.89, 0.445, 0, 0.535, 0.0875, 0.6225, 0.1775, 0.7125, 0.2675, 0.8025, 0.355, 0.89, 0.445, 0, 0.535, 0.0875, 0.6225, 0.1775, 0.7125, 0.2675, 0.8025, 0.355, 0.89, 0.445, 0, 0.535, 0.0875, 0.6225, 0.1775, 0.7125, 0.2675, 0.8025, 0.355, 0.89, 0.445, 0, 0.535, 0.0875, 0.6225, 0.1775, 0.7125, 0.2675, 0.8025, 0.355, 0.89, 0.445],
  "SoftwareVersions": "syngo MR E11",
  "SpacingBetweenSlices": 2,
  "StationName": "AWP166018",
  "TaskName": "prf",
  "TotalReadoutTime": 0.060771,
  "TxRefAmp": 263.077,
  "VendorReportedEchoSpacing": 0.00059,
  "WipMemBlock": "d0c30371-2d52-4609-ad95-2df4d5c2f496||Sequence: R016 ve11c/master r/8780670; Nov 27 2017 15:05:12 by eja",
  "dcmmeta_affine": [
    [-1.997581958770752, 0.0453314371407032, 0.08724290132522583, 102.45104217529297],
    [0.027337506413459778, 1.9608352184295654, -0.39290952682495117, -65.47602844238281],
    [0.09444005787372589, 0.39124199748039246, 1.959084153175354, -55.4233512878418],
    [0.0, 0.0, 0.0, 1.0]
],
  "dcmmeta_reorient_transform": [
    [0.0, -1.0, 0.0, 103.0],
    [1.0, 0.0, 0.0, 0.0],
    [0.0, 0.0, 1.0, 0.0],
    [0.0, 0.0, 0.0, 1.0]
],
  "dcmmeta_shape": [104, 104, 66, 192],
  "dcmmeta_slice_dim": 2,
  "dcmmeta_version": 0.6,
  "global": {
    "const": {
      "AccessionNumber": "L5mqz82m",
      "AcquisitionMatrix": [104, 0, 0, 104],
      "AngioFlag": "N",
      "BitsAllocated": 16,
      "BitsStored": 16,
      "BodyPartExamined": "BRAIN",
      "Columns": 936,
      "EchoNumbers": 1,
      "EchoTime": 37.6,
      "EchoTrainLength": 104,
      "FlipAngle": 68.0,
      "HighBit": 15,
      "ImageOrientationPatient": [0.99879098617124, -0.0136687528333, 0.04722002900325, 0.02266571833323, 0.98041761027041, -0.1956209975542],
      "ImagePositionPatient": [-956.97215921212, -940.82504686365, 108.34418066342],
      "ImageType": [
        "ORIGINAL",
        "PRIMARY",
        "M",
        "MB",
        "ND",
        "MOSAIC"
],
      "ImagedNucleus": "1H",
      "ImagingFrequency": 123.196825,
      "InPlanePhaseEncodingDirection": "COL",
      "MRAcquisitionType": "2D",
      "MagneticFieldStrength": 3.0,
      "Manufacturer": "SIEMENS",
      "ManufacturerModelName": "Prisma",
      "Modality": "MR",
      "NumberOfAverages": 1.0,
      "NumberOfPhaseEncodingSteps": 104,
      "PercentPhaseFieldOfView": 100.0,
      "PercentSampling": 100.0,
      "PerformedProcedureStepStartTime": "111458.126000",
      "PhotometricInterpretation": "MONOCHROME2",
      "PixelBandwidth": 2290.0,
      "PixelRepresentation": 0,
      "PixelSpacing": [2.0, 2.0],
      "ProtocolName": "cmrr_mbepi_s6_2mm_66sl_PA_task-prf",
      "RepetitionTime": 1000.0,
      "Rows": 936,
      "SAR": 0.09183454342287,
      "SamplesPerPixel": 1,
      "ScanOptions": "FS",
      "ScanningSequence": "EP",
      "SequenceName": "epfid2d1_104",
      "SequenceVariant": [
        "SK",
        "SS"
],
      "SeriesDescription": "cmrr_mbepi_s6_2mm_66sl_PA_task-prf",
      "SeriesNumber": 17,
      "SeriesTime": "115409.345000",
      "SliceLocation": -36.957362927095,
      "SliceThickness": 2.0,
      "SmallestImagePixelValue": 0,
      "SoftwareVersions": "syngo MR E11",
      "SpacingBetweenSlices": 1.999999945464,
      "SpecificCharacterSet": "ISO_IR 100",
      "StudyID": "1",
      "StudyTime": "111458.052000",
      "TransmitCoilName": "Body",
      "VariableFlipAngleFlag": "N",
      "WindowCenterWidthExplanation": "Algo1",
      "dBdt": 0.0},
    "slices": {}
  },
  "time": {
    "samples": {
      "AcquisitionNumber": [1, 2, 3, 4, 5, 6, 7, 8, 9, 10, 11, 12, 13, 14, 15, 16, 17, 18, 19, 20, 21, 22, 23, 24, 25, 26, 27, 28, 29, 30, 31, 32, 33, 34, 35, 36, 37, 38, 39, 40, 41, 42, 43, 44, 45, 46, 47, 48, 49, 50, 51, 52, 53, 54, 55, 56, 57, 58, 59, 60, 61, 62, 63, 64, 65, 66, 67, 68, 69, 70, 71, 72, 73, 74, 75, 76, 77, 78, 79, 80, 81, 82, 83, 84, 85, 86, 87, 88, 89, 90, 91, 92, 93, 94, 95, 96, 97, 98, 99, 100, 101, 102, 103, 104, 105, 106, 107, 108, 109, 110, 111, 112, 113, 114, 115, 116, 117, 118, 119, 120, 121, 122, 123, 124, 125, 126, 127, 128, 129, 130, 131, 132, 133, 134, 135, 136, 137, 138, 139, 140, 141, 142, 143, 144, 145, 146, 147, 148, 149, 150, 151, 152, 153, 154, 155, 156, 157, 158, 159, 160, 161, 162, 163, 164, 165, 166, 167, 168, 169, 170, 171, 172, 173, 174, 175, 176, 177, 178, 179, 180, 181, 182, 183, 184, 185, 186, 187, 188, 189, 190, 191, 192],
      "AcquisitionTime": ["115252.370000", "115253.370000", "115254.370000", "115255.370000", "115256.370000", "115257.370000", "115258.370000", "115259.370000", "115300.370000", "115301.370000", "115302.370000", "115303.370000", "115304.370000", "115305.370000", "115306.370000", "115307.370000", "115308.370000", "115309.370000", "115310.370000", "115311.370000", "115312.370000", "115313.370000", "115314.370000", "115315.370000", "115316.370000", "115317.370000", "115318.370000", "115319.370000", "115320.370000", "115321.370000", "115322.370000", "115323.370000", "115324.370000", "115325.370000", "115326.370000", "115327.370000", "115328.370000", "115329.370000", "115330.370000", "115331.370000", "115332.370000", "115333.370000", "115334.370000", "115335.370000", "115336.370000", "115337.370000", "115338.370000", "115339.370000", "115340.370000", "115341.370000", "115342.370000", "115343.370000", "115344.370000", "115345.370000", "115346.370000", "115347.370000", "115348.370000", "115349.370000", "115350.370000", "115351.370000", "115352.370000", "115353.370000", "115354.370000", "115355.370000", "115356.370000", "115357.370000", "115358.370000", "115359.370000", "115400.370000", "115401.370000", "115402.370000", "115403.370000", "115404.370000", "115405.370000", "115406.370000", "115407.370000", "115408.370000", "115409.370000", "115410.370000", "115411.370000", "115412.370000", "115413.370000", "115414.370000", "115415.370000", "115416.370000", "115417.370000", "115418.370000", "115419.370000", "115420.370000", "115421.370000", "115422.370000", "115423.370000", "115424.370000", "115425.370000", "115426.370000", "115427.370000", "115428.370000", "115429.370000", "115430.370000", "115431.370000", "115432.370000", "115433.370000", "115434.370000", "115435.370000", "115436.370000", "115437.370000", "115438.370000", "115439.370000", "115440.370000", "115441.370000", "115442.370000", "115443.370000", "115444.370000", "115445.370000", "115446.370000", "115447.370000", "115448.370000", "115449.370000", "115450.370000", "115451.370000", "115452.370000", "115453.370000", "115454.370000", "115455.370000", "115456.370000", "115457.370000", "115458.370000", "115459.370000", "115500.370000", "115501.370000", "115502.370000", "115503.370000", "115504.370000", "115505.370000", "115506.370000", "115507.370000", "115508.370000", "115509.370000", "115510.370000", "115511.370000", "115512.370000", "115513.370000", "115514.370000", "115515.370000", "115516.370000", "115517.370000", "115518.370000", "115519.370000", "115520.370000", "115521.370000", "115522.370000", "115523.370000", "115524.370000", "115525.370000", "115526.370000", "115527.370000", "115528.370000", "115529.370000", "115530.370000", "115531.370000", "115532.370000", "115533.370000", "115534.370000", "115535.370000", "115536.370000", "115537.370000", "115538.370000", "115539.370000", "115540.370000", "115541.370000", "115542.370000", "115543.370000", "115544.370000", "115545.370000", "115546.370000", "115547.370000", "115548.370000", "115549.370000", "115550.370000", "115551.370000", "115552.370000", "115553.370000", "115554.370000", "115555.370000", "115556.370000", "115557.370000", "115558.370000", "115559.370000", "115600.370000", "115601.370000", "115602.370000", "115603.370000"],
      "ContentTime": ["115409.348000", "115409.351000", "115409.354000", "115409.357000", "115409.360000", "115409.363000", "115409.366000", "115409.370000", "115409.382000", "115409.385000", "115409.388000", "115409.391000", "115409.394000", "115409.397000", "115409.400000", "115409.403000", "115409.406000", "115409.409000", "115409.412000", "115409.415000", "115409.418000", "115409.421000", "115409.431000", "115409.434000", "115409.437000", "115409.440000", "115409.443000", "115409.446000", "115409.449000", "115409.452000", "115409.455000", "115409.458000", "115409.461000", "115409.464000", "115429.319000", "115429.322000", "115429.325000", "115429.335000", "115429.338000", "115429.341000", "115429.344000", "115429.347000", "115429.350000", "115429.353000", "115429.356000", "115429.359000", "115429.362000", "115429.386000", "115429.389000", "115429.392000", "115429.395000", "115429.398000", "115429.401000", "115429.404000", "115429.407000", "115429.410000", "115429.413000", "115429.416000", "115429.419000", "115429.422000", "115429.425000", "115429.428000", "115449.319000", "115449.322000", "115449.325000", "115449.328000", "115449.331000", "115449.334000", "115449.337000", "115449.340000", "115449.343000", "115449.346000", "115449.349000", "115449.352000", "115449.355000", "115449.358000", "115449.366000", "115449.370000", "115449.373000", "115449.376000", "115449.379000", "115449.382000", "115449.389000", "115449.393000", "115449.396000", "115449.399000", "115449.402000", "115449.404000", "115449.407000", "115449.410000", "115449.413000", "115509.319000", "115509.322000", "115509.325000", "115509.328000", "115509.338000", "115509.341000", "115509.344000", "115509.347000", "115509.350000", "115509.354000", "115509.356000", "115509.359000", "115509.362000", "115509.366000", "115509.369000", "115509.372000", "115509.375000", "115509.378000", "115509.381000", "115509.384000", "115509.387000", "115509.390000", "115509.393000", "115509.396000", "115509.399000", "115509.402000", "115509.405000", "115509.408000", "115529.320000", "115529.323000", "115529.326000", "115529.329000", "115529.332000", "115529.335000", "115529.338000", "115529.341000", "115529.344000", "115529.347000", "115529.350000", "115529.353000", "115529.356000", "115529.359000", "115529.362000", "115529.365000", "115529.369000", "115529.372000", "115529.375000", "115529.378000", "115529.381000", "115529.384000", "115529.387000", "115529.390000", "115529.393000", "115529.398000", "115529.402000", "115529.405000", "115549.319000", "115549.322000", "115549.325000", "115549.328000", "115549.331000", "115549.334000", "115549.337000", "115549.340000", "115549.343000", "115549.346000", "115549.349000", "115549.352000", "115549.355000", "115549.358000", "115549.361000", "115549.364000", "115549.368000", "115549.371000", "115549.374000", "115549.377000", "115549.380000", "115549.383000", "115549.386000", "115549.389000", "115549.397000", "115549.400000", "115549.403000", "115549.406000", "115605.504000", "115605.507000", "115605.511000", "115605.514000", "115605.517000", "115605.520000", "115605.523000", "115605.526000", "115605.529000", "115605.532000", "115605.535000", "115605.538000", "115605.541000", "115605.543000", "115605.546000", "115605.549000", "115605.552000"],
      "InstanceCreationTime": ["115409.348000", "115409.351000", "115409.354000", "115409.357000", "115409.360000", "115409.363000", "115409.366000", "115409.370000", "115409.382000", "115409.385000", "115409.388000", "115409.391000", "115409.394000", "115409.397000", "115409.400000", "115409.403000", "115409.406000", "115409.409000", "115409.412000", "115409.415000", "115409.418000", "115409.421000", "115409.431000", "115409.434000", "115409.437000", "115409.440000", "115409.443000", "115409.446000", "115409.449000", "115409.452000", "115409.455000", "115409.458000", "115409.461000", "115409.464000", "115429.319000", "115429.322000", "115429.325000", "115429.335000", "115429.338000", "115429.341000", "115429.344000", "115429.347000", "115429.350000", "115429.353000", "115429.356000", "115429.359000", "115429.362000", "115429.386000", "115429.389000", "115429.392000", "115429.395000", "115429.398000", "115429.401000", "115429.404000", "115429.407000", "115429.410000", "115429.413000", "115429.416000", "115429.419000", "115429.422000", "115429.425000", "115429.428000", "115449.319000", "115449.322000", "115449.325000", "115449.328000", "115449.331000", "115449.334000", "115449.337000", "115449.340000", "115449.343000", "115449.346000", "115449.349000", "115449.352000", "115449.355000", "115449.358000", "115449.366000", "115449.370000", "115449.373000", "115449.376000", "115449.379000", "115449.382000", "115449.389000", "115449.393000", "115449.396000", "115449.399000", "115449.402000", "115449.404000", "115449.407000", "115449.410000", "115449.413000", "115509.319000", "115509.322000", "115509.325000", "115509.328000", "115509.338000", "115509.341000", "115509.344000", "115509.347000", "115509.350000", "115509.354000", "115509.356000", "115509.359000", "115509.362000", "115509.366000", "115509.369000", "115509.372000", "115509.375000", "115509.378000", "115509.381000", "115509.384000", "115509.387000", "115509.390000", "115509.393000", "115509.396000", "115509.399000", "115509.402000", "115509.405000", "115509.408000", "115529.320000", "115529.323000", "115529.326000", "115529.329000", "115529.332000", "115529.335000", "115529.338000", "115529.341000", "115529.344000", "115529.347000", "115529.350000", "115529.353000", "115529.356000", "115529.359000", "115529.362000", "115529.365000", "115529.369000", "115529.372000", "115529.375000", "115529.378000", "115529.381000", "115529.384000", "115529.387000", "115529.390000", "115529.393000", "115529.398000", "115529.402000", "115529.405000", "115549.319000", "115549.322000", "115549.325000", "115549.328000", "115549.331000", "115549.334000", "115549.337000", "115549.340000", "115549.343000", "115549.346000", "115549.349000", "115549.352000", "115549.355000", "115549.358000", "115549.361000", "115549.364000", "115549.368000", "115549.371000", "115549.374000", "115549.377000", "115549.380000", "115549.383000", "115549.386000", "115549.389000", "115549.397000", "115549.400000", "115549.403000", "115549.406000", "115605.504000", "115605.507000", "115605.511000", "115605.514000", "115605.517000", "115605.520000", "115605.523000", "115605.526000", "115605.529000", "115605.532000", "115605.535000", "115605.538000", "115605.541000", "115605.543000", "115605.546000", "115605.549000", "115605.552000"],
      "InstanceNumber": [1, 2, 3, 4, 5, 6, 7, 8, 9, 10, 11, 12, 13, 14, 15, 16, 17, 18, 19, 20, 21, 22, 23, 24, 25, 26, 27, 28, 29, 30, 31, 32, 33, 34, 35, 36, 37, 38, 39, 40, 41, 42, 43, 44, 45, 46, 47, 48, 49, 50, 51, 52, 53, 54, 55, 56, 57, 58, 59, 60, 61, 62, 63, 64, 65, 66, 67, 68, 69, 70, 71, 72, 73, 74, 75, 76, 77, 78, 79, 80, 81, 82, 83, 84, 85, 86, 87, 88, 89, 90, 91, 92, 93, 94, 95, 96, 97, 98, 99, 100, 101, 102, 103, 104, 105, 106, 107, 108, 109, 110, 111, 112, 113, 114, 115, 116, 117, 118, 119, 120, 121, 122, 123, 124, 125, 126, 127, 128, 129, 130, 131, 132, 133, 134, 135, 136, 137, 138, 139, 140, 141, 142, 143, 144, 145, 146, 147, 148, 149, 150, 151, 152, 153, 154, 155, 156, 157, 158, 159, 160, 161, 162, 163, 164, 165, 166, 167, 168, 169, 170, 171, 172, 173, 174, 175, 176, 177, 178, 179, 180, 181, 182, 183, 184, 185, 186, 187, 188, 189, 190, 191, 192],
      "LargestImagePixelValue": [59186, 56778, 56333, 56091, 55818, 55752, 55196, 53744, 54212, 55065, 55437, 54947, 55408, 55401, 55102, 54516, 54891, 55124, 54367, 53834, 53910, 53960, 54226, 53648, 53381, 53720, 54244, 54026, 54199, 53754, 53921, 54385, 54349, 53585, 53513, 54048, 54257, 54385, 54276, 52040, 54625, 54510, 53411, 55233, 55196, 54772, 53826, 53594, 54009, 54697, 54799, 54094, 55179, 55243, 54166, 54258, 54730, 54803, 55005, 54083, 53487, 53707, 54749, 54489, 54395, 53622, 53547, 53710, 53375, 54196, 53468, 53442, 53816, 54216, 53951, 54270, 54256, 53416, 53795, 53585, 53561, 53664, 53512, 52645, 52999, 53375, 53052, 52837, 53548, 53503, 52939, 52490, 53616, 52430, 52851, 53139, 54805, 53885, 53631, 54359, 53485, 52737, 52958, 54017, 52346, 52570, 53673, 53174, 53140, 51758, 52595, 52583, 53290, 52484, 52662, 51527, 51770, 52317, 52320, 52150, 52095, 53234, 52478, 52564, 51918, 51929, 52103, 52342, 51733, 52018, 52883, 52026, 51835, 52623, 53202, 53223, 53716, 54154, 53212, 52357, 52035, 52455, 52678, 53245, 53329, 52456, 52381, 53292, 52881, 52030, 51879, 52461, 53631, 53192, 52578, 52964, 53053, 52789, 51958, 52754, 53042, 52794, 52618, 52497, 52850, 53082, 52705, 52655, 52617, 52842, 52862, 52708, 52337, 52468, 52680, 52699, 52494, 52767, 52557, 53000, 53055, 52408, 52296, 52832, 52968, 52015, 53273, 52227, 52132, 52197, 51048, 51442],
      "WindowCenter": [10673.0, 10629.0, 10615.0, 10600.0, 10593.0, 10594.0, 10581.0, 10583.0, 10598.0, 10604.0, 10603.0, 10589.0, 10583.0, 10577.0, 10576.0, 10573.0, 10590.0, 10605.0, 10612.0, 10611.0, 10598.0, 10587.0, 10578.0, 10569.0, 10570.0, 10568.0, 10577.0, 10575.0, 10574.0, 10584.0, 10592.0, 10584.0, 10569.0, 10550.0, 10541.0, 10542.0, 10545.0, 10544.0, 10549.0, 10556.0, 10597.0, 10589.0, 10571.0, 10567.0, 10552.0, 10544.0, 10534.0, 10541.0, 10549.0, 10566.0, 10563.0, 10565.0, 10582.0, 10581.0, 10567.0, 10558.0, 10553.0, 10544.0, 10535.0, 10537.0, 10534.0, 10541.0, 10551.0, 10553.0, 10554.0, 10549.0, 10550.0, 10552.0, 10553.0, 10560.0, 10565.0, 10566.0, 10561.0, 10544.0, 10526.0, 10529.0, 10523.0, 10518.0, 10526.0, 10533.0, 10528.0, 10533.0, 10536.0, 10534.0, 10540.0, 10545.0, 10546.0, 10549.0, 10555.0, 10555.0, 10538.0, 10531.0, 10537.0, 10528.0, 10530.0, 10534.0, 10548.0, 10552.0, 10567.0, 10576.0, 10566.0, 10546.0, 10536.0, 10539.0, 10517.0, 10521.0, 10531.0, 10531.0, 10544.0, 10538.0, 10540.0, 10550.0, 10558.0, 10543.0, 10535.0, 10517.0, 10514.0, 10519.0, 10523.0, 10518.0, 10515.0, 10523.0, 10517.0, 10511.0, 10513.0, 10538.0, 10546.0, 10557.0, 10527.0, 10514.0, 10507.0, 10502.0, 10501.0, 10521.0, 10539.0, 10550.0, 10551.0, 10555.0, 10537.0, 10521.0, 10515.0, 10518.0, 10525.0, 10522.0, 10524.0, 10521.0, 10516.0, 10515.0, 10501.0, 10499.0, 10509.0, 10523.0, 10545.0, 10543.0, 10533.0, 10529.0, 10523.0, 10524.0, 10515.0, 10526.0, 10537.0, 10534.0, 10529.0, 10530.0, 10534.0, 10529.0, 10529.0, 10529.0, 10524.0, 10520.0, 10517.0, 10516.0, 10511.0, 10511.0, 10517.0, 10523.0, 10525.0, 10533.0, 10529.0, 10538.0, 10540.0, 10536.0, 10526.0, 10532.0, 10546.0, 10543.0, 10538.0, 10521.0, 10520.0, 10512.0, 10496.0, 10494.0],
      "WindowWidth": [23089.0, 22958.0, 22909.0, 22863.0, 22840.0, 22836.0, 22805.0, 22811.0, 22848.0, 22863.0, 22860.0, 22828.0, 22810.0, 22793.0, 22791.0, 22788.0, 22827.0, 22862.0, 22887.0, 22891.0, 22864.0, 22830.0, 22806.0, 22784.0, 22789.0, 22780.0, 22797.0, 22795.0, 22790.0, 22818.0, 22836.0, 22815.0, 22781.0, 22739.0, 22718.0, 22717.0, 22723.0, 22717.0, 22726.0, 22742.0, 22835.0, 22820.0, 22778.0, 22759.0, 22720.0, 22699.0, 22684.0, 22707.0, 22724.0, 22762.0, 22760.0, 22768.0, 22804.0, 22799.0, 22771.0, 22747.0, 22729.0, 22703.0, 22682.0, 22693.0, 22693.0, 22712.0, 22732.0, 22735.0, 22737.0, 22728.0, 22730.0, 22737.0, 22741.0, 22760.0, 22776.0, 22781.0, 22765.0, 22718.0, 22672.0, 22673.0, 22660.0, 22651.0, 22671.0, 22690.0, 22681.0, 22693.0, 22701.0, 22701.0, 22715.0, 22726.0, 22728.0, 22740.0, 22750.0, 22750.0, 22712.0, 22694.0, 22702.0, 22686.0, 22694.0, 22703.0, 22734.0, 22746.0, 22777.0, 22797.0, 22776.0, 22732.0, 22707.0, 22710.0, 22666.0, 22674.0, 22691.0, 22689.0, 22718.0, 22712.0, 22714.0, 22735.0, 22750.0, 22715.0, 22693.0, 22658.0, 22650.0, 22656.0, 22663.0, 22654.0, 22654.0, 22668.0, 22655.0, 22646.0, 22655.0, 22713.0, 22731.0, 22756.0, 22688.0, 22652.0, 22627.0, 22614.0, 22616.0, 22663.0, 22705.0, 22736.0, 22731.0, 22731.0, 22689.0, 22657.0, 22647.0, 22659.0, 22674.0, 22667.0, 22673.0, 22670.0, 22661.0, 22651.0, 22613.0, 22611.0, 22631.0, 22663.0, 22711.0, 22710.0, 22691.0, 22682.0, 22666.0, 22671.0, 22658.0, 22682.0, 22704.0, 22697.0, 22690.0, 22694.0, 22700.0, 22686.0, 22692.0, 22692.0, 22679.0, 22666.0, 22658.0, 22653.0, 22642.0, 22642.0, 22656.0, 22673.0, 22679.0, 22697.0, 22690.0, 22705.0, 22707.0, 22701.0, 22683.0, 22691.0, 22722.0, 22719.0, 22708.0, 22669.0, 22658.0, 22637.0, 22602.0, 22599.0]
    },
    "slices": {}
  }
}