{
  "AcquisitionMatrixPE": 104,
  "AcquisitionNumber": 1,
  "AcquisitionTime": "12:12:38.520000",
  "BandwidthPerPixelPhaseEncode": 16.297,
  "BaseResolution": 104,
  "BodyPartExamined": "BRAIN",
  "ConsistencyInfo": "N4_VE11C_LATEST_20160120",
  "ConversionSoftware": "dcm2niix",
  "ConversionSoftwareVersion": "v1.0.20210317",
  "DerivedVendorReportedEchoSpacing": 0.000590009,
  "DeviceSerialNumber": "166018",
  "DwellTime": 2.1e-06,
  "EchoTime": 0.0376,
  "EchoTrainLength": 104,
  "EffectiveEchoSpacing": 0.000590009,
  "FlipAngle": 68,
  "ImageComments": "Unaliased MB6/PE3/LB",
  "ImageOrientationPatientDICOM": [0.998791, -0.0136688, 0.04722, 0.0226657, 0.980418, -0.195621],
  "ImageType": [
    "ORIGINAL",
    "PRIMARY",
    "M",
    "MB",
    "ND",
    "MOSAIC"
],
  "ImagingFrequency": 123.197,
  "InPlanePhaseEncodingDirectionDICOM": "COL",
  "InstitutionAddress": "Washington Place 6,NYC,NYC,US,10003",
  "InstitutionName": "NYU - CBI",
  "InstitutionalDepartmentName": "Department",
  "MRAcquisitionType": "2D",
  "MagneticFieldStrength": 3,
  "Manufacturer": "Siemens",
  "ManufacturersModelName": "Prisma",
  "Modality": "MR",
  "MultibandAccelerationFactor": 6,
  "PartialFourier": 1,
  "PatientPosition": "HFS",
  "PercentPhaseFOV": 100,
  "PercentSampling": 100,
  "PhaseEncodingDirection": "j",
  "PhaseEncodingSteps": 104,
  "PhaseResolution": 1,
  "PixelBandwidth": 2290,
  "ProcedureStepDescription": "Investigators^Winawer",
  "ProtocolName": "cmrr_mbepi_s6_2mm_66sl_PA_task-prf",
  "PulseSequenceDetails": "%CustomerSeq%\\cmrr_mbep2d_bold",
  "ReceiveCoilActiveElements": "HC1-7",
  "ReceiveCoilName": "HeadNeck_64",
  "ReconMatrixPE": 104,
  "RepetitionTime": 1,
  "SAR": 0.0918345,
  "ScanOptions": "FS",
  "ScanningSequence": "EP",
  "SequenceName": "epfid2d1_104",
  "SequenceVariant": "SK\\SS",
  "SeriesDescription": "cmrr_mbepi_s6_2mm_66sl_PA_task-prf",
  "SeriesNumber": 27,
  "ShimSetting": [316, -12633, -8503, 139, 23, -125, 105, 101],
  "SliceThickness": 2,
  "SliceTiming": [0, 0.5325, 0.0875, 0.6225, 0.1775, 0.7125, 0.2675, 0.8, 0.355, 0.89, 0.445, 0, 0.5325, 0.0875, 0.6225, 0.1775, 0.7125, 0.2675, 0.8, 0.355, 0.89, 0.445, 0, 0.5325, 0.0875, 0.6225, 0.1775, 0.7125, 0.2675, 0.8, 0.355, 0.89, 0.445, 0, 0.5325, 0.0875, 0.6225, 0.1775, 0.7125, 0.2675, 0.8, 0.355, 0.89, 0.445, 0, 0.5325, 0.0875, 0.6225, 0.1775, 0.7125, 0.2675, 0.8, 0.355, 0.89, 0.445, 0, 0.5325, 0.0875, 0.6225, 0.1775, 0.7125, 0.2675, 0.8, 0.355, 0.89, 0.445],
  "SoftwareVersions": "syngo MR E11",
  "SpacingBetweenSlices": 2,
  "StationName": "AWP166018",
  "TaskName": "prf",
  "TotalReadoutTime": 0.060771,
  "TxRefAmp": 263.077,
  "VendorReportedEchoSpacing": 0.00059,
  "WipMemBlock": "d0c30371-2d52-4609-ad95-2df4d5c2f496||Sequence: R016 ve11c/master r/8780670; Nov 27 2017 15:05:12 by eja",
  "dcmmeta_affine": [
    [-1.997581958770752, 0.0453314371407032, 0.08724290132522583, 102.45104217529297],
    [0.027337506413459778, 1.9608352184295654, -0.39290952682495117, -65.47602844238281],
    [0.09444005787372589, 0.39124199748039246, 1.959084153175354, -55.4233512878418],
    [0.0, 0.0, 0.0, 1.0]
],
  "dcmmeta_reorient_transform": [
    [0.0, -1.0, 0.0, 103.0],
    [1.0, 0.0, 0.0, 0.0],
    [0.0, 0.0, 1.0, 0.0],
    [0.0, 0.0, 0.0, 1.0]
],
  "dcmmeta_shape": [104, 104, 66, 192],
  "dcmmeta_slice_dim": 2,
  "dcmmeta_version": 0.6,
  "global": {
    "const": {
      "AccessionNumber": "L5mqz82m",
      "AcquisitionMatrix": [104, 0, 0, 104],
      "AngioFlag": "N",
      "BitsAllocated": 16,
      "BitsStored": 16,
      "BodyPartExamined": "BRAIN",
      "Columns": 936,
      "EchoNumbers": 1,
      "EchoTime": 37.6,
      "EchoTrainLength": 104,
      "FlipAngle": 68.0,
      "HighBit": 15,
      "ImageOrientationPatient": [0.99879098617124, -0.0136687528333, 0.04722002900325, 0.02266571833323, 0.98041761027041, -0.1956209975542],
      "ImagePositionPatient": [-956.97215921212, -940.82504686365, 108.34418066342],
      "ImageType": [
        "ORIGINAL",
        "PRIMARY",
        "M",
        "MB",
        "ND",
        "MOSAIC"
],
      "ImagedNucleus": "1H",
      "ImagingFrequency": 123.196825,
      "InPlanePhaseEncodingDirection": "COL",
      "MRAcquisitionType": "2D",
      "MagneticFieldStrength": 3.0,
      "Manufacturer": "SIEMENS",
      "ManufacturerModelName": "Prisma",
      "Modality": "MR",
      "NumberOfAverages": 1.0,
      "NumberOfPhaseEncodingSteps": 104,
      "PercentPhaseFieldOfView": 100.0,
      "PercentSampling": 100.0,
      "PerformedProcedureStepStartTime": "111458.126000",
      "PhotometricInterpretation": "MONOCHROME2",
      "PixelBandwidth": 2290.0,
      "PixelRepresentation": 0,
      "PixelSpacing": [2.0, 2.0],
      "ProtocolName": "cmrr_mbepi_s6_2mm_66sl_PA_task-prf",
      "RepetitionTime": 1000.0,
      "Rows": 936,
      "SAR": 0.09183454342287,
      "SamplesPerPixel": 1,
      "ScanOptions": "FS",
      "ScanningSequence": "EP",
      "SequenceName": "epfid2d1_104",
      "SequenceVariant": [
        "SK",
        "SS"
],
      "SeriesDescription": "cmrr_mbepi_s6_2mm_66sl_PA_task-prf",
      "SeriesNumber": 27,
      "SeriesTime": "121349.515000",
      "SliceLocation": -36.957362927095,
      "SliceThickness": 2.0,
      "SmallestImagePixelValue": 0,
      "SoftwareVersions": "syngo MR E11",
      "SpacingBetweenSlices": 1.999999945464,
      "SpecificCharacterSet": "ISO_IR 100",
      "StudyID": "1",
      "StudyTime": "111458.052000",
      "TransmitCoilName": "Body",
      "VariableFlipAngleFlag": "N",
      "WindowCenterWidthExplanation": "Algo1",
      "dBdt": 0.0},
    "slices": {}
  },
  "time": {
    "samples": {
      "AcquisitionNumber": [1, 2, 3, 4, 5, 6, 7, 8, 9, 10, 11, 12, 13, 14, 15, 16, 17, 18, 19, 20, 21, 22, 23, 24, 25, 26, 27, 28, 29, 30, 31, 32, 33, 34, 35, 36, 37, 38, 39, 40, 41, 42, 43, 44, 45, 46, 47, 48, 49, 50, 51, 52, 53, 54, 55, 56, 57, 58, 59, 60, 61, 62, 63, 64, 65, 66, 67, 68, 69, 70, 71, 72, 73, 74, 75, 76, 77, 78, 79, 80, 81, 82, 83, 84, 85, 86, 87, 88, 89, 90, 91, 92, 93, 94, 95, 96, 97, 98, 99, 100, 101, 102, 103, 104, 105, 106, 107, 108, 109, 110, 111, 112, 113, 114, 115, 116, 117, 118, 119, 120, 121, 122, 123, 124, 125, 126, 127, 128, 129, 130, 131, 132, 133, 134, 135, 136, 137, 138, 139, 140, 141, 142, 143, 144, 145, 146, 147, 148, 149, 150, 151, 152, 153, 154, 155, 156, 157, 158, 159, 160, 161, 162, 163, 164, 165, 166, 167, 168, 169, 170, 171, 172, 173, 174, 175, 176, 177, 178, 179, 180, 181, 182, 183, 184, 185, 186, 187, 188, 189, 190, 191, 192],
      "AcquisitionTime": ["121238.520000", "121239.520000", "121240.520000", "121241.520000", "121242.520000", "121243.520000", "121244.520000", "121245.520000", "121246.520000", "121247.520000", "121248.520000", "121249.520000", "121250.520000", "121251.520000", "121252.520000", "121253.520000", "121254.520000", "121255.520000", "121256.520000", "121257.520000", "121258.520000", "121259.520000", "121300.520000", "121301.520000", "121302.520000", "121303.520000", "121304.520000", "121305.520000", "121306.520000", "121307.520000", "121308.520000", "121309.520000", "121310.520000", "121311.520000", "121312.520000", "121313.520000", "121314.520000", "121315.520000", "121316.520000", "121317.520000", "121318.520000", "121319.520000", "121320.520000", "121321.520000", "121322.520000", "121323.520000", "121324.520000", "121325.520000", "121326.520000", "121327.520000", "121328.520000", "121329.520000", "121330.520000", "121331.520000", "121332.520000", "121333.520000", "121334.520000", "121335.520000", "121336.520000", "121337.520000", "121338.520000", "121339.520000", "121340.520000", "121341.520000", "121342.520000", "121343.520000", "121344.520000", "121345.520000", "121346.520000", "121347.520000", "121348.520000", "121349.520000", "121350.520000", "121351.520000", "121352.520000", "121353.520000", "121354.520000", "121355.520000", "121356.520000", "121357.520000", "121358.520000", "121359.520000", "121400.520000", "121401.520000", "121402.520000", "121403.520000", "121404.520000", "121405.520000", "121406.520000", "121407.520000", "121408.520000", "121409.520000", "121410.520000", "121411.520000", "121412.520000", "121413.520000", "121414.520000", "121415.520000", "121416.520000", "121417.520000", "121418.520000", "121419.520000", "121420.520000", "121421.520000", "121422.520000", "121423.520000", "121424.520000", "121425.520000", "121426.520000", "121427.520000", "121428.520000", "121429.520000", "121430.520000", "121431.520000", "121432.520000", "121433.520000", "121434.520000", "121435.520000", "121436.520000", "121437.520000", "121438.520000", "121439.520000", "121440.520000", "121441.520000", "121442.520000", "121443.520000", "121444.520000", "121445.520000", "121446.520000", "121447.520000", "121448.520000", "121449.520000", "121450.520000", "121451.520000", "121452.520000", "121453.520000", "121454.520000", "121455.520000", "121456.520000", "121457.520000", "121458.520000", "121459.520000", "121500.520000", "121501.520000", "121502.520000", "121503.520000", "121504.520000", "121505.520000", "121506.520000", "121507.520000", "121508.520000", "121509.520000", "121510.520000", "121511.520000", "121512.520000", "121513.520000", "121514.520000", "121515.520000", "121516.520000", "121517.520000", "121518.520000", "121519.520000", "121520.520000", "121521.520000", "121522.520000", "121523.520000", "121524.520000", "121525.520000", "121526.520000", "121527.520000", "121528.520000", "121529.520000", "121530.520000", "121531.520000", "121532.520000", "121533.520000", "121534.520000", "121535.520000", "121536.520000", "121537.520000", "121538.520000", "121539.520000", "121540.520000", "121541.520000", "121542.520000", "121543.520000", "121544.520000", "121545.520000", "121546.520000", "121547.520000", "121548.520000", "121549.520000"],
      "ContentTime": ["121349.518000", "121349.521000", "121349.529000", "121349.532000", "121349.535000", "121349.538000", "121349.541000", "121349.544000", "121349.547000", "121349.550000", "121349.553000", "121349.566000", "121349.569000", "121349.572000", "121349.575000", "121349.578000", "121349.581000", "121349.591000", "121349.594000", "121349.597000", "121349.600000", "121349.603000", "121349.606000", "121349.609000", "121349.612000", "121349.615000", "121349.618000", "121349.621000", "121349.624000", "121349.627000", "121349.630000", "121409.467000", "121409.470000", "121409.473000", "121409.476000", "121409.479000", "121409.482000", "121409.486000", "121409.489000", "121409.492000", "121409.495000", "121409.498000", "121409.501000", "121409.504000", "121409.507000", "121409.510000", "121409.513000", "121409.516000", "121409.519000", "121409.531000", "121409.534000", "121409.537000", "121409.540000", "121409.543000", "121409.546000", "121409.549000", "121409.552000", "121409.555000", "121409.559000", "121429.467000", "121429.470000", "121429.473000", "121429.476000", "121429.479000", "121429.482000", "121429.485000", "121429.489000", "121429.492000", "121429.495000", "121429.498000", "121429.501000", "121429.504000", "121429.507000", "121429.510000", "121429.513000", "121429.516000", "121429.519000", "121429.522000", "121429.525000", "121429.528000", "121429.531000", "121429.534000", "121429.537000", "121429.540000", "121429.543000", "121429.546000", "121429.549000", "121429.553000", "121449.467000", "121449.470000", "121449.473000", "121449.476000", "121449.479000", "121449.482000", "121449.485000", "121449.489000", "121449.492000", "121449.495000", "121449.498000", "121449.507000", "121449.510000", "121449.513000", "121449.516000", "121449.519000", "121449.522000", "121449.525000", "121449.528000", "121449.531000", "121449.534000", "121449.537000", "121449.540000", "121449.543000", "121449.546000", "121449.549000", "121449.552000", "121449.555000", "121509.467000", "121509.470000", "121509.473000", "121509.476000", "121509.479000", "121509.482000", "121509.485000", "121509.489000", "121509.492000", "121509.495000", "121509.497000", "121509.501000", "121509.504000", "121509.507000", "121509.510000", "121509.513000", "121509.516000", "121509.519000", "121509.522000", "121509.525000", "121509.528000", "121509.531000", "121509.534000", "121509.537000", "121509.540000", "121509.543000", "121509.546000", "121509.549000", "121529.467000", "121529.470000", "121529.473000", "121529.476000", "121529.479000", "121529.482000", "121529.485000", "121529.489000", "121529.492000", "121529.495000", "121529.503000", "121529.506000", "121529.509000", "121529.512000", "121529.515000", "121529.518000", "121529.521000", "121529.524000", "121529.527000", "121529.530000", "121529.533000", "121529.542000", "121529.544000", "121529.548000", "121529.551000", "121529.554000", "121549.467000", "121549.470000", "121549.473000", "121549.476000", "121549.479000", "121549.483000", "121549.486000", "121549.488000", "121549.491000", "121549.495000", "121549.498000", "121549.501000", "121549.504000", "121549.507000", "121549.510000", "121549.513000", "121549.516000", "121549.519000", "121549.522000", "121549.525000", "121551.390000", "121551.393000"],
      "InstanceCreationTime": ["121349.518000", "121349.521000", "121349.529000", "121349.532000", "121349.535000", "121349.538000", "121349.541000", "121349.544000", "121349.547000", "121349.550000", "121349.553000", "121349.566000", "121349.569000", "121349.572000", "121349.575000", "121349.578000", "121349.581000", "121349.591000", "121349.594000", "121349.597000", "121349.600000", "121349.603000", "121349.606000", "121349.609000", "121349.612000", "121349.615000", "121349.618000", "121349.621000", "121349.624000", "121349.627000", "121349.630000", "121409.467000", "121409.470000", "121409.473000", "121409.476000", "121409.479000", "121409.482000", "121409.486000", "121409.489000", "121409.492000", "121409.495000", "121409.498000", "121409.501000", "121409.504000", "121409.507000", "121409.510000", "121409.513000", "121409.516000", "121409.519000", "121409.531000", "121409.534000", "121409.537000", "121409.540000", "121409.543000", "121409.546000", "121409.549000", "121409.552000", "121409.555000", "121409.559000", "121429.467000", "121429.470000", "121429.473000", "121429.476000", "121429.479000", "121429.482000", "121429.485000", "121429.489000", "121429.492000", "121429.495000", "121429.498000", "121429.501000", "121429.504000", "121429.507000", "121429.510000", "121429.513000", "121429.516000", "121429.519000", "121429.522000", "121429.525000", "121429.528000", "121429.531000", "121429.534000", "121429.537000", "121429.540000", "121429.543000", "121429.546000", "121429.549000", "121429.553000", "121449.467000", "121449.470000", "121449.473000", "121449.476000", "121449.479000", "121449.482000", "121449.485000", "121449.489000", "121449.492000", "121449.495000", "121449.498000", "121449.507000", "121449.510000", "121449.513000", "121449.516000", "121449.519000", "121449.522000", "121449.525000", "121449.528000", "121449.531000", "121449.534000", "121449.537000", "121449.540000", "121449.543000", "121449.546000", "121449.549000", "121449.552000", "121449.555000", "121509.467000", "121509.470000", "121509.473000", "121509.476000", "121509.479000", "121509.482000", "121509.485000", "121509.489000", "121509.492000", "121509.495000", "121509.497000", "121509.501000", "121509.504000", "121509.507000", "121509.510000", "121509.513000", "121509.516000", "121509.519000", "121509.522000", "121509.525000", "121509.528000", "121509.531000", "121509.534000", "121509.537000", "121509.540000", "121509.543000", "121509.546000", "121509.549000", "121529.467000", "121529.470000", "121529.473000", "121529.476000", "121529.479000", "121529.482000", "121529.485000", "121529.489000", "121529.492000", "121529.495000", "121529.503000", "121529.506000", "121529.509000", "121529.512000", "121529.515000", "121529.518000", "121529.521000", "121529.524000", "121529.527000", "121529.530000", "121529.533000", "121529.542000", "121529.544000", "121529.548000", "121529.551000", "121529.554000", "121549.467000", "121549.470000", "121549.473000", "121549.476000", "121549.479000", "121549.483000", "121549.486000", "121549.488000", "121549.491000", "121549.495000", "121549.498000", "121549.501000", "121549.504000", "121549.507000", "121549.510000", "121549.513000", "121549.516000", "121549.519000", "121549.522000", "121549.525000", "121551.390000", "121551.393000"],
      "InstanceNumber": [1, 2, 3, 4, 5, 6, 7, 8, 9, 10, 11, 12, 13, 14, 15, 16, 17, 18, 19, 20, 21, 22, 23, 24, 25, 26, 27, 28, 29, 30, 31, 32, 33, 34, 35, 36, 37, 38, 39, 40, 41, 42, 43, 44, 45, 46, 47, 48, 49, 50, 51, 52, 53, 54, 55, 56, 57, 58, 59, 60, 61, 62, 63, 64, 65, 66, 67, 68, 69, 70, 71, 72, 73, 74, 75, 76, 77, 78, 79, 80, 81, 82, 83, 84, 85, 86, 87, 88, 89, 90, 91, 92, 93, 94, 95, 96, 97, 98, 99, 100, 101, 102, 103, 104, 105, 106, 107, 108, 109, 110, 111, 112, 113, 114, 115, 116, 117, 118, 119, 120, 121, 122, 123, 124, 125, 126, 127, 128, 129, 130, 131, 132, 133, 134, 135, 136, 137, 138, 139, 140, 141, 142, 143, 144, 145, 146, 147, 148, 149, 150, 151, 152, 153, 154, 155, 156, 157, 158, 159, 160, 161, 162, 163, 164, 165, 166, 167, 168, 169, 170, 171, 172, 173, 174, 175, 176, 177, 178, 179, 180, 181, 182, 183, 184, 185, 186, 187, 188, 189, 190, 191, 192],
      "LargestImagePixelValue": [59085, 57961, 57348, 56410, 55763, 55058, 54714, 55500, 55018, 54371, 54870, 55055, 54500, 54806, 54396, 53492, 54209, 53697, 53830, 53654, 54800, 54367, 54094, 55265, 54289, 53148, 54510, 53983, 54535, 53667, 54113, 53889, 52269, 52964, 53099, 52189, 52495, 53484, 54009, 53520, 52773, 54322, 52656, 53367, 53778, 54443, 54560, 54493, 54313, 55612, 54739, 55016, 54547, 53471, 54363, 53956, 54452, 54282, 54534, 53694, 53887, 54275, 54530, 54498, 54321, 55674, 54302, 53876, 54867, 53350, 52904, 51740, 52879, 53676, 53941, 53459, 53298, 54578, 54681, 53830, 52828, 52144, 52364, 51315, 51538, 52231, 51716, 52670, 52907, 53978, 53845, 52559, 53531, 54958, 53362, 54478, 54298, 53511, 54284, 54635, 54232, 53324, 54220, 55083, 54427, 54551, 55272, 53555, 53456, 53953, 54815, 53429, 53002, 52985, 53603, 53527, 52959, 53112, 54317, 53365, 52216, 52968, 52571, 51557, 52030, 53407, 53063, 52587, 53792, 53386, 51899, 52405, 53110, 53737, 53154, 54450, 54504, 53515, 52944, 53877, 53747, 53711, 53249, 53451, 53546, 52782, 52540, 53596, 52938, 52298, 52540, 53693, 52687, 52522, 53281, 53360, 51679, 51886, 52337, 51997, 51584, 52076, 52109, 51304, 51326, 52079, 52084, 51804, 51467, 52215, 51681, 51387, 51484, 52142, 52208, 51752, 51668, 51978, 52563, 51396, 51803, 50812, 52755, 54046, 51580, 51803, 53017, 52721, 52968, 53077, 52942, 52987],
      "WindowCenter": [10627.0, 10579.0, 10550.0, 10534.0, 10520.0, 10514.0, 10509.0, 10513.0, 10518.0, 10514.0, 10522.0, 10528.0, 10522.0, 10521.0, 10516.0, 10503.0, 10506.0, 10512.0, 10507.0, 10516.0, 10528.0, 10523.0, 10508.0, 10506.0, 10494.0, 10481.0, 10504.0, 10513.0, 10513.0, 10508.0, 10500.0, 10484.0, 10469.0, 10480.0, 10496.0, 10486.0, 10480.0, 10485.0, 10489.0, 10475.0, 10472.0, 10494.0, 10490.0, 10509.0, 10518.0, 10522.0, 10513.0, 10492.0, 10481.0, 10475.0, 10463.0, 10473.0, 10478.0, 10496.0, 10515.0, 10512.0, 10495.0, 10477.0, 10461.0, 10452.0, 10454.0, 10472.0, 10487.0, 10495.0, 10496.0, 10509.0, 10507.0, 10499.0, 10505.0, 10489.0, 10477.0, 10466.0, 10484.0, 10500.0, 10494.0, 10488.0, 10485.0, 10491.0, 10488.0, 10479.0, 10476.0, 10457.0, 10458.0, 10442.0, 10447.0, 10469.0, 10468.0, 10482.0, 10491.0, 10498.0, 10478.0, 10461.0, 10457.0, 10489.0, 10477.0, 10482.0, 10494.0, 10485.0, 10489.0, 10495.0, 10488.0, 10480.0, 10489.0, 10502.0, 10493.0, 10492.0, 10497.0, 10482.0, 10479.0, 10476.0, 10485.0, 10475.0, 10475.0, 10482.0, 10493.0, 10486.0, 10480.0, 10472.0, 10479.0, 10469.0, 10455.0, 10465.0, 10473.0, 10481.0, 10504.0, 10517.0, 10513.0, 10491.0, 10480.0, 10471.0, 10456.0, 10459.0, 10471.0, 10486.0, 10470.0, 10498.0, 10492.0, 10486.0, 10475.0, 10478.0, 10470.0, 10461.0, 10451.0, 10442.0, 10446.0, 10436.0, 10450.0, 10472.0, 10490.0, 10489.0, 10489.0, 10488.0, 10472.0, 10462.0, 10464.0, 10464.0, 10444.0, 10452.0, 10468.0, 10464.0, 10459.0, 10454.0, 10445.0, 10429.0, 10427.0, 10436.0, 10442.0, 10452.0, 10455.0, 10459.0, 10447.0, 10440.0, 10434.0, 10427.0, 10432.0, 10434.0, 10431.0, 10438.0, 10450.0, 10449.0, 10456.0, 10442.0, 10448.0, 10459.0, 10455.0, 10478.0, 10493.0, 10484.0, 10479.0, 10445.0, 10452.0, 10454.0],
      "WindowWidth": [22953.0, 22806.0, 22718.0, 22669.0, 22633.0, 22620.0, 22609.0, 22614.0, 22627.0, 22620.0, 22636.0, 22652.0, 22641.0, 22637.0, 22625.0, 22592.0, 22594.0, 22607.0, 22601.0, 22626.0, 22650.0, 22641.0, 22601.0, 22588.0, 22563.0, 22542.0, 22591.0, 22613.0, 22614.0, 22601.0, 22580.0, 22541.0, 22510.0, 22534.0, 22577.0, 22560.0, 22547.0, 22553.0, 22557.0, 22525.0, 22520.0, 22562.0, 22562.0, 22609.0, 22629.0, 22632.0, 22606.0, 22560.0, 22531.0, 22512.0, 22487.0, 22511.0, 22525.0, 22577.0, 22614.0, 22606.0, 22565.0, 22517.0, 22477.0, 22464.0, 22473.0, 22515.0, 22552.0, 22576.0, 22580.0, 22607.0, 22606.0, 22592.0, 22600.0, 22563.0, 22538.0, 22516.0, 22555.0, 22584.0, 22572.0, 22556.0, 22548.0, 22560.0, 22550.0, 22533.0, 22529.0, 22486.0, 22483.0, 22450.0, 22460.0, 22506.0, 22508.0, 22537.0, 22560.0, 22565.0, 22518.0, 22482.0, 22475.0, 22543.0, 22524.0, 22531.0, 22560.0, 22543.0, 22548.0, 22558.0, 22544.0, 22530.0, 22548.0, 22577.0, 22562.0, 22561.0, 22568.0, 22539.0, 22530.0, 22519.0, 22536.0, 22516.0, 22519.0, 22534.0, 22557.0, 22545.0, 22532.0, 22514.0, 22523.0, 22502.0, 22474.0, 22495.0, 22516.0, 22546.0, 22603.0, 22632.0, 22621.0, 22569.0, 22532.0, 22508.0, 22479.0, 22486.0, 22515.0, 22544.0, 22510.0, 22575.0, 22555.0, 22536.0, 22515.0, 22519.0, 22500.0, 22484.0, 22465.0, 22443.0, 22451.0, 22433.0, 22469.0, 22518.0, 22563.0, 22565.0, 22563.0, 22552.0, 22516.0, 22494.0, 22494.0, 22493.0, 22460.0, 22480.0, 22511.0, 22508.0, 22495.0, 22479.0, 22456.0, 22424.0, 22419.0, 22435.0, 22443.0, 22467.0, 22477.0, 22483.0, 22452.0, 22434.0, 22419.0, 22406.0, 22417.0, 22427.0, 22422.0, 22438.0, 22464.0, 22466.0, 22480.0, 22447.0, 22455.0, 22472.0, 22471.0, 22520.0, 22553.0, 22539.0, 22521.0, 22443.0, 22453.0, 22456.0]
    },
    "slices": {}
  }
}