{
  "AcquisitionMatrixPE": 104,
  "AcquisitionNumber": 1,
  "AcquisitionTime": "14:31:33.727500",
  "BandwidthPerPixelPhaseEncode": 16.297,
  "BaseResolution": 104,
  "BodyPartExamined": "BRAIN",
  "ConsistencyInfo": "N4_VE11C_LATEST_20160120",
  "ConversionSoftware": "dcm2niix",
  "ConversionSoftwareVersion": "v1.0.20210317",
  "DerivedVendorReportedEchoSpacing": 0.000590009,
  "DeviceSerialNumber": "166018",
  "DwellTime": 2.1e-06,
  "EchoTime": 0.0376,
  "EchoTrainLength": 104,
  "EffectiveEchoSpacing": 0.000590009,
  "FlipAngle": 68,
  "ImageComments": "Unaliased MB6/PE3/LB",
  "ImageOrientationPatientDICOM": [0.996772, 0.0758563, 0.0262909, -0.0632355, 0.943585, -0.325035],
  "ImageType": [
    "ORIGINAL",
    "PRIMARY",
    "M",
    "MB",
    "ND",
    "MOSAIC"
],
  "ImagingFrequency": 123.197,
  "InPlanePhaseEncodingDirectionDICOM": "COL",
  "InstitutionAddress": "Washington Place 6,NYC,NYC,US,10003",
  "InstitutionName": "NYU - CBI",
  "InstitutionalDepartmentName": "Department",
  "MRAcquisitionType": "2D",
  "MagneticFieldStrength": 3,
  "Manufacturer": "Siemens",
  "ManufacturersModelName": "Prisma",
  "Modality": "MR",
  "MultibandAccelerationFactor": 6,
  "PartialFourier": 1,
  "PatientPosition": "HFS",
  "PercentPhaseFOV": 100,
  "PercentSampling": 100,
  "PhaseEncodingDirection": "j",
  "PhaseEncodingSteps": 104,
  "PhaseResolution": 1,
  "PixelBandwidth": 2290,
  "ProcedureStepDescription": "Investigators^Winawer",
  "ProtocolName": "cmrr_mbepi_s6_2mm_66sl_PA_task-bar1",
  "PulseSequenceDetails": "%CustomerSeq%\\cmrr_mbep2d_bold",
  "ReceiveCoilActiveElements": "HC1-7",
  "ReceiveCoilName": "HeadNeck_64",
  "ReconMatrixPE": 104,
  "RepetitionTime": 1,
  "SAR": 0.0957088,
  "ScanOptions": "FS",
  "ScanningSequence": "EP",
  "SequenceName": "epfid2d1_104",
  "SequenceVariant": "SK\\SS",
  "SeriesDescription": "cmrr_mbepi_s6_2mm_66sl_PA_task-bar1",
  "SeriesNumber": 8,
  "ShimSetting": [288, -12654, -8449, 331, 31, -124, -218, 20],
  "SliceThickness": 2,
  "SliceTiming": [0, 0.535, 0.09, 0.6225, 0.1775, 0.7125, 0.2675, 0.8025, 0.3575, 0.89, 0.445, 0, 0.535, 0.09, 0.6225, 0.1775, 0.7125, 0.2675, 0.8025, 0.3575, 0.89, 0.445, 0, 0.535, 0.09, 0.6225, 0.1775, 0.7125, 0.2675, 0.8025, 0.3575, 0.89, 0.445, 0, 0.535, 0.09, 0.6225, 0.1775, 0.7125, 0.2675, 0.8025, 0.3575, 0.89, 0.445, 0, 0.535, 0.09, 0.6225, 0.1775, 0.7125, 0.2675, 0.8025, 0.3575, 0.89, 0.445, 0, 0.535, 0.09, 0.6225, 0.1775, 0.7125, 0.2675, 0.8025, 0.3575, 0.89, 0.445],
  "SoftwareVersions": "syngo MR E11",
  "SpacingBetweenSlices": 2,
  "StationName": "AWP166018",
  "TaskName": "bar1",
  "TotalReadoutTime": 0.060771,
  "TxRefAmp": 249.756,
  "VendorReportedEchoSpacing": 0.00059,
  "WipMemBlock": "6e81d5df-6c65-4a2b-8c59-1deeb42b277d||Sequence: R016 ve11c/master r/8780670; Nov 27 2017 15:05:12 by eja",
  "dcmmeta_affine": [
    [-1.9935442209243774, -0.12647105753421783, 0.098927341401577, 111.25215911865234],
    [-0.1517125517129898, 1.8871707916259766, -0.6446468234062195, -52.29086685180664],
    [0.05258180946111679, 0.6500702500343323, 1.8906728029251099, -69.79417419433594],
    [0.0, 0.0, 0.0, 1.0]
],
  "dcmmeta_reorient_transform": [
    [0.0, -1.0, 0.0, 103.0],
    [1.0, 0.0, 0.0, 0.0],
    [0.0, 0.0, 1.0, 0.0],
    [0.0, 0.0, 0.0, 1.0]
],
  "dcmmeta_shape": [104, 104, 66, 300],
  "dcmmeta_slice_dim": 2,
  "dcmmeta_version": 0.6,
  "global": {
    "const": {
      "AccessionNumber": "Lexd0wxp",
      "AcquisitionMatrix": [104, 0, 0, 104],
      "AngioFlag": "N",
      "BitsAllocated": 16,
      "BitsStored": 16,
      "BodyPartExamined": "BRAIN",
      "Columns": 936,
      "EchoNumbers": 1,
      "EchoTime": 37.6,
      "EchoTrainLength": 104,
      "FlipAngle": 68.0,
      "HighBit": 15,
      "ImageOrientationPatient": [0.99677209696708, 0.07585627863573, 0.02629090526008, -0.063235528105, 0.94358541156218, -0.3250351351351],
      "ImagePositionPatient": [-874.92806574568, -990.26321410898, 245.71826523971],
      "ImageType": [
        "ORIGINAL",
        "PRIMARY",
        "M",
        "MB",
        "ND",
        "MOSAIC"
],
      "ImagedNucleus": "1H",
      "ImagingFrequency": 123.19679,
      "InPlanePhaseEncodingDirection": "COL",
      "MRAcquisitionType": "2D",
      "MagneticFieldStrength": 3.0,
      "Manufacturer": "SIEMENS",
      "ManufacturerModelName": "Prisma",
      "Modality": "MR",
      "NumberOfAverages": 1.0,
      "NumberOfPhaseEncodingSteps": 104,
      "PercentPhaseFieldOfView": 100.0,
      "PercentSampling": 100.0,
      "PerformedProcedureStepStartTime": "141233.009000",
      "PhotometricInterpretation": "MONOCHROME2",
      "PixelBandwidth": 2290.0,
      "PixelRepresentation": 0,
      "PixelSpacing": [2.0, 2.0],
      "ProtocolName": "cmrr_mbepi_s6_2mm_66sl_PA_task-bar1",
      "RepetitionTime": 1000.0,
      "Rows": 936,
      "SAR": 0.09570885009109,
      "SamplesPerPixel": 1,
      "ScanOptions": "FS",
      "ScanningSequence": "EP",
      "SequenceName": "epfid2d1_104",
      "SequenceVariant": [
        "SK",
        "SS"
],
      "SeriesDescription": "cmrr_mbepi_s6_2mm_66sl_PA_task-bar1",
      "SeriesNumber": 8,
      "SeriesTime": "143244.697000",
      "SliceLocation": -43.621460710853,
      "SliceThickness": 2.0,
      "SmallestImagePixelValue": 0,
      "SoftwareVersions": "syngo MR E11",
      "SpacingBetweenSlices": 1.999999936597,
      "SpecificCharacterSet": "ISO_IR 100",
      "StudyID": "1",
      "StudyTime": "141232.945000",
      "TransmitCoilName": "Body",
      "VariableFlipAngleFlag": "N",
      "WindowCenterWidthExplanation": "Algo1",
      "dBdt": 0.0},
    "slices": {}
  },
  "time": {
    "samples": {
      "AcquisitionNumber": [1, 2, 3, 4, 5, 6, 7, 8, 9, 10, 11, 12, 13, 14, 15, 16, 17, 18, 19, 20, 21, 22, 23, 24, 25, 26, 27, 28, 29, 30, 31, 32, 33, 34, 35, 36, 37, 38, 39, 40, 41, 42, 43, 44, 45, 46, 47, 48, 49, 50, 51, 52, 53, 54, 55, 56, 57, 58, 59, 60, 61, 62, 63, 64, 65, 66, 67, 68, 69, 70, 71, 72, 73, 74, 75, 76, 77, 78, 79, 80, 81, 82, 83, 84, 85, 86, 87, 88, 89, 90, 91, 92, 93, 94, 95, 96, 97, 98, 99, 100, 101, 102, 103, 104, 105, 106, 107, 108, 109, 110, 111, 112, 113, 114, 115, 116, 117, 118, 119, 120, 121, 122, 123, 124, 125, 126, 127, 128, 129, 130, 131, 132, 133, 134, 135, 136, 137, 138, 139, 140, 141, 142, 143, 144, 145, 146, 147, 148, 149, 150, 151, 152, 153, 154, 155, 156, 157, 158, 159, 160, 161, 162, 163, 164, 165, 166, 167, 168, 169, 170, 171, 172, 173, 174, 175, 176, 177, 178, 179, 180, 181, 182, 183, 184, 185, 186, 187, 188, 189, 190, 191, 192, 193, 194, 195, 196, 197, 198, 199, 200, 201, 202, 203, 204, 205, 206, 207, 208, 209, 210, 211, 212, 213, 214, 215, 216, 217, 218, 219, 220, 221, 222, 223, 224, 225, 226, 227, 228, 229, 230, 231, 232, 233, 234, 235, 236, 237, 238, 239, 240, 241, 242, 243, 244, 245, 246, 247, 248, 249, 250, 251, 252, 253, 254, 255, 256, 257, 258, 259, 260, 261, 262, 263, 264, 265, 266, 267, 268, 269, 270, 271, 272, 273, 274, 275, 276, 277, 278, 279, 280, 281, 282, 283, 284, 285, 286, 287, 288, 289, 290, 291, 292, 293, 294, 295, 296, 297, 298, 299, 300],
      "AcquisitionTime": ["143133.727500", "143134.727500", "143135.727500", "143136.727500", "143137.727500", "143138.727500", "143139.727500", "143140.727500", "143141.727500", "143142.727500", "143143.727500", "143144.727500", "143145.727500", "143146.727500", "143147.727500", "143148.727500", "143149.727500", "143150.727500", "143151.727500", "143152.727500", "143153.727500", "143154.727500", "143155.727500", "143156.727500", "143157.727500", "143158.727500", "143159.727500", "143200.727500", "143201.727500", "143202.727500", "143203.727500", "143204.727500", "143205.727500", "143206.727500", "143207.727500", "143208.727500", "143209.727500", "143210.727500", "143211.727500", "143212.727500", "143213.727500", "143214.727500", "143215.727500", "143216.727500", "143217.727500", "143218.727500", "143219.727500", "143220.727500", "143221.727500", "143222.727500", "143223.727500", "143224.727500", "143225.727500", "143226.727500", "143227.727500", "143228.727500", "143229.727500", "143230.727500", "143231.727500", "143232.727500", "143233.727500", "143234.727500", "143235.727500", "143236.727500", "143237.727500", "143238.727500", "143239.727500", "143240.727500", "143241.727500", "143242.727500", "143243.727500", "143244.727500", "143245.727500", "143246.727500", "143247.727500", "143248.727500", "143249.727500", "143250.727500", "143251.727500", "143252.727500", "143253.727500", "143254.727500", "143255.727500", "143256.727500", "143257.727500", "143258.727500", "143259.727500", "143300.727500", "143301.727500", "143302.727500", "143303.727500", "143304.727500", "143305.727500", "143306.727500", "143307.727500", "143308.727500", "143309.727500", "143310.727500", "143311.727500", "143312.727500", "143313.727500", "143314.727500", "143315.727500", "143316.727500", "143317.727500", "143318.727500", "143319.727500", "143320.727500", "143321.727500", "143322.727500", "143323.727500", "143324.727500", "143325.727500", "143326.727500", "143327.727500", "143328.727500", "143329.727500", "143330.727500", "143331.727500", "143332.727500", "143333.727500", "143334.727500", "143335.727500", "143336.727500", "143337.727500", "143338.727500", "143339.727500", "143340.727500", "143341.727500", "143342.727500", "143343.727500", "143344.727500", "143345.727500", "143346.727500", "143347.727500", "143348.727500", "143349.727500", "143350.727500", "143351.727500", "143352.727500", "143353.727500", "143354.727500", "143355.727500", "143356.727500", "143357.727500", "143358.727500", "143359.727500", "143400.727500", "143401.727500", "143402.727500", "143403.727500", "143404.727500", "143405.727500", "143406.727500", "143407.727500", "143408.727500", "143409.727500", "143410.727500", "143411.727500", "143412.727500", "143413.727500", "143414.727500", "143415.727500", "143416.727500", "143417.727500", "143418.727500", "143419.727500", "143420.727500", "143421.727500", "143422.727500", "143423.727500", "143424.727500", "143425.727500", "143426.727500", "143427.727500", "143428.727500", "143429.727500", "143430.727500", "143431.727500", "143432.727500", "143433.727500", "143434.727500", "143435.727500", "143436.727500", "143437.727500", "143438.727500", "143439.727500", "143440.727500", "143441.727500", "143442.727500", "143443.727500", "143444.727500", "143445.727500", "143446.727500", "143447.727500", "143448.727500", "143449.727500", "143450.727500", "143451.727500", "143452.727500", "143453.727500", "143454.727500", "143455.727500", "143456.727500", "143457.727500", "143458.727500", "143459.727500", "143500.727500", "143501.727500", "143502.727500", "143503.727500", "143504.727500", "143505.727500", "143506.727500", "143507.727500", "143508.727500", "143509.727500", "143510.727500", "143511.727500", "143512.727500", "143513.727500", "143514.727500", "143515.727500", "143516.727500", "143517.727500", "143518.727500", "143519.727500", "143520.727500", "143521.727500", "143522.727500", "143523.727500", "143524.727500", "143525.727500", "143526.727500", "143527.727500", "143528.727500", "143529.727500", "143530.727500", "143531.727500", "143532.727500", "143533.727500", "143534.727500", "143535.727500", "143536.727500", "143537.727500", "143538.727500", "143539.727500", "143540.727500", "143541.727500", "143542.727500", "143543.727500", "143544.727500", "143545.727500", "143546.727500", "143547.727500", "143548.727500", "143549.727500", "143550.727500", "143551.727500", "143552.727500", "143553.727500", "143554.727500", "143555.727500", "143556.727500", "143557.727500", "143558.727500", "143559.727500", "143600.727500", "143601.727500", "143602.727500", "143603.727500", "143604.727500", "143605.727500", "143606.727500", "143607.727500", "143608.727500", "143609.727500", "143610.727500", "143611.727500", "143612.727500", "143613.727500", "143614.727500", "143615.727500", "143616.727500", "143617.727500", "143618.727500", "143619.727500", "143620.727500", "143621.727500", "143622.727500", "143623.727500", "143624.727500", "143625.727500", "143626.727500", "143627.727500", "143628.727500", "143629.727500", "143630.727500", "143631.727500", "143632.727500"],
      "ContentTime": ["143244.700000", "143244.703000", "143244.706000", "143244.709000", "143244.712000", "143244.715000", "143244.718000", "143244.721000", "143244.724000", "143244.726000", "143244.729000", "143244.742000", "143244.745000", "143244.748000", "143244.751000", "143244.754000", "143244.757000", "143244.760000", "143244.763000", "143244.766000", "143244.768000", "143244.771000", "143244.774000", "143244.778000", "143244.781000", "143244.783000", "143244.786000", "143244.789000", "143244.792000", "143304.698000", "143304.701000", "143304.704000", "143304.707000", "143304.710000", "143304.713000", "143304.716000", "143304.719000", "143304.722000", "143304.725000", "143304.728000", "143304.731000", "143304.734000", "143304.737000", "143304.739000", "143304.742000", "143304.745000", "143304.748000", "143304.751000", "143304.760000", "143304.763000", "143304.766000", "143304.769000", "143304.772000", "143304.775000", "143304.778000", "143304.781000", "143304.784000", "143324.698000", "143324.701000", "143324.704000", "143324.707000", "143324.710000", "143324.713000", "143324.716000", "143324.719000", "143324.731000", "143324.734000", "143324.737000", "143324.740000", "143324.743000", "143324.746000", "143324.749000", "143324.752000", "143324.755000", "143324.758000", "143324.761000", "143324.764000", "143324.767000", "143324.770000", "143324.773000", "143324.776000", "143324.779000", "143324.782000", "143324.785000", "143324.788000", "143324.791000", "143344.698000", "143344.701000", "143344.704000", "143344.707000", "143344.710000", "143344.713000", "143344.716000", "143344.719000", "143344.722000", "143344.725000", "143344.728000", "143344.731000", "143344.734000", "143344.737000", "143344.740000", "143344.743000", "143344.746000", "143344.749000", "143344.751000", "143344.754000", "143344.757000", "143344.760000", "143344.763000", "143344.766000", "143344.769000", "143344.772000", "143344.775000", "143344.778000", "143404.698000", "143404.701000", "143404.704000", "143404.707000", "143404.710000", "143404.713000", "143404.716000", "143404.719000", "143404.722000", "143404.725000", "143404.728000", "143404.731000", "143404.734000", "143404.737000", "143404.740000", "143404.743000", "143404.746000", "143404.749000", "143404.752000", "143404.755000", "143404.758000", "143404.761000", "143404.764000", "143404.767000", "143404.770000", "143404.773000", "143404.776000", "143404.779000", "143424.698000", "143424.701000", "143424.704000", "143424.707000", "143424.710000", "143424.713000", "143424.716000", "143424.719000", "143424.722000", "143424.725000", "143424.728000", "143424.731000", "143424.743000", "143424.746000", "143424.749000", "143424.752000", "143424.755000", "143424.758000", "143424.761000", "143424.764000", "143424.767000", "143424.770000", "143424.773000", "143424.776000", "143424.779000", "143424.782000", "143424.785000", "143424.788000", "143444.699000", "143444.702000", "143444.705000", "143444.708000", "143444.711000", "143444.714000", "143444.717000", "143444.720000", "143444.723000", "143444.726000", "143444.729000", "143444.732000", "143444.735000", "143444.738000", "143444.741000", "143444.744000", "143444.747000", "143444.750000", "143444.753000", "143444.756000", "143504.698000", "143504.701000", "143504.704000", "143504.725000", "143504.728000", "143504.731000", "143504.733000", "143504.736000", "143504.739000", "143504.742000", "143504.745000", "143504.748000", "143504.751000", "143504.754000", "143504.757000", "143504.760000", "143504.763000", "143504.766000", "143504.769000", "143504.772000", "143524.698000", "143524.701000", "143524.704000", "143524.707000", "143524.710000", "143524.713000", "143524.716000", "143524.719000", "143524.722000", "143524.725000", "143524.728000", "143524.731000", "143524.734000", "143524.737000", "143524.740000", "143524.743000", "143524.746000", "143524.749000", "143524.752000", "143524.755000", "143544.698000", "143544.701000", "143544.704000", "143544.707000", "143544.710000", "143544.713000", "143544.716000", "143544.719000", "143544.722000", "143544.725000", "143544.728000", "143544.731000", "143544.734000", "143544.746000", "143544.749000", "143544.752000", "143544.755000", "143544.758000", "143544.761000", "143544.764000", "143604.698000", "143604.701000", "143604.704000", "143604.707000", "143604.710000", "143604.713000", "143604.716000", "143604.719000", "143604.722000", "143604.725000", "143604.728000", "143604.731000", "143604.734000", "143604.737000", "143604.740000", "143604.743000", "143604.746000", "143604.749000", "143604.752000", "143604.755000", "143624.698000", "143624.701000", "143624.704000", "143624.707000", "143624.710000", "143624.713000", "143624.716000", "143624.719000", "143624.722000", "143624.725000", "143624.728000", "143624.740000", "143624.743000", "143624.745000", "143624.748000", "143624.751000", "143624.754000", "143624.757000", "143624.760000", "143624.763000", "143634.201000", "143634.204000", "143634.207000", "143634.210000", "143634.213000", "143634.216000", "143634.219000", "143634.222000", "143634.225000", "143634.228000"],
      "InstanceCreationTime": ["143244.700000", "143244.703000", "143244.706000", "143244.709000", "143244.712000", "143244.715000", "143244.718000", "143244.721000", "143244.724000", "143244.726000", "143244.729000", "143244.742000", "143244.745000", "143244.748000", "143244.751000", "143244.754000", "143244.757000", "143244.760000", "143244.763000", "143244.766000", "143244.768000", "143244.771000", "143244.774000", "143244.778000", "143244.781000", "143244.783000", "143244.786000", "143244.789000", "143244.792000", "143304.698000", "143304.701000", "143304.704000", "143304.707000", "143304.710000", "143304.713000", "143304.716000", "143304.719000", "143304.722000", "143304.725000", "143304.728000", "143304.731000", "143304.734000", "143304.737000", "143304.739000", "143304.742000", "143304.745000", "143304.748000", "143304.751000", "143304.760000", "143304.763000", "143304.766000", "143304.769000", "143304.772000", "143304.775000", "143304.778000", "143304.781000", "143304.784000", "143324.698000", "143324.701000", "143324.704000", "143324.707000", "143324.710000", "143324.713000", "143324.716000", "143324.719000", "143324.731000", "143324.734000", "143324.737000", "143324.740000", "143324.743000", "143324.746000", "143324.749000", "143324.752000", "143324.755000", "143324.758000", "143324.761000", "143324.764000", "143324.767000", "143324.770000", "143324.773000", "143324.776000", "143324.779000", "143324.782000", "143324.785000", "143324.788000", "143324.791000", "143344.698000", "143344.701000", "143344.704000", "143344.707000", "143344.710000", "143344.713000", "143344.716000", "143344.719000", "143344.722000", "143344.725000", "143344.728000", "143344.731000", "143344.734000", "143344.737000", "143344.740000", "143344.743000", "143344.746000", "143344.749000", "143344.751000", "143344.754000", "143344.757000", "143344.760000", "143344.763000", "143344.766000", "143344.769000", "143344.772000", "143344.775000", "143344.778000", "143404.698000", "143404.701000", "143404.704000", "143404.707000", "143404.710000", "143404.713000", "143404.716000", "143404.719000", "143404.722000", "143404.725000", "143404.728000", "143404.731000", "143404.734000", "143404.737000", "143404.740000", "143404.743000", "143404.746000", "143404.749000", "143404.752000", "143404.755000", "143404.758000", "143404.761000", "143404.764000", "143404.767000", "143404.770000", "143404.773000", "143404.776000", "143404.779000", "143424.698000", "143424.701000", "143424.704000", "143424.707000", "143424.710000", "143424.713000", "143424.716000", "143424.719000", "143424.722000", "143424.725000", "143424.728000", "143424.731000", "143424.743000", "143424.746000", "143424.749000", "143424.752000", "143424.755000", "143424.758000", "143424.761000", "143424.764000", "143424.767000", "143424.770000", "143424.773000", "143424.776000", "143424.779000", "143424.782000", "143424.785000", "143424.788000", "143444.699000", "143444.702000", "143444.705000", "143444.708000", "143444.711000", "143444.714000", "143444.717000", "143444.720000", "143444.723000", "143444.726000", "143444.729000", "143444.732000", "143444.735000", "143444.738000", "143444.741000", "143444.744000", "143444.747000", "143444.750000", "143444.753000", "143444.756000", "143504.698000", "143504.701000", "143504.704000", "143504.725000", "143504.728000", "143504.731000", "143504.733000", "143504.736000", "143504.739000", "143504.742000", "143504.745000", "143504.748000", "143504.751000", "143504.754000", "143504.757000", "143504.760000", "143504.763000", "143504.766000", "143504.769000", "143504.772000", "143524.698000", "143524.701000", "143524.704000", "143524.707000", "143524.710000", "143524.713000", "143524.716000", "143524.719000", "143524.722000", "143524.725000", "143524.728000", "143524.731000", "143524.734000", "143524.737000", "143524.740000", "143524.743000", "143524.746000", "143524.749000", "143524.752000", "143524.755000", "143544.698000", "143544.701000", "143544.704000", "143544.707000", "143544.710000", "143544.713000", "143544.716000", "143544.719000", "143544.722000", "143544.725000", "143544.728000", "143544.731000", "143544.734000", "143544.746000", "143544.749000", "143544.752000", "143544.755000", "143544.758000", "143544.761000", "143544.764000", "143604.698000", "143604.701000", "143604.704000", "143604.707000", "143604.710000", "143604.713000", "143604.716000", "143604.719000", "143604.722000", "143604.725000", "143604.728000", "143604.731000", "143604.734000", "143604.737000", "143604.740000", "143604.743000", "143604.746000", "143604.749000", "143604.752000", "143604.755000", "143624.698000", "143624.701000", "143624.704000", "143624.707000", "143624.710000", "143624.713000", "143624.716000", "143624.719000", "143624.722000", "143624.725000", "143624.728000", "143624.740000", "143624.743000", "143624.745000", "143624.748000", "143624.751000", "143624.754000", "143624.757000", "143624.760000", "143624.763000", "143634.201000", "143634.204000", "143634.207000", "143634.210000", "143634.213000", "143634.216000", "143634.219000", "143634.222000", "143634.225000", "143634.228000"],
      "InstanceNumber": [1, 2, 3, 4, 5, 6, 7, 8, 9, 10, 11, 12, 13, 14, 15, 16, 17, 18, 19, 20, 21, 22, 23, 24, 25, 26, 27, 28, 29, 30, 31, 32, 33, 34, 35, 36, 37, 38, 39, 40, 41, 42, 43, 44, 45, 46, 47, 48, 49, 50, 51, 52, 53, 54, 55, 56, 57, 58, 59, 60, 61, 62, 63, 64, 65, 66, 67, 68, 69, 70, 71, 72, 73, 74, 75, 76, 77, 78, 79, 80, 81, 82, 83, 84, 85, 86, 87, 88, 89, 90, 91, 92, 93, 94, 95, 96, 97, 98, 99, 100, 101, 102, 103, 104, 105, 106, 107, 108, 109, 110, 111, 112, 113, 114, 115, 116, 117, 118, 119, 120, 121, 122, 123, 124, 125, 126, 127, 128, 129, 130, 131, 132, 133, 134, 135, 136, 137, 138, 139, 140, 141, 142, 143, 144, 145, 146, 147, 148, 149, 150, 151, 152, 153, 154, 155, 156, 157, 158, 159, 160, 161, 162, 163, 164, 165, 166, 167, 168, 169, 170, 171, 172, 173, 174, 175, 176, 177, 178, 179, 180, 181, 182, 183, 184, 185, 186, 187, 188, 189, 190, 191, 192, 193, 194, 195, 196, 197, 198, 199, 200, 201, 202, 203, 204, 205, 206, 207, 208, 209, 210, 211, 212, 213, 214, 215, 216, 217, 218, 219, 220, 221, 222, 223, 224, 225, 226, 227, 228, 229, 230, 231, 232, 233, 234, 235, 236, 237, 238, 239, 240, 241, 242, 243, 244, 245, 246, 247, 248, 249, 250, 251, 252, 253, 254, 255, 256, 257, 258, 259, 260, 261, 262, 263, 264, 265, 266, 267, 268, 269, 270, 271, 272, 273, 274, 275, 276, 277, 278, 279, 280, 281, 282, 283, 284, 285, 286, 287, 288, 289, 290, 291, 292, 293, 294, 295, 296, 297, 298, 299, 300],
      "LargestImagePixelValue": [38499, 37421, 37384, 37011, 37257, 36361, 36284, 36686, 36576, 36535, 36587, 36229, 36651, 36672, 36786, 36711, 36953, 36610, 36718, 36944, 36847, 36440, 36627, 36778, 37028, 37035, 37078, 37218, 37079, 36813, 37193, 37214, 37058, 36884, 37523, 36708, 36816, 37488, 37163, 36977, 36903, 36751, 36372, 36903, 36270, 36698, 37306, 36440, 36936, 36715, 36803, 36895, 36696, 36649, 36515, 36803, 36573, 36705, 36578, 36439, 36271, 36466, 36507, 36477, 36411, 36353, 36032, 36639, 36498, 36355, 36501, 36147, 36442, 35996, 36345, 36315, 36164, 36230, 37190, 36780, 36501, 36382, 36497, 36184, 36250, 36209, 36104, 36238, 35866, 36332, 36069, 36138, 36521, 36100, 36541, 36493, 36226, 36115, 36150, 36246, 36025, 36275, 36876, 36611, 37050, 36851, 36923, 36522, 36797, 36208, 36354, 36582, 36363, 36288, 36109, 36123, 35902, 36080, 35507, 35843, 36657, 36027, 36137, 36115, 36088, 36230, 36707, 36300, 37234, 38119, 37510, 37029, 37185, 36353, 36041, 36327, 36088, 35863, 35815, 35715, 35934, 35792, 36020, 35528, 36077, 35902, 35847, 35839, 35825, 35992, 36119, 35997, 35804, 35813, 36346, 36319, 36767, 35683, 35755, 35480, 35753, 36083, 35762, 36236, 35981, 35863, 36076, 35980, 36207, 35639, 35655, 35923, 36264, 36071, 35915, 36140, 35761, 36237, 36433, 35966, 36134, 36442, 35579, 36065, 36040, 35883, 35475, 36370, 36216, 35074, 35565, 36378, 36157, 35734, 35746, 35877, 35792, 36010, 35748, 36050, 36008, 36253, 36262, 35985, 35874, 35547, 36086, 36516, 36477, 35583, 36209, 35856, 35702, 36279, 36493, 35961, 35970, 35972, 35644, 35958, 36070, 35844, 35439, 35944, 36040, 36119, 35248, 35980, 35976, 36310, 35669, 35273, 35726, 36121, 35803, 35349, 35651, 36103, 35744, 35673, 35966, 35889, 36086, 35760, 35547, 35912, 36188, 35683, 35447, 35795, 35966, 35884, 36078, 35696, 35188, 35188, 35773, 34389, 35426, 35269, 35141, 35337, 34883, 35549, 34550, 34674, 35223, 34993, 35497, 35235, 35611, 36074, 36004, 35813, 36192, 36291, 36212, 36120, 36084, 36010, 36001, 35572, 35582, 35664, 35229, 35051, 34620, 34999, 35551, 35925, 35280, 34852, 35479, 35848, 35470, 35374, 35127, 35090, 35480, 35252],
      "WindowCenter": [10011.0, 9975.0, 9967.0, 9967.0, 9969.0, 9963.0, 9956.0, 9959.0, 9951.0, 9943.0, 9944.0, 9939.0, 9940.0, 9931.0, 9931.0, 9928.0, 9930.0, 9941.0, 9949.0, 9950.0, 9964.0, 9963.0, 9970.0, 9975.0, 9968.0, 9964.0, 9962.0, 9961.0, 9955.0, 9948.0, 9954.0, 9956.0, 9963.0, 9966.0, 9980.0, 9967.0, 9956.0, 9952.0, 9936.0, 9934.0, 9937.0, 9946.0, 9948.0, 9949.0, 9936.0, 9946.0, 9946.0, 9934.0, 9941.0, 9939.0, 9930.0, 9937.0, 9946.0, 9956.0, 9959.0, 9959.0, 9945.0, 9948.0, 9941.0, 9935.0, 9935.0, 9940.0, 9949.0, 9952.0, 9960.0, 9962.0, 9959.0, 9952.0, 9959.0, 9954.0, 9955.0, 9947.0, 9943.0, 9937.0, 9935.0, 9928.0, 9928.0, 9926.0, 9922.0, 9928.0, 9924.0, 9932.0, 9941.0, 9946.0, 9947.0, 9954.0, 9955.0, 9949.0, 9947.0, 9945.0, 9929.0, 9926.0, 9925.0, 9918.0, 9924.0, 9940.0, 9936.0, 9937.0, 9937.0, 9935.0, 9926.0, 9923.0, 9920.0, 9914.0, 9926.0, 9930.0, 9939.0, 9936.0, 9932.0, 9925.0, 9923.0, 9914.0, 9914.0, 9917.0, 9924.0, 9935.0, 9945.0, 9946.0, 9936.0, 9932.0, 9933.0, 9922.0, 9926.0, 9920.0, 9926.0, 9925.0, 9938.0, 9935.0, 9956.0, 9985.0, 9984.0, 9989.0, 9987.0, 9972.0, 9957.0, 9954.0, 9938.0, 9930.0, 9933.0, 9931.0, 9939.0, 9947.0, 9948.0, 9941.0, 9956.0, 9960.0, 9959.0, 9951.0, 9942.0, 9932.0, 9928.0, 9916.0, 9913.0, 9908.0, 9909.0, 9909.0, 9920.0, 9911.0, 9919.0, 9921.0, 9929.0, 9928.0, 9929.0, 9927.0, 9930.0, 9933.0, 9941.0, 9951.0, 9958.0, 9943.0, 9933.0, 9923.0, 9920.0, 9927.0, 9931.0, 9939.0, 9940.0, 9938.0, 9929.0, 9920.0, 9919.0, 9925.0, 9913.0, 9935.0, 9936.0, 9932.0, 9922.0, 9919.0, 9907.0, 9889.0, 9894.0, 9897.0, 9899.0, 9909.0, 9910.0, 9911.0, 9919.0, 9925.0, 9920.0, 9926.0, 9928.0, 9920.0, 9928.0, 9931.0, 9938.0, 9926.0, 9937.0, 9934.0, 9933.0, 9922.0, 9930.0, 9938.0, 9940.0, 9948.0, 9954.0, 9943.0, 9943.0, 9933.0, 9932.0, 9939.0, 9947.0, 9949.0, 9950.0, 9958.0, 9957.0, 9965.0, 9949.0, 9961.0, 9960.0, 9957.0, 9942.0, 9929.0, 9934.0, 9938.0, 9940.0, 9938.0, 9942.0, 9948.0, 9952.0, 9947.0, 9943.0, 9933.0, 9930.0, 9908.0, 9907.0, 9919.0, 9919.0, 9918.0, 9907.0, 9913.0, 9912.0, 9911.0, 9911.0, 9904.0, 9898.0, 9898.0, 9887.0, 9857.0, 9852.0, 9866.0, 9887.0, 9888.0, 9869.0, 9863.0, 9836.0, 9825.0, 9819.0, 9797.0, 9790.0, 9779.0, 9775.0, 9779.0, 9777.0, 9779.0, 9787.0, 9797.0, 9815.0, 9834.0, 9846.0, 9856.0, 9866.0, 9863.0, 9881.0, 9884.0, 9893.0, 9904.0, 9902.0, 9910.0, 9924.0, 9932.0, 9933.0, 9930.0, 9945.0, 9957.0, 9954.0, 9955.0, 9954.0, 9955.0, 9955.0, 9956.0],
