{
  "AcquisitionMatrixPE": 104,
  "AcquisitionNumber": 1,
  "AcquisitionTime": "13:21:35.707500",
  "BandwidthPerPixelPhaseEncode": 16.297,
  "BaseResolution": 104,
  "BodyPartExamined": "BRAIN",
  "ConsistencyInfo": "N4_VE11C_LATEST_20160120",
  "ConversionSoftware": "dcm2niix",
  "ConversionSoftwareVersion": "v1.0.20210317",
  "DerivedVendorReportedEchoSpacing": 0.000590009,
  "DeviceSerialNumber": "166018",
  "DwellTime": 2.1e-06,
  "EchoTime": 0.0376,
  "EchoTrainLength": 104,
  "EffectiveEchoSpacing": 0.000590009,
  "FlipAngle": 68,
  "ImageComments": "Unaliased MB6/PE3/LB",
  "ImageOrientationPatientDICOM": [0.999976, -0.00285347, -0.00627495, 0.00209434, 0.993033, -0.117817],
  "ImageType": [
    "ORIGINAL",
    "PRIMARY",
    "M",
    "MB",
    "ND",
    "MOSAIC"
],
  "ImagingFrequency": 123.197,
  "InPlanePhaseEncodingDirectionDICOM": "COL",
  "InstitutionAddress": "Washington Place 6,NYC,NYC,US,10003",
  "InstitutionName": "NYU - CBI",
  "InstitutionalDepartmentName": "Department",
  "MRAcquisitionType": "2D",
  "MagneticFieldStrength": 3,
  "Manufacturer": "Siemens",
  "ManufacturersModelName": "Prisma",
  "Modality": "MR",
  "MultibandAccelerationFactor": 6,
  "PartialFourier": 1,
  "PatientPosition": "HFS",
  "PercentPhaseFOV": 100,
  "PercentSampling": 100,
  "PhaseEncodingDirection": "j",
  "PhaseEncodingSteps": 104,
  "PhaseResolution": 1,
  "PixelBandwidth": 2290,
  "ProcedureStepDescription": "Investigators^Winawer",
  "ProtocolName": "cmrr_mbepi_s6_2mm_66sl_PA_task-bar1",
  "PulseSequenceDetails": "%CustomerSeq%\\cmrr_mbep2d_bold",
  "ReceiveCoilActiveElements": "HC1-7",
  "ReceiveCoilName": "HeadNeck_64",
  "ReconMatrixPE": 104,
  "RepetitionTime": 1,
  "SAR": 0.0940058,
  "ScanOptions": "FS",
  "ScanningSequence": "EP",
  "SequenceName": "epfid2d1_104",
  "SequenceVariant": "SK\\SS",
  "SeriesDescription": "cmrr_mbepi_s6_2mm_66sl_PA_task-bar1",
  "SeriesNumber": 8,
  "ShimSetting": [299, -12631, -8454, 273, 37, -58, 1, 64],
  "SliceThickness": 2,
  "SliceTiming": [0, 0.535, 0.09, 0.6225, 0.1775, 0.7125, 0.2675, 0.8025, 0.3575, 0.89, 0.445, 0, 0.535, 0.09, 0.6225, 0.1775, 0.7125, 0.2675, 0.8025, 0.3575, 0.89, 0.445, 0, 0.535, 0.09, 0.6225, 0.1775, 0.7125, 0.2675, 0.8025, 0.3575, 0.89, 0.445, 0, 0.535, 0.09, 0.6225, 0.1775, 0.7125, 0.2675, 0.8025, 0.3575, 0.89, 0.445, 0, 0.535, 0.09, 0.6225, 0.1775, 0.7125, 0.2675, 0.8025, 0.3575, 0.89, 0.445, 0, 0.535, 0.09, 0.6225, 0.1775, 0.7125, 0.2675, 0.8025, 0.3575, 0.89, 0.445],
  "SoftwareVersions": "syngo MR E11",
  "SpacingBetweenSlices": 2,
  "StationName": "AWP166018",
  "TaskName": "bar1",
  "TotalReadoutTime": 0.060771,
  "TxRefAmp": 292.773,
  "VendorReportedEchoSpacing": 0.00059,
  "WipMemBlock": "0cd4b1b2-03e4-47d4-8dcb-5584eb10442b||Sequence: R016 ve11c/master r/8780670; Nov 27 2017 15:05:12 by eja",
  "dcmmeta_affine": [
    [-1.9999524354934692, 0.004188675433397293, -0.01313483901321888, 108.76008605957031],
    [0.005706930998712778, 1.9860661029815674, -0.23560276627540588, -64.95633697509766],
    [-0.012549897655844688, 0.23563465476036072, 1.98603093624115, -49.256099700927734],
    [0.0, 0.0, 0.0, 1.0]
],
  "dcmmeta_reorient_transform": [
    [0.0, -1.0, 0.0, 103.0],
    [1.0, 0.0, 0.0, 0.0],
    [0.0, 0.0, 1.0, 0.0],
    [0.0, 0.0, 0.0, 1.0]
],
  "dcmmeta_shape": [104, 104, 66, 300],
  "dcmmeta_slice_dim": 2,
  "dcmmeta_version": 0.6,
  "global": {
    "const": {
      "AccessionNumber": "Lffq0p3i",
      "AcquisitionMatrix": [104, 0, 0, 104],
      "AngioFlag": "N",
      "BitsAllocated": 16,
      "BitsStored": 16,
      "BodyPartExamined": "BRAIN",
      "Columns": 936,
      "EchoNumbers": 1,
      "EchoTime": 37.6,
      "EchoTrainLength": 104,
      "FlipAngle": 68.0,
      "HighBit": 15,
      "ImageOrientationPatient": [0.9999762410922, -0.0028534655954, -0.0062749490212, 0.00209433777121, 0.99303307683678, -0.1178173249458],
      "ImagePositionPatient": [-942.91423855489, -963.43791119637, 78.259041528817],
      "ImageType": [
        "ORIGINAL",
        "PRIMARY",
        "M",
        "MB",
        "ND",
        "MOSAIC"
],
      "ImagedNucleus": "1H",
      "ImagingFrequency": 123.196732,
      "InPlanePhaseEncodingDirection": "COL",
      "MRAcquisitionType": "2D",
      "MagneticFieldStrength": 3.0,
      "Manufacturer": "SIEMENS",
      "ManufacturerModelName": "Prisma",
      "Modality": "MR",
      "NumberOfAverages": 1.0,
      "NumberOfPhaseEncodingSteps": 104,
      "PercentPhaseFieldOfView": 100.0,
      "PercentSampling": 100.0,
      "PerformedProcedureStepStartTime": "131518.465000",
      "PhotometricInterpretation": "MONOCHROME2",
      "PixelBandwidth": 2290.0,
      "PixelRepresentation": 0,
      "PixelSpacing": [2.0, 2.0],
      "ProtocolName": "cmrr_mbepi_s6_2mm_66sl_PA_task-bar1",
      "RepetitionTime": 1000.0,
      "Rows": 936,
      "SAR": 0.09400578475125,
      "SamplesPerPixel": 1,
      "ScanOptions": "FS",
      "ScanningSequence": "EP",
      "SequenceName": "epfid2d1_104",
      "SequenceVariant": [
        "SK",
        "SS"
],
      "SeriesDescription": "cmrr_mbepi_s6_2mm_66sl_PA_task-bar1",
      "SeriesNumber": 8,
      "SeriesTime": "132253.418000",
      "SliceLocation": -41.974394591277,
      "SliceThickness": 2.0,
      "SmallestImagePixelValue": 0,
      "SoftwareVersions": "syngo MR E11",
      "SpacingBetweenSlices": 2.0000000158623,
      "SpecificCharacterSet": "ISO_IR 100",
      "StudyID": "1",
      "StudyTime": "131518.336000",
      "TransmitCoilName": "Body",
      "VariableFlipAngleFlag": "N",
      "WindowCenterWidthExplanation": "Algo1",
      "dBdt": 0.0},
    "slices": {}
  },
  "time": {
    "samples": {
      "AcquisitionNumber": [1, 2, 3, 4, 5, 6, 7, 8, 9, 10, 11, 12, 13, 14, 15, 16, 17, 18, 19, 20, 21, 22, 23, 24, 25, 26, 27, 28, 29, 30, 31, 32, 33, 34, 35, 36, 37, 38, 39, 40, 41, 42, 43, 44, 45, 46, 47, 48, 49, 50, 51, 52, 53, 54, 55, 56, 57, 58, 59, 60, 61, 62, 63, 64, 65, 66, 67, 68, 69, 70, 71, 72, 73, 74, 75, 76, 77, 78, 79, 80, 81, 82, 83, 84, 85, 86, 87, 88, 89, 90, 91, 92, 93, 94, 95, 96, 97, 98, 99, 100, 101, 102, 103, 104, 105, 106, 107, 108, 109, 110, 111, 112, 113, 114, 115, 116, 117, 118, 119, 120, 121, 122, 123, 124, 125, 126, 127, 128, 129, 130, 131, 132, 133, 134, 135, 136, 137, 138, 139, 140, 141, 142, 143, 144, 145, 146, 147, 148, 149, 150, 151, 152, 153, 154, 155, 156, 157, 158, 159, 160, 161, 162, 163, 164, 165, 166, 167, 168, 169, 170, 171, 172, 173, 174, 175, 176, 177, 178, 179, 180, 181, 182, 183, 184, 185, 186, 187, 188, 189, 190, 191, 192, 193, 194, 195, 196, 197, 198, 199, 200, 201, 202, 203, 204, 205, 206, 207, 208, 209, 210, 211, 212, 213, 214, 215, 216, 217, 218, 219, 220, 221, 222, 223, 224, 225, 226, 227, 228, 229, 230, 231, 232, 233, 234, 235, 236, 237, 238, 239, 240, 241, 242, 243, 244, 245, 246, 247, 248, 249, 250, 251, 252, 253, 254, 255, 256, 257, 258, 259, 260, 261, 262, 263, 264, 265, 266, 267, 268, 269, 270, 271, 272, 273, 274, 275, 276, 277, 278, 279, 280, 281, 282, 283, 284, 285, 286, 287, 288, 289, 290, 291, 292, 293, 294, 295, 296, 297, 298, 299, 300],
      "AcquisitionTime": ["132135.707500", "132136.707500", "132137.707500", "132138.707500", "132139.707500", "132140.707500", "132141.707500", "132142.707500", "132143.707500", "132144.707500", "132145.707500", "132146.707500", "132147.707500", "132148.707500", "132149.707500", "132150.707500", "132151.707500", "132152.707500", "132153.707500", "132154.707500", "132155.707500", "132156.707500", "132157.707500", "132158.707500", "132159.707500", "132200.707500", "132201.707500", "132202.707500", "132203.707500", "132204.707500", "132205.707500", "132206.707500", "132207.707500", "132208.707500", "132209.707500", "132210.707500", "132211.707500", "132212.707500", "132213.707500", "132214.707500", "132215.707500", "132216.707500", "132217.707500", "132218.707500", "132219.707500", "132220.707500", "132221.707500", "132222.707500", "132223.707500", "132224.707500", "132225.707500", "132226.707500", "132227.707500", "132228.707500", "132229.707500", "132230.707500", "132231.707500", "132232.707500", "132233.707500", "132234.707500", "132235.707500", "132236.707500", "132237.707500", "132238.707500", "132239.707500", "132240.707500", "132241.707500", "132242.707500", "132243.707500", "132244.707500", "132245.707500", "132246.707500", "132247.707500", "132248.707500", "132249.707500", "132250.707500", "132251.707500", "132252.707500", "132253.707500", "132254.707500", "132255.707500", "132256.707500", "132257.707500", "132258.707500", "132259.707500", "132300.707500", "132301.707500", "132302.707500", "132303.707500", "132304.707500", "132305.707500", "132306.707500", "132307.707500", "132308.707500", "132309.707500", "132310.707500", "132311.707500", "132312.707500", "132313.707500", "132314.707500", "132315.707500", "132316.707500", "132317.707500", "132318.707500", "132319.707500", "132320.707500", "132321.707500", "132322.707500", "132323.707500", "132324.707500", "132325.707500", "132326.707500", "132327.707500", "132328.707500", "132329.707500", "132330.707500", "132331.707500", "132332.707500", "132333.707500", "132334.707500", "132335.707500", "132336.707500", "132337.707500", "132338.707500", "132339.707500", "132340.707500", "132341.707500", "132342.707500", "132343.707500", "132344.707500", "132345.707500", "132346.707500", "132347.707500", "132348.707500", "132349.707500", "132350.707500", "132351.707500", "132352.707500", "132353.707500", "132354.707500", "132355.707500", "132356.707500", "132357.707500", "132358.707500", "132359.707500", "132400.707500", "132401.707500", "132402.707500", "132403.707500", "132404.707500", "132405.707500", "132406.707500", "132407.707500", "132408.707500", "132409.707500", "132410.707500", "132411.707500", "132412.707500", "132413.707500", "132414.707500", "132415.707500", "132416.707500", "132417.707500", "132418.707500", "132419.707500", "132420.707500", "132421.707500", "132422.707500", "132423.707500", "132424.707500", "132425.707500", "132426.707500", "132427.707500", "132428.707500", "132429.707500", "132430.707500", "132431.707500", "132432.707500", "132433.707500", "132434.707500", "132435.707500", "132436.707500", "132437.707500", "132438.707500", "132439.707500", "132440.707500", "132441.707500", "132442.707500", "132443.707500", "132444.707500", "132445.707500", "132446.707500", "132447.707500", "132448.707500", "132449.707500", "132450.707500", "132451.707500", "132452.707500", "132453.707500", "132454.707500", "132455.707500", "132456.707500", "132457.707500", "132458.707500", "132459.707500", "132500.707500", "132501.707500", "132502.707500", "132503.707500", "132504.707500", "132505.707500", "132506.707500", "132507.707500", "132508.707500", "132509.707500", "132510.707500", "132511.707500", "132512.707500", "132513.707500", "132514.707500", "132515.707500", "132516.707500", "132517.707500", "132518.707500", "132519.707500", "132520.707500", "132521.707500", "132522.707500", "132523.707500", "132524.707500", "132525.707500", "132526.707500", "132527.707500", "132528.707500", "132529.707500", "132530.707500", "132531.707500", "132532.707500", "132533.707500", "132534.707500", "132535.707500", "132536.707500", "132537.707500", "132538.707500", "132539.707500", "132540.707500", "132541.707500", "132542.707500", "132543.707500", "132544.707500", "132545.707500", "132546.707500", "132547.707500", "132548.707500", "132549.707500", "132550.707500", "132551.707500", "132552.707500", "132553.707500", "132554.707500", "132555.707500", "132556.707500", "132557.707500", "132558.707500", "132559.707500", "132600.707500", "132601.707500", "132602.707500", "132603.707500", "132604.707500", "132605.707500", "132606.707500", "132607.707500", "132608.707500", "132609.707500", "132610.707500", "132611.707500", "132612.707500", "132613.707500", "132614.707500", "132615.707500", "132616.707500", "132617.707500", "132618.707500", "132619.707500", "132620.707500", "132621.707500", "132622.707500", "132623.707500", "132624.707500", "132625.707500", "132626.707500", "132627.707500", "132628.707500", "132629.707500", "132630.707500", "132631.707500", "132632.707500", "132633.707500", "132634.707500"],
      "ContentTime": ["132253.421000", "132253.424000", "132253.427000", "132253.430000", "132253.433000", "132253.442000", "132253.445000", "132253.448000", "132253.451000", "132253.454000", "132253.457000", "132253.460000", "132253.463000", "132253.466000", "132253.469000", "132253.472000", "132253.475000", "132253.478000", "132253.481000", "132253.484000", "132253.487000", "132253.491000", "132253.503000", "132253.506000", "132253.509000", "132253.512000", "132253.515000", "132253.518000", "132253.521000", "132253.524000", "132253.527000", "132253.530000", "132253.533000", "132253.536000", "132253.539000", "132253.542000", "132253.545000", "132253.549000", "132253.552000", "132313.386000", "132313.389000", "132313.392000", "132313.395000", "132313.398000", "132313.402000", "132313.405000", "132313.408000", "132313.411000", "132313.414000", "132313.417000", "132313.420000", "132313.423000", "132313.426000", "132313.429000", "132313.432000", "132313.435000", "132313.438000", "132313.441000", "132313.444000", "132313.447000", "132313.450000", "132313.453000", "132313.456000", "132313.461000", "132313.464000", "132313.467000", "132313.470000", "132313.473000", "132333.385000", "132333.388000", "132333.391000", "132333.407000", "132333.410000", "132333.413000", "132333.416000", "132333.419000", "132333.422000", "132333.425000", "132333.428000", "132333.431000", "132333.434000", "132333.437000", "132333.440000", "132333.443000", "132333.446000", "132333.449000", "132333.452000", "132333.455000", "132333.458000", "132333.461000", "132333.464000", "132333.467000", "132333.470000", "132333.473000", "132333.476000", "132333.479000", "132353.385000", "132353.389000", "132353.392000", "132353.395000", "132353.398000", "132353.401000", "132353.404000", "132353.407000", "132353.410000", "132353.413000", "132353.417000", "132353.420000", "132353.423000", "132353.426000", "132353.429000", "132353.432000", "132353.435000", "132353.438000", "132353.441000", "132353.444000", "132353.448000", "132353.451000", "132353.454000", "132353.457000", "132353.460000", "132353.463000", "132353.466000", "132353.469000", "132413.385000", "132413.388000", "132413.391000", "132413.394000", "132413.397000", "132413.400000", "132413.403000", "132413.407000", "132413.410000", "132413.413000", "132413.416000", "132413.419000", "132413.422000", "132413.425000", "132413.428000", "132413.431000", "132413.434000", "132413.437000", "132413.440000", "132413.443000", "132413.447000", "132413.450000", "132413.453000", "132413.456000", "132413.459000", "132413.462000", "132413.465000", "132413.468000", "132433.386000", "132433.389000", "132433.392000", "132433.395000", "132433.398000", "132433.401000", "132433.404000", "132433.407000", "132433.410000", "132433.414000", "132433.417000", "132433.420000", "132433.423000", "132433.426000", "132433.429000", "132433.432000", "132433.435000", "132433.438000", "132433.441000", "132433.444000", "132433.447000", "132433.450000", "132433.453000", "132433.456000", "132433.459000", "132453.386000", "132453.389000", "132453.392000", "132453.395000", "132453.398000", "132453.401000", "132453.404000", "132453.407000", "132453.410000", "132453.413000", "132453.416000", "132453.419000", "132453.422000", "132453.425000", "132453.429000", "132453.432000", "132453.435000", "132453.438000", "132453.441000", "132453.444000", "132513.386000", "132513.389000", "132513.392000", "132513.395000", "132513.398000", "132513.401000", "132513.404000", "132513.407000", "132513.410000", "132513.414000", "132513.423000", "132513.426000", "132513.429000", "132513.432000", "132513.435000", "132513.438000", "132513.441000", "132513.444000", "132513.447000", "132513.450000", "132533.386000", "132533.389000", "132533.392000", "132533.395000", "132533.398000", "132533.401000", "132533.404000", "132533.407000", "132533.410000", "132533.413000", "132533.416000", "132533.419000", "132533.422000", "132533.426000", "132533.429000", "132533.432000", "132533.435000", "132533.438000", "132533.441000", "132533.444000", "132553.385000", "132553.388000", "132553.391000", "132553.394000", "132553.397000", "132553.400000", "132553.403000", "132553.406000", "132553.409000", "132553.412000", "132553.415000", "132553.419000", "132553.421000", "132553.425000", "132553.428000", "132553.431000", "132553.434000", "132553.446000", "132553.449000", "132553.452000", "132613.385000", "132613.388000", "132613.391000", "132613.394000", "132613.397000", "132613.400000", "132613.403000", "132613.407000", "132613.410000", "132613.413000", "132613.416000", "132613.419000", "132613.422000", "132613.425000", "132613.428000", "132613.431000", "132613.434000", "132613.437000", "132613.440000", "132613.443000", "132633.385000", "132633.388000", "132633.391000", "132633.394000", "132633.397000", "132633.400000", "132633.403000", "132633.406000", "132633.409000", "132633.412000", "132633.415000", "132633.418000", "132633.421000", "132633.424000", "132633.428000", "132633.431000", "132633.434000", "132633.437000", "132633.440000", "132633.443000", "132636.397000", "132636.400000", "132636.403000"],
      "InstanceCreationTime": ["132253.421000", "132253.424000", "132253.427000", "132253.430000", "132253.433000", "132253.442000", "132253.445000", "132253.448000", "132253.451000", "132253.454000", "132253.457000", "132253.460000", "132253.463000", "132253.466000", "132253.469000", "132253.472000", "132253.475000", "132253.478000", "132253.481000", "132253.484000", "132253.487000", "132253.491000", "132253.503000", "132253.506000", "132253.509000", "132253.512000", "132253.515000", "132253.518000", "132253.521000", "132253.524000", "132253.527000", "132253.530000", "132253.533000", "132253.536000", "132253.539000", "132253.542000", "132253.545000", "132253.549000", "132253.552000", "132313.386000", "132313.389000", "132313.392000", "132313.395000", "132313.398000", "132313.402000", "132313.405000", "132313.408000", "132313.411000", "132313.414000", "132313.417000", "132313.420000", "132313.423000", "132313.426000", "132313.429000", "132313.432000", "132313.435000", "132313.438000", "132313.441000", "132313.444000", "132313.447000", "132313.450000", "132313.453000", "132313.456000", "132313.461000", "132313.464000", "132313.467000", "132313.470000", "132313.473000", "132333.385000", "132333.388000", "132333.391000", "132333.407000", "132333.410000", "132333.413000", "132333.416000", "132333.419000", "132333.422000", "132333.425000", "132333.428000", "132333.431000", "132333.434000", "132333.437000", "132333.440000", "132333.443000", "132333.446000", "132333.449000", "132333.452000", "132333.455000", "132333.458000", "132333.461000", "132333.464000", "132333.467000", "132333.470000", "132333.473000", "132333.476000", "132333.479000", "132353.385000", "132353.389000", "132353.392000", "132353.395000", "132353.398000", "132353.401000", "132353.404000", "132353.407000", "132353.410000", "132353.413000", "132353.417000", "132353.420000", "132353.423000", "132353.426000", "132353.429000", "132353.432000", "132353.435000", "132353.438000", "132353.441000", "132353.444000", "132353.448000", "132353.451000", "132353.454000", "132353.457000", "132353.460000", "132353.463000", "132353.466000", "132353.469000", "132413.385000", "132413.388000", "132413.391000", "132413.394000", "132413.397000", "132413.400000", "132413.403000", "132413.407000", "132413.410000", "132413.413000", "132413.416000", "132413.419000", "132413.422000", "132413.425000", "132413.428000", "132413.431000", "132413.434000", "132413.437000", "132413.440000", "132413.443000", "132413.447000", "132413.450000", "132413.453000", "132413.456000", "132413.459000", "132413.462000", "132413.465000", "132413.468000", "132433.386000", "132433.389000", "132433.392000", "132433.395000", "132433.398000", "132433.401000", "132433.404000", "132433.407000", "132433.410000", "132433.414000", "132433.417000", "132433.420000", "132433.423000", "132433.426000", "132433.429000", "132433.432000", "132433.435000", "132433.438000", "132433.441000", "132433.444000", "132433.447000", "132433.450000", "132433.453000", "132433.456000", "132433.459000", "132453.386000", "132453.389000", "132453.392000", "132453.395000", "132453.398000", "132453.401000", "132453.404000", "132453.407000", "132453.410000", "132453.413000", "132453.416000", "132453.419000", "132453.422000", "132453.425000", "132453.429000", "132453.432000", "132453.435000", "132453.438000", "132453.441000", "132453.444000", "132513.386000", "132513.389000", "132513.392000", "132513.395000", "132513.398000", "132513.401000", "132513.404000", "132513.407000", "132513.410000", "132513.414000", "132513.423000", "132513.426000", "132513.429000", "132513.432000", "132513.435000", "132513.438000", "132513.441000", "132513.444000", "132513.447000", "132513.450000", "132533.386000", "132533.389000", "132533.392000", "132533.395000", "132533.398000", "132533.401000", "132533.404000", "132533.407000", "132533.410000", "132533.413000", "132533.416000", "132533.419000", "132533.422000", "132533.426000", "132533.429000", "132533.432000", "132533.435000", "132533.438000", "132533.441000", "132533.444000", "132553.385000", "132553.388000", "132553.391000", "132553.394000", "132553.397000", "132553.400000", "132553.403000", "132553.406000", "132553.409000", "132553.412000", "132553.415000", "132553.419000", "132553.421000", "132553.425000", "132553.428000", "132553.431000", "132553.434000", "132553.446000", "132553.449000", "132553.452000", "132613.385000", "132613.388000", "132613.391000", "132613.394000", "132613.397000", "132613.400000", "132613.403000", "132613.407000", "132613.410000", "132613.413000", "132613.416000", "132613.419000", "132613.422000", "132613.425000", "132613.428000", "132613.431000", "132613.434000", "132613.437000", "132613.440000", "132613.443000", "132633.385000", "132633.388000", "132633.391000", "132633.394000", "132633.397000", "132633.400000", "132633.403000", "132633.406000", "132633.409000", "132633.412000", "132633.415000", "132633.418000", "132633.421000", "132633.424000", "132633.428000", "132633.431000", "132633.434000", "132633.437000", "132633.440000", "132633.443000", "132636.397000", "132636.400000", "132636.403000"],
      "InstanceNumber": [1, 2, 3, 4, 5, 6, 7, 8, 9, 10, 11, 12, 13, 14, 15, 16, 17, 18, 19, 20, 21, 22, 23, 24, 25, 26, 27, 28, 29, 30, 31, 32, 33, 34, 35, 36, 37, 38, 39, 40, 41, 42, 43, 44, 45, 46, 47, 48, 49, 50, 51, 52, 53, 54, 55, 56, 57, 58, 59, 60, 61, 62, 63, 64, 65, 66, 67, 68, 69, 70, 71, 72, 73, 74, 75, 76, 77, 78, 79, 80, 81, 82, 83, 84, 85, 86, 87, 88, 89, 90, 91, 92, 93, 94, 95, 96, 97, 98, 99, 100, 101, 102, 103, 104, 105, 106, 107, 108, 109, 110, 111, 112, 113, 114, 115, 116, 117, 118, 119, 120, 121, 122, 123, 124, 125, 126, 127, 128, 129, 130, 131, 132, 133, 134, 135, 136, 137, 138, 139, 140, 141, 142, 143, 144, 145, 146, 147, 148, 149, 150, 151, 152, 153, 154, 155, 156, 157, 158, 159, 160, 161, 162, 163, 164, 165, 166, 167, 168, 169, 170, 171, 172, 173, 174, 175, 176, 177, 178, 179, 180, 181, 182, 183, 184, 185, 186, 187, 188, 189, 190, 191, 192, 193, 194, 195, 196, 197, 198, 199, 200, 201, 202, 203, 204, 205, 206, 207, 208, 209, 210, 211, 212, 213, 214, 215, 216, 217, 218, 219, 220, 221, 222, 223, 224, 225, 226, 227, 228, 229, 230, 231, 232, 233, 234, 235, 236, 237, 238, 239, 240, 241, 242, 243, 244, 245, 246, 247, 248, 249, 250, 251, 252, 253, 254, 255, 256, 257, 258, 259, 260, 261, 262, 263, 264, 265, 266, 267, 268, 269, 270, 271, 272, 273, 274, 275, 276, 277, 278, 279, 280, 281, 282, 283, 284, 285, 286, 287, 288, 289, 290, 291, 292, 293, 294, 295, 296, 297, 298, 299, 300],
      "LargestImagePixelValue": [60857, 61732, 60370, 60266, 60735, 59974, 61683, 61049, 60457, 60240, 58753, 59297, 58505, 59734, 60117, 60109, 59887, 58793, 57971, 58215, 58146, 58292, 58362, 57268, 56109, 56314, 54472, 55102, 55798, 52896, 53564, 52144, 50876, 52065, 49736, 50183, 51200, 50786, 52202, 52701, 53469, 54393, 55698, 56360, 53841, 55176, 53789, 53415, 56096, 55591, 54589, 55583, 55869, 54816, 52358, 54961, 54562, 55713, 56434, 55741, 53060, 53875, 51617, 53055, 54076, 52838, 52452, 55164, 53476, 53031, 53624, 51214, 53510, 53852, 51510, 53248, 50564, 54425, 55657, 51929, 54937, 55849, 51662, 53464, 55898, 54141, 53926, 55839, 55208, 55107, 54447, 54860, 55106, 55659, 54453, 54780, 56572, 54486, 55589, 57267, 56523, 55990, 57551, 56082, 56412, 57714, 56657, 56863, 57584, 56956, 56992, 57921, 57414, 56651, 57980, 55026, 57919, 56995, 57159, 57594, 58587, 59483, 58822, 59895, 59175, 56741, 56183, 57852, 57260, 59185, 56181, 57122, 58057, 54651, 55220, 56278, 54407, 53763, 53318, 54964, 53459, 54405, 55720, 52523, 56043, 56114, 54728, 56357, 57047, 54629, 56008, 56874, 55869, 54620, 55105, 52910, 53881, 53418, 52761, 53617, 53980, 64210, 62511, 59467, 60484, 57483, 51717, 55918, 53802, 53242, 55950, 53336, 52706, 52554, 54310, 51263, 52370, 53578, 51913, 53563, 55645, 52346, 51450, 52782, 52016, 50916, 52902, 50685, 54134, 53506, 53794, 52583, 54775, 54378, 52112, 52819, 53556, 50878, 52916, 52414, 52814, 52734, 51074, 53573, 52856, 52601, 53589, 51819, 52265, 53752, 52520, 53400, 52018, 53287, 52788, 53100, 52207, 52715, 52637, 53272, 52431, 51896, 53549, 53500, 53145, 54580, 55817, 53188, 53835, 55683, 52235, 55838, 55364, 53118, 53981, 52771, 51796, 54820, 54613, 51690, 54477, 54653, 53914, 55611, 55823, 54544, 56421, 56295, 55765, 57015, 55335, 53864, 56757, 55755, 56058, 57827, 55778, 56834, 55247, 55912, 56238, 57239, 56262, 57193, 56907, 55614, 56953, 57828, 56310, 57671, 56516, 55677, 56926, 56510, 55302, 55912, 57881, 56821, 55314, 56203, 55870, 55056, 56496, 54792, 55271, 55976, 57072, 55935, 57804, 59873, 56647, 60535, 61110, 61913, 61503, 61231, 61466, 61911, 60927, 63206],
      "WindowCenter": [10699.0, 10684.0, 10663.0, 10654.0, 10652.0, 10639.0, 10645.0, 10640.0, 10628.0, 10625.0, 10615.0, 10611.0, 10600.0, 10616.0, 10606.0, 10615.0, 10625.0, 10628.0, 10605.0, 10610.0, 10618.0, 10629.0, 10639.0, 10620.0, 10600.0, 10605.0, 10582.0, 10586.0, 10586.0, 10563.0, 10570.0, 10565.0, 10547.0, 10560.0, 10537.0, 10541.0, 10551.0, 10547.0, 10548.0, 10552.0, 10551.0, 10560.0, 10580.0, 10586.0, 10558.0, 10568.0, 10555.0, 10549.0, 10562.0, 10566.0, 10553.0, 10561.0, 10570.0, 10561.0, 10536.0, 10555.0, 10552.0, 10562.0, 10569.0, 10566.0, 10540.0, 10537.0, 10522.0, 10528.0, 10541.0, 10531.0, 10517.0, 10546.0, 10528.0, 10524.0, 10531.0, 10499.0, 10522.0, 10527.0, 10497.0, 10501.0, 10484.0, 10510.0, 10526.0, 10484.0, 10512.0, 10528.0, 10489.0, 10506.0, 10534.0, 10528.0, 10521.0, 10546.0, 10550.0, 10536.0, 10528.0, 10534.0, 10526.0, 10530.0, 10520.0, 10511.0, 10527.0, 10510.0, 10523.0, 10547.0, 10546.0, 10541.0, 10552.0, 10540.0, 10546.0, 10552.0, 10554.0, 10553.0, 10569.0, 10566.0, 10565.0, 10570.0, 10566.0, 10558.0, 10582.0, 10560.0, 10588.0, 10582.0, 10574.0, 10572.0, 10564.0, 10608.0, 10572.0, 10579.0, 10576.0, 10543.0, 10533.0, 10551.0, 10544.0, 10564.0, 10554.0, 10555.0, 10569.0, 10542.0, 10540.0, 10543.0, 10535.0, 10523.0, 10520.0, 10537.0, 10513.0, 10513.0, 10518.0, 10481.0, 10516.0, 10524.0, 10511.0, 10531.0, 10544.0, 10532.0, 10541.0, 10558.0, 10553.0, 10533.0, 10531.0, 10508.0, 10499.0, 10490.0, 10485.0, 10493.0, 10513.0, 10601.0, 10622.0, 10605.0, 10609.0, 10574.0, 10514.0, 10543.0, 10521.0, 10514.0, 10552.0, 10537.0, 10529.0, 10532.0, 10534.0, 10495.0, 10505.0, 10500.0, 10493.0, 10504.0, 10506.0, 10489.0, 10478.0, 10481.0, 10490.0, 10478.0, 10493.0, 10472.0, 10500.0, 10485.0, 10490.0, 10489.0, 10504.0, 10521.0, 10500.0, 10502.0, 10509.0, 10485.0, 10501.0, 10497.0, 10495.0, 10504.0, 10492.0, 10507.0, 10504.0, 10511.0, 10515.0, 10510.0, 10515.0, 10522.0, 10507.0, 10510.0, 10506.0, 10527.0, 10512.0, 10511.0, 10497.0, 10491.0, 10492.0, 10489.0, 10482.0, 10482.0, 10490.0, 10498.0, 10503.0, 10519.0, 10535.0, 10512.0, 10506.0, 10523.0, 10496.0, 10535.0, 10546.0, 10521.0, 10525.0, 10513.0, 10497.0, 10520.0, 10526.0, 10483.0, 10505.0, 10511.0, 10501.0, 10526.0, 10526.0, 10523.0, 10539.0, 10535.0, 10527.0, 10537.0, 10529.0, 10512.0, 10541.0, 10530.0, 10527.0, 10552.0, 10529.0, 10540.0, 10530.0, 10537.0, 10535.0, 10553.0, 10550.0, 10554.0, 10557.0, 10536.0, 10539.0, 10550.0, 10530.0, 10542.0, 10538.0, 10527.0, 10535.0, 10535.0, 10518.0, 10522.0, 10548.0, 10544.0, 10527.0, 10541.0, 10543.0, 10528.0, 10532.0, 10524.0, 10522.0, 10528.0, 10540.0, 10518.0, 10531.0, 10553.0, 10510.0, 10560.0, 10581.0, 10581.0, 10586.0, 10584.0, 10577.0, 10580.0, 10568.0, 10598.0],
