{
  "AcquisitionMatrixPE": 104,
  "AcquisitionNumber": 1,
  "AcquisitionTime": "13:27:57.725000",
  "BandwidthPerPixelPhaseEncode": 16.297,
  "BaseResolution": 104,
  "BodyPartExamined": "BRAIN",
  "ConsistencyInfo": "N4_VE11C_LATEST_20160120",
  "ConversionSoftware": "dcm2niix",
  "ConversionSoftwareVersion": "v1.0.20210317",
  "DerivedVendorReportedEchoSpacing": 0.000590009,
  "DeviceSerialNumber": "166018",
  "DwellTime": 2.1e-06,
  "EchoTime": 0.0376,
  "EchoTrainLength": 104,
  "EffectiveEchoSpacing": 0.000590009,
  "FlipAngle": 68,
  "ImageComments": "Unaliased MB6/PE3/LB",
  "ImageOrientationPatientDICOM": [0.999976, -0.00285347, -0.00627495, 0.00209434, 0.993033, -0.117817],
  "ImageType": [
    "ORIGINAL",
    "PRIMARY",
    "M",
    "MB",
    "ND",
    "MOSAIC"
],
  "ImagingFrequency": 123.197,
  "InPlanePhaseEncodingDirectionDICOM": "COL",
  "InstitutionAddress": "Washington Place 6,NYC,NYC,US,10003",
  "InstitutionName": "NYU - CBI",
  "InstitutionalDepartmentName": "Department",
  "MRAcquisitionType": "2D",
  "MagneticFieldStrength": 3,
  "Manufacturer": "Siemens",
  "ManufacturersModelName": "Prisma",
  "Modality": "MR",
  "MultibandAccelerationFactor": 6,
  "PartialFourier": 1,
  "PatientPosition": "HFS",
  "PercentPhaseFOV": 100,
  "PercentSampling": 100,
  "PhaseEncodingDirection": "j",
  "PhaseEncodingSteps": 104,
  "PhaseResolution": 1,
  "PixelBandwidth": 2290,
  "ProcedureStepDescription": "Investigators^Winawer",
  "ProtocolName": "cmrr_mbepi_s6_2mm_66sl_PA_task-wedgering1",
  "PulseSequenceDetails": "%CustomerSeq%\\cmrr_mbep2d_bold",
  "ReceiveCoilActiveElements": "HC1-7",
  "ReceiveCoilName": "HeadNeck_64",
  "ReconMatrixPE": 104,
  "RepetitionTime": 1,
  "SAR": 0.0940058,
  "ScanOptions": "FS",
  "ScanningSequence": "EP",
  "SequenceName": "epfid2d1_104",
  "SequenceVariant": "SK\\SS",
  "SeriesDescription": "cmrr_mbepi_s6_2mm_66sl_PA_task-wedgering1",
  "SeriesNumber": 10,
  "ShimSetting": [299, -12631, -8454, 273, 37, -58, 1, 64],
  "SliceThickness": 2,
  "SliceTiming": [0, 0.535, 0.0875, 0.6225, 0.1775, 0.7125, 0.2675, 0.8, 0.355, 0.89, 0.445, 0, 0.535, 0.0875, 0.6225, 0.1775, 0.7125, 0.2675, 0.8, 0.355, 0.89, 0.445, 0, 0.535, 0.0875, 0.6225, 0.1775, 0.7125, 0.2675, 0.8, 0.355, 0.89, 0.445, 0, 0.535, 0.0875, 0.6225, 0.1775, 0.7125, 0.2675, 0.8, 0.355, 0.89, 0.445, 0, 0.535, 0.0875, 0.6225, 0.1775, 0.7125, 0.2675, 0.8, 0.355, 0.89, 0.445, 0, 0.535, 0.0875, 0.6225, 0.1775, 0.7125, 0.2675, 0.8, 0.355, 0.89, 0.445],
  "SoftwareVersions": "syngo MR E11",
  "SpacingBetweenSlices": 2,
  "StationName": "AWP166018",
  "TaskName": "wedgering1",
  "TotalReadoutTime": 0.060771,
  "TxRefAmp": 292.773,
  "VendorReportedEchoSpacing": 0.00059,
  "WipMemBlock": "b8631304-ea85-4f1e-834f-dcc8c8f4dbab||Sequence: R016 ve11c/master r/8780670; Nov 27 2017 15:05:12 by eja",
  "dcmmeta_affine": [
    [-1.9999524354934692, 0.004188675433397293, -0.01313483901321888, 108.76008605957031],
    [0.005706930998712778, 1.9860661029815674, -0.23560276627540588, -64.95633697509766],
    [-0.012549897655844688, 0.23563465476036072, 1.98603093624115, -49.256099700927734],
    [0.0, 0.0, 0.0, 1.0]
],
  "dcmmeta_reorient_transform": [
    [0.0, -1.0, 0.0, 103.0],
    [1.0, 0.0, 0.0, 0.0],
    [0.0, 0.0, 1.0, 0.0],
    [0.0, 0.0, 0.0, 1.0]
],
  "dcmmeta_shape": [104, 104, 66, 300],
  "dcmmeta_slice_dim": 2,
  "dcmmeta_version": 0.6,
  "global": {
    "const": {
      "AccessionNumber": "Lffq0p3i",
      "AcquisitionMatrix": [104, 0, 0, 104],
      "AngioFlag": "N",
      "BitsAllocated": 16,
      "BitsStored": 16,
      "BodyPartExamined": "BRAIN",
      "Columns": 936,
      "EchoNumbers": 1,
      "EchoTime": 37.6,
      "EchoTrainLength": 104,
      "FlipAngle": 68.0,
      "HighBit": 15,
      "ImageOrientationPatient": [0.9999762410922, -0.0028534655954, -0.0062749490212, 0.00209433777121, 0.99303307683678, -0.1178173249458],
      "ImagePositionPatient": [-942.91423855489, -963.43791119637, 78.259041528817],
      "ImageType": [
        "ORIGINAL",
        "PRIMARY",
        "M",
        "MB",
        "ND",
        "MOSAIC"
],
      "ImagedNucleus": "1H",
      "ImagingFrequency": 123.196739,
      "InPlanePhaseEncodingDirection": "COL",
      "MRAcquisitionType": "2D",
      "MagneticFieldStrength": 3.0,
      "Manufacturer": "SIEMENS",
      "ManufacturerModelName": "Prisma",
      "Modality": "MR",
      "NumberOfAverages": 1.0,
      "NumberOfPhaseEncodingSteps": 104,
      "PercentPhaseFieldOfView": 100.0,
      "PercentSampling": 100.0,
      "PerformedProcedureStepStartTime": "131518.465000",
      "PhotometricInterpretation": "MONOCHROME2",
      "PixelBandwidth": 2290.0,
      "PixelRepresentation": 0,
      "PixelSpacing": [2.0, 2.0],
      "ProtocolName": "cmrr_mbepi_s6_2mm_66sl_PA_task-wedgering1",
      "RepetitionTime": 1000.0,
      "Rows": 936,
      "SAR": 0.09400578475125,
      "SamplesPerPixel": 1,
      "ScanOptions": "FS",
      "ScanningSequence": "EP",
      "SequenceName": "epfid2d1_104",
      "SequenceVariant": [
        "SK",
        "SS"
],
      "SeriesDescription": "cmrr_mbepi_s6_2mm_66sl_PA_task-wedgering1",
      "SeriesNumber": 10,
      "SeriesTime": "132913.493000",
      "SliceLocation": -41.974394591277,
      "SliceThickness": 2.0,
      "SmallestImagePixelValue": 0,
      "SoftwareVersions": "syngo MR E11",
      "SpacingBetweenSlices": 2.0000000158623,
      "SpecificCharacterSet": "ISO_IR 100",
      "StudyID": "1",
      "StudyTime": "131518.336000",
      "TransmitCoilName": "Body",
      "VariableFlipAngleFlag": "N",
      "WindowCenterWidthExplanation": "Algo1",
      "dBdt": 0.0},
    "slices": {}
  },
  "time": {
    "samples": {
      "AcquisitionNumber": [1, 2, 3, 4, 5, 6, 7, 8, 9, 10, 11, 12, 13, 14, 15, 16, 17, 18, 19, 20, 21, 22, 23, 24, 25, 26, 27, 28, 29, 30, 31, 32, 33, 34, 35, 36, 37, 38, 39, 40, 41, 42, 43, 44, 45, 46, 47, 48, 49, 50, 51, 52, 53, 54, 55, 56, 57, 58, 59, 60, 61, 62, 63, 64, 65, 66, 67, 68, 69, 70, 71, 72, 73, 74, 75, 76, 77, 78, 79, 80, 81, 82, 83, 84, 85, 86, 87, 88, 89, 90, 91, 92, 93, 94, 95, 96, 97, 98, 99, 100, 101, 102, 103, 104, 105, 106, 107, 108, 109, 110, 111, 112, 113, 114, 115, 116, 117, 118, 119, 120, 121, 122, 123, 124, 125, 126, 127, 128, 129, 130, 131, 132, 133, 134, 135, 136, 137, 138, 139, 140, 141, 142, 143, 144, 145, 146, 147, 148, 149, 150, 151, 152, 153, 154, 155, 156, 157, 158, 159, 160, 161, 162, 163, 164, 165, 166, 167, 168, 169, 170, 171, 172, 173, 174, 175, 176, 177, 178, 179, 180, 181, 182, 183, 184, 185, 186, 187, 188, 189, 190, 191, 192, 193, 194, 195, 196, 197, 198, 199, 200, 201, 202, 203, 204, 205, 206, 207, 208, 209, 210, 211, 212, 213, 214, 215, 216, 217, 218, 219, 220, 221, 222, 223, 224, 225, 226, 227, 228, 229, 230, 231, 232, 233, 234, 235, 236, 237, 238, 239, 240, 241, 242, 243, 244, 245, 246, 247, 248, 249, 250, 251, 252, 253, 254, 255, 256, 257, 258, 259, 260, 261, 262, 263, 264, 265, 266, 267, 268, 269, 270, 271, 272, 273, 274, 275, 276, 277, 278, 279, 280, 281, 282, 283, 284, 285, 286, 287, 288, 289, 290, 291, 292, 293, 294, 295, 296, 297, 298, 299, 300],
      "AcquisitionTime": ["132757.725000", "132758.725000", "132759.725000", "132800.725000", "132801.725000", "132802.725000", "132803.725000", "132804.725000", "132805.725000", "132806.725000", "132807.725000", "132808.725000", "132809.725000", "132810.725000", "132811.725000", "132812.725000", "132813.725000", "132814.725000", "132815.725000", "132816.725000", "132817.725000", "132818.725000", "132819.725000", "132820.725000", "132821.725000", "132822.725000", "132823.725000", "132824.725000", "132825.725000", "132826.725000", "132827.725000", "132828.725000", "132829.725000", "132830.725000", "132831.725000", "132832.725000", "132833.725000", "132834.725000", "132835.725000", "132836.725000", "132837.725000", "132838.725000", "132839.725000", "132840.725000", "132841.725000", "132842.725000", "132843.725000", "132844.725000", "132845.725000", "132846.725000", "132847.725000", "132848.725000", "132849.725000", "132850.725000", "132851.725000", "132852.725000", "132853.725000", "132854.725000", "132855.725000", "132856.725000", "132857.725000", "132858.725000", "132859.725000", "132900.725000", "132901.725000", "132902.725000", "132903.725000", "132904.725000", "132905.725000", "132906.725000", "132907.725000", "132908.725000", "132909.725000", "132910.725000", "132911.725000", "132912.725000", "132913.725000", "132914.725000", "132915.725000", "132916.725000", "132917.725000", "132918.725000", "132919.725000", "132920.725000", "132921.725000", "132922.725000", "132923.725000", "132924.725000", "132925.725000", "132926.725000", "132927.725000", "132928.725000", "132929.725000", "132930.725000", "132931.725000", "132932.725000", "132933.725000", "132934.725000", "132935.725000", "132936.725000", "132937.725000", "132938.725000", "132939.725000", "132940.725000", "132941.725000", "132942.725000", "132943.725000", "132944.725000", "132945.725000", "132946.725000", "132947.725000", "132948.725000", "132949.725000", "132950.725000", "132951.725000", "132952.725000", "132953.725000", "132954.725000", "132955.725000", "132956.725000", "132957.725000", "132958.725000", "132959.725000", "133000.725000", "133001.725000", "133002.725000", "133003.725000", "133004.725000", "133005.725000", "133006.725000", "133007.725000", "133008.725000", "133009.725000", "133010.725000", "133011.725000", "133012.725000", "133013.725000", "133014.725000", "133015.725000", "133016.725000", "133017.725000", "133018.725000", "133019.725000", "133020.725000", "133021.725000", "133022.725000", "133023.725000", "133024.725000", "133025.725000", "133026.725000", "133027.725000", "133028.725000", "133029.725000", "133030.725000", "133031.725000", "133032.725000", "133033.725000", "133034.725000", "133035.725000", "133036.725000", "133037.725000", "133038.725000", "133039.725000", "133040.725000", "133041.725000", "133042.725000", "133043.725000", "133044.725000", "133045.725000", "133046.725000", "133047.725000", "133048.725000", "133049.725000", "133050.725000", "133051.725000", "133052.725000", "133053.725000", "133054.725000", "133055.725000", "133056.725000", "133057.725000", "133058.725000", "133059.725000", "133100.725000", "133101.725000", "133102.725000", "133103.725000", "133104.725000", "133105.725000", "133106.725000", "133107.725000", "133108.725000", "133109.725000", "133110.725000", "133111.725000", "133112.725000", "133113.725000", "133114.725000", "133115.725000", "133116.725000", "133117.725000", "133118.725000", "133119.725000", "133120.725000", "133121.725000", "133122.725000", "133123.725000", "133124.725000", "133125.725000", "133126.725000", "133127.725000", "133128.725000", "133129.725000", "133130.725000", "133131.725000", "133132.725000", "133133.725000", "133134.725000", "133135.725000", "133136.725000", "133137.725000", "133138.725000", "133139.725000", "133140.725000", "133141.725000", "133142.725000", "133143.725000", "133144.725000", "133145.725000", "133146.725000", "133147.725000", "133148.725000", "133149.725000", "133150.725000", "133151.725000", "133152.725000", "133153.725000", "133154.725000", "133155.725000", "133156.725000", "133157.725000", "133158.725000", "133159.725000", "133200.725000", "133201.725000", "133202.725000", "133203.725000", "133204.725000", "133205.725000", "133206.725000", "133207.725000", "133208.725000", "133209.725000", "133210.725000", "133211.725000", "133212.725000", "133213.725000", "133214.725000", "133215.725000", "133216.725000", "133217.725000", "133218.725000", "133219.725000", "133220.725000", "133221.725000", "133222.725000", "133223.725000", "133224.725000", "133225.725000", "133226.725000", "133227.725000", "133228.725000", "133229.725000", "133230.725000", "133231.725000", "133232.725000", "133233.725000", "133234.725000", "133235.725000", "133236.725000", "133237.725000", "133238.725000", "133239.725000", "133240.725000", "133241.725000", "133242.725000", "133243.725000", "133244.725000", "133245.725000", "133246.725000", "133247.725000", "133248.725000", "133249.725000", "133250.725000", "133251.725000", "133252.725000", "133253.725000", "133254.725000", "133255.725000", "133256.725000"],
      "ContentTime": ["132913.496000", "132913.499000", "132913.502000", "132913.505000", "132913.508000", "132913.511000", "132913.514000", "132913.517000", "132913.520000", "132913.523000", "132913.527000", "132913.530000", "132913.533000", "132913.536000", "132913.539000", "132913.542000", "132913.545000", "132913.548000", "132913.551000", "132913.569000", "132913.572000", "132913.577000", "132913.580000", "132913.584000", "132913.587000", "132913.590000", "132913.593000", "132913.596000", "132913.599000", "132913.602000", "132913.613000", "132913.616000", "132913.619000", "132913.622000", "132913.625000", "132913.629000", "132913.632000", "132933.459000", "132933.462000", "132933.465000", "132933.468000", "132933.471000", "132933.474000", "132933.478000", "132933.481000", "132933.484000", "132933.487000", "132933.490000", "132933.493000", "132933.496000", "132933.499000", "132933.502000", "132933.505000", "132933.508000", "132933.511000", "132933.514000", "132933.517000", "132933.520000", "132933.523000", "132933.526000", "132933.529000", "132933.540000", "132933.543000", "132933.546000", "132933.549000", "132953.459000", "132953.468000", "132953.471000", "132953.474000", "132953.477000", "132953.480000", "132953.483000", "132953.486000", "132953.489000", "132953.492000", "132953.495000", "132953.498000", "132953.501000", "132953.504000", "132953.507000", "132953.510000", "132953.513000", "132953.516000", "132953.519000", "132953.522000", "132953.525000", "132953.528000", "132953.531000", "132953.534000", "132953.537000", "132953.540000", "132953.543000", "132953.546000", "132953.550000", "133013.458000", "133013.461000", "133013.464000", "133013.467000", "133013.471000", "133013.474000", "133013.477000", "133013.480000", "133013.483000", "133013.486000", "133013.489000", "133013.492000", "133013.495000", "133013.498000", "133013.501000", "133013.504000", "133013.507000", "133013.510000", "133013.513000", "133013.516000", "133013.519000", "133013.522000", "133013.525000", "133013.528000", "133013.531000", "133013.534000", "133013.547000", "133013.550000", "133033.458000", "133033.461000", "133033.464000", "133033.467000", "133033.470000", "133033.473000", "133033.477000", "133033.480000", "133033.483000", "133033.486000", "133033.489000", "133033.492000", "133033.495000", "133033.498000", "133033.501000", "133033.504000", "133033.507000", "133033.510000", "133033.513000", "133033.516000", "133033.519000", "133033.522000", "133033.526000", "133033.530000", "133033.534000", "133033.537000", "133033.540000", "133033.543000", "133053.458000", "133053.461000", "133053.464000", "133053.467000", "133053.470000", "133053.473000", "133053.476000", "133053.480000", "133053.483000", "133053.486000", "133053.489000", "133053.492000", "133053.495000", "133053.498000", "133053.501000", "133053.504000", "133053.507000", "133053.510000", "133053.513000", "133053.516000", "133053.519000", "133053.534000", "133053.537000", "133053.540000", "133053.543000", "133113.458000", "133113.461000", "133113.464000", "133113.467000", "133113.470000", "133113.473000", "133113.476000", "133113.479000", "133113.482000", "133113.486000", "133113.489000", "133113.492000", "133113.495000", "133113.498000", "133113.501000", "133113.504000", "133113.507000", "133113.510000", "133113.513000", "133113.516000", "133133.459000", "133133.462000", "133133.465000", "133133.468000", "133133.471000", "133133.474000", "133133.477000", "133133.480000", "133133.484000", "133133.487000", "133133.490000", "133133.493000", "133133.496000", "133133.505000", "133133.509000", "133133.512000", "133133.515000", "133133.518000", "133133.521000", "133133.524000", "133153.459000", "133153.462000", "133153.465000", "133153.468000", "133153.471000", "133153.474000", "133153.477000", "133153.480000", "133153.483000", "133153.487000", "133153.490000", "133153.493000", "133153.496000", "133153.499000", "133153.502000", "133153.505000", "133153.508000", "133153.511000", "133153.514000", "133153.517000", "133213.459000", "133213.462000", "133213.465000", "133213.468000", "133213.471000", "133213.474000", "133213.478000", "133213.481000", "133213.484000", "133213.487000", "133213.490000", "133213.493000", "133213.496000", "133213.499000", "133213.502000", "133213.505000", "133213.508000", "133213.511000", "133213.514000", "133213.517000", "133233.458000", "133233.461000", "133233.465000", "133233.468000", "133233.471000", "133233.474000", "133233.477000", "133233.480000", "133233.483000", "133233.487000", "133233.490000", "133233.493000", "133233.496000", "133233.499000", "133233.503000", "133233.506000", "133233.509000", "133233.512000", "133233.515000", "133233.518000", "133253.458000", "133253.461000", "133253.464000", "133253.467000", "133253.470000", "133253.473000", "133253.476000", "133253.479000", "133253.482000", "133253.485000", "133253.488000", "133253.491000", "133253.494000", "133253.497000", "133253.501000", "133253.518000", "133253.521000", "133253.524000", "133253.527000", "133253.530000", "133258.228000", "133258.231000", "133258.234000", "133258.237000", "133258.240000"],
      "InstanceCreationTime": ["132913.496000", "132913.499000", "132913.502000", "132913.505000", "132913.508000", "132913.511000", "132913.514000", "132913.517000", "132913.520000", "132913.523000", "132913.527000", "132913.530000", "132913.533000", "132913.536000", "132913.539000", "132913.542000", "132913.545000", "132913.548000", "132913.551000", "132913.569000", "132913.572000", "132913.577000", "132913.580000", "132913.584000", "132913.587000", "132913.590000", "132913.593000", "132913.596000", "132913.599000", "132913.602000", "132913.613000", "132913.616000", "132913.619000", "132913.622000", "132913.625000", "132913.629000", "132913.632000", "132933.459000", "132933.462000", "132933.465000", "132933.468000", "132933.471000", "132933.474000", "132933.478000", "132933.481000", "132933.484000", "132933.487000", "132933.490000", "132933.493000", "132933.496000", "132933.499000", "132933.502000", "132933.505000", "132933.508000", "132933.511000", "132933.514000", "132933.517000", "132933.520000", "132933.523000", "132933.526000", "132933.529000", "132933.540000", "132933.543000", "132933.546000", "132933.549000", "132953.459000", "132953.468000", "132953.471000", "132953.474000", "132953.477000", "132953.480000", "132953.483000", "132953.486000", "132953.489000", "132953.492000", "132953.495000", "132953.498000", "132953.501000", "132953.504000", "132953.507000", "132953.510000", "132953.513000", "132953.516000", "132953.519000", "132953.522000", "132953.525000", "132953.528000", "132953.531000", "132953.534000", "132953.537000", "132953.540000", "132953.543000", "132953.546000", "132953.550000", "133013.458000", "133013.461000", "133013.464000", "133013.467000", "133013.471000", "133013.474000", "133013.477000", "133013.480000", "133013.483000", "133013.486000", "133013.489000", "133013.492000", "133013.495000", "133013.498000", "133013.501000", "133013.504000", "133013.507000", "133013.510000", "133013.513000", "133013.516000", "133013.519000", "133013.522000", "133013.525000", "133013.528000", "133013.531000", "133013.534000", "133013.547000", "133013.550000", "133033.458000", "133033.461000", "133033.464000", "133033.467000", "133033.470000", "133033.473000", "133033.477000", "133033.480000", "133033.483000", "133033.486000", "133033.489000", "133033.492000", "133033.495000", "133033.498000", "133033.501000", "133033.504000", "133033.507000", "133033.510000", "133033.513000", "133033.516000", "133033.519000", "133033.522000", "133033.526000", "133033.530000", "133033.534000", "133033.537000", "133033.540000", "133033.543000", "133053.458000", "133053.461000", "133053.464000", "133053.467000", "133053.470000", "133053.473000", "133053.476000", "133053.480000", "133053.483000", "133053.486000", "133053.489000", "133053.492000", "133053.495000", "133053.498000", "133053.501000", "133053.504000", "133053.507000", "133053.510000", "133053.513000", "133053.516000", "133053.519000", "133053.534000", "133053.537000", "133053.540000", "133053.543000", "133113.458000", "133113.461000", "133113.464000", "133113.467000", "133113.470000", "133113.473000", "133113.476000", "133113.479000", "133113.482000", "133113.486000", "133113.489000", "133113.492000", "133113.495000", "133113.498000", "133113.501000", "133113.504000", "133113.507000", "133113.510000", "133113.513000", "133113.516000", "133133.459000", "133133.462000", "133133.465000", "133133.468000", "133133.471000", "133133.474000", "133133.477000", "133133.480000", "133133.484000", "133133.487000", "133133.490000", "133133.493000", "133133.496000", "133133.505000", "133133.509000", "133133.512000", "133133.515000", "133133.518000", "133133.521000", "133133.524000", "133153.459000", "133153.462000", "133153.465000", "133153.468000", "133153.471000", "133153.474000", "133153.477000", "133153.480000", "133153.483000", "133153.487000", "133153.490000", "133153.493000", "133153.496000", "133153.499000", "133153.502000", "133153.505000", "133153.508000", "133153.511000", "133153.514000", "133153.517000", "133213.459000", "133213.462000", "133213.465000", "133213.468000", "133213.471000", "133213.474000", "133213.478000", "133213.481000", "133213.484000", "133213.487000", "133213.490000", "133213.493000", "133213.496000", "133213.499000", "133213.502000", "133213.505000", "133213.508000", "133213.511000", "133213.514000", "133213.517000", "133233.458000", "133233.461000", "133233.465000", "133233.468000", "133233.471000", "133233.474000", "133233.477000", "133233.480000", "133233.483000", "133233.487000", "133233.490000", "133233.493000", "133233.496000", "133233.499000", "133233.503000", "133233.506000", "133233.509000", "133233.512000", "133233.515000", "133233.518000", "133253.458000", "133253.461000", "133253.464000", "133253.467000", "133253.470000", "133253.473000", "133253.476000", "133253.479000", "133253.482000", "133253.485000", "133253.488000", "133253.491000", "133253.494000", "133253.497000", "133253.501000", "133253.518000", "133253.521000", "133253.524000", "133253.527000", "133253.530000", "133258.228000", "133258.231000", "133258.234000", "133258.237000", "133258.240000"],
      "InstanceNumber": [1, 2, 3, 4, 5, 6, 7, 8, 9, 10, 11, 12, 13, 14, 15, 16, 17, 18, 19, 20, 21, 22, 23, 24, 25, 26, 27, 28, 29, 30, 31, 32, 33, 34, 35, 36, 37, 38, 39, 40, 41, 42, 43, 44, 45, 46, 47, 48, 49, 50, 51, 52, 53, 54, 55, 56, 57, 58, 59, 60, 61, 62, 63, 64, 65, 66, 67, 68, 69, 70, 71, 72, 73, 74, 75, 76, 77, 78, 79, 80, 81, 82, 83, 84, 85, 86, 87, 88, 89, 90, 91, 92, 93, 94, 95, 96, 97, 98, 99, 100, 101, 102, 103, 104, 105, 106, 107, 108, 109, 110, 111, 112, 113, 114, 115, 116, 117, 118, 119, 120, 121, 122, 123, 124, 125, 126, 127, 128, 129, 130, 131, 132, 133, 134, 135, 136, 137, 138, 139, 140, 141, 142, 143, 144, 145, 146, 147, 148, 149, 150, 151, 152, 153, 154, 155, 156, 157, 158, 159, 160, 161, 162, 163, 164, 165, 166, 167, 168, 169, 170, 171, 172, 173, 174, 175, 176, 177, 178, 179, 180, 181, 182, 183, 184, 185, 186, 187, 188, 189, 190, 191, 192, 193, 194, 195, 196, 197, 198, 199, 200, 201, 202, 203, 204, 205, 206, 207, 208, 209, 210, 211, 212, 213, 214, 215, 216, 217, 218, 219, 220, 221, 222, 223, 224, 225, 226, 227, 228, 229, 230, 231, 232, 233, 234, 235, 236, 237, 238, 239, 240, 241, 242, 243, 244, 245, 246, 247, 248, 249, 250, 251, 252, 253, 254, 255, 256, 257, 258, 259, 260, 261, 262, 263, 264, 265, 266, 267, 268, 269, 270, 271, 272, 273, 274, 275, 276, 277, 278, 279, 280, 281, 282, 283, 284, 285, 286, 287, 288, 289, 290, 291, 292, 293, 294, 295, 296, 297, 298, 299, 300],
      "LargestImagePixelValue": [64700, 62342, 62327, 62990, 63625, 63650, 63491, 64992, 64547, 63956, 63289, 62787, 63555, 63227, 63565, 63229, 62645, 61642, 61312, 61153, 61431, 62022, 62618, 61375, 60801, 60289, 56901, 57211, 57040, 57448, 59973, 58751, 58573, 57953, 55154, 56649, 55969, 56661, 56614, 57088, 55159, 56200, 56489, 54997, 57510, 55755, 55463, 56231, 56307, 54182, 55284, 53814, 53353, 55284, 54798, 55948, 55871, 54789, 54794, 53584, 53855, 54854, 55116, 55322, 56677, 55678, 55029, 55398, 55050, 55899, 57017, 56858, 55907, 58716, 56805, 55864, 56479, 55494, 55078, 55835, 54524, 55089, 55660, 54046, 55922, 56675, 56151, 56128, 56105, 53239, 53263, 55394, 53407, 54409, 55493, 50914, 54613, 55089, 54434, 55771, 55289, 53839, 53909, 54026, 54015, 58010, 57600, 57219, 57829, 55871, 57099, 57720, 56719, 58969, 55932, 57965, 59557, 58164, 59225, 60681, 58689, 60921, 60332, 59524, 61375, 59542, 60201, 59816, 58540, 61136, 60851, 60335, 60396, 60706, 59780, 61638, 61197, 60973, 61121, 60054, 59825, 60585, 59669, 61647, 60126, 60130, 59259, 58879, 58616, 59712, 57676, 58392, 59904, 58304, 58892, 60399, 59073, 60491, 61133, 60476, 61076, 60984, 60768, 61558, 59716, 60846, 61059, 60852, 60290, 61605, 59613, 61406, 63034, 60161, 61526, 60879, 61332, 60394, 60758, 59971, 58639, 59969, 60521, 60946, 60928, 61778, 61532, 61267, 61607, 60791, 60624, 60147, 61797, 60596, 61164, 62651, 61326, 60401, 60578, 58716, 59703, 60968, 61788, 60134, 60927, 60119, 59643, 60558, 60742, 60664, 61593, 61891, 59695, 60352, 60699, 59447, 59760, 59177, 58052, 58554, 57751, 58080, 59843, 58833, 60050, 59385, 58487, 57483, 57753, 56988, 57889, 57688, 57156, 58316, 58986, 56966, 59151, 60300, 58938, 60607, 60097, 59187, 61014, 59143, 59078, 59751, 59301, 60853, 61020, 59818, 59365, 59391, 58906, 61134, 61447, 60401, 60657, 60095, 60359, 60669, 59514, 60628, 60309, 59679, 60412, 59393, 59585, 60811, 61356, 60930, 61518, 59674, 59024, 60703, 58659, 59675, 60929, 57846, 58936, 58720, 58080, 59874, 60956, 61513, 61432, 61578, 59051, 60379, 61284, 60108, 60333, 61257, 59543, 60647, 60613, 58888, 59595, 61834, 60888, 61763],
      "WindowCenter": [10650.0, 10594.0, 10570.0, 10574.0, 10568.0, 10569.0, 10580.0, 10597.0, 10598.0, 10593.0, 10605.0, 10616.0, 10619.0, 10622.0, 10620.0, 10621.0, 10631.0, 10618.0, 10613.0, 10622.0, 10612.0, 10609.0, 10622.0, 10613.0, 10603.0, 10607.0, 10583.0, 10593.0, 10589.0, 10586.0, 10609.0, 10603.0, 10595.0, 10599.0, 10571.0, 10579.0, 10567.0, 10579.0, 10565.0, 10578.0, 10563.0, 10571.0, 10579.0, 10566.0, 10573.0, 10559.0, 10558.0, 10565.0, 10565.0, 10546.0, 10549.0, 10550.0, 10542.0, 10568.0, 10570.0, 10577.0, 10582.0, 10572.0, 10568.0, 10542.0, 10539.0, 10542.0, 10550.0, 10550.0, 10562.0, 10554.0, 10545.0, 10548.0, 10547.0, 10560.0, 10586.0, 10588.0, 10574.0, 10588.0, 10572.0, 10558.0, 10561.0, 10546.0, 10540.0, 10541.0, 10530.0, 10533.0, 10541.0, 10529.0, 10544.0, 10543.0, 10537.0, 10535.0, 10535.0, 10508.0, 10505.0, 10524.0, 10514.0, 10518.0, 10539.0, 10510.0, 10538.0, 10551.0, 10546.0, 10551.0, 10549.0, 10531.0, 10531.0, 10534.0, 10528.0, 10570.0, 10569.0, 10555.0, 10568.0, 10543.0, 10549.0, 10556.0, 10548.0, 10574.0, 10552.0, 10576.0, 10597.0, 10586.0, 10593.0, 10608.0, 10579.0, 10593.0, 10597.0, 10585.0, 10603.0, 10585.0, 10573.0, 10574.0, 10560.0, 10590.0, 10586.0, 10582.0, 10593.0, 10598.0, 10580.0, 10595.0, 10587.0, 10583.0, 10585.0, 10574.0, 10579.0, 10591.0, 10590.0, 10606.0, 10594.0, 10589.0, 10592.0, 10601.0, 10601.0, 10606.0, 10594.0, 10606.0, 10611.0, 10588.0, 10582.0, 10599.0, 10571.0, 10557.0, 10568.0, 10562.0, 10560.0, 10562.0, 10551.0, 10558.0, 10548.0, 10546.0, 10552.0, 10554.0, 10551.0, 10567.0, 10562.0, 10579.0, 10616.0, 10595.0, 10597.0, 10599.0, 10588.0, 10591.0, 10598.0, 10587.0, 10575.0, 10582.0, 10584.0, 10589.0, 10589.0, 10587.0, 10591.0, 10582.0, 10587.0, 10592.0, 10584.0, 10570.0, 10586.0, 10585.0, 10586.0, 10599.0, 10592.0, 10575.0, 10570.0, 10558.0, 10561.0, 10568.0, 10577.0, 10567.0, 10577.0, 10576.0, 10572.0, 10592.0, 10598.0, 10597.0, 10606.0, 10622.0, 10614.0, 10612.0, 10610.0, 10592.0, 10588.0, 10583.0, 10576.0, 10581.0, 10570.0, 10566.0, 10572.0, 10562.0, 10572.0, 10576.0, 10569.0, 10566.0, 10575.0, 10564.0, 10575.0, 10586.0, 10587.0, 10597.0, 10619.0, 10598.0, 10620.0, 10617.0, 10590.0, 10585.0, 10575.0, 10555.0, 10570.0, 10555.0, 10546.0, 10558.0, 10543.0, 10554.0, 10562.0, 10547.0, 10557.0, 10559.0, 10562.0, 10594.0, 10601.0, 10596.0, 10591.0, 10585.0, 10579.0, 10573.0, 10562.0, 10566.0, 10574.0, 10562.0, 10580.0, 10569.0, 10576.0, 10604.0, 10619.0, 10615.0, 10621.0, 10597.0, 10577.0, 10590.0, 10565.0, 10566.0, 10576.0, 10557.0, 10559.0, 10573.0, 10576.0, 10586.0, 10599.0, 10590.0, 10577.0, 10579.0, 10557.0, 10566.0, 10572.0, 10563.0, 10562.0, 10567.0, 10558.0, 10569.0, 10567.0, 10558.0, 10571.0, 10613.0, 10626.0, 10632.0],
