{
  "AcquisitionMatrixPE": 104,
  "AcquisitionNumber": 1,
  "AcquisitionTime": "13:40:37.790000",
  "BandwidthPerPixelPhaseEncode": 16.297,
  "BaseResolution": 104,
  "BodyPartExamined": "BRAIN",
  "ConsistencyInfo": "N4_VE11C_LATEST_20160120",
  "ConversionSoftware": "dcm2niix",
  "ConversionSoftwareVersion": "v1.0.20210317",
  "DerivedVendorReportedEchoSpacing": 0.000590009,
  "DeviceSerialNumber": "166018",
  "DwellTime": 2.1e-06,
  "EchoTime": 0.0376,
  "EchoTrainLength": 104,
  "EffectiveEchoSpacing": 0.000590009,
  "FlipAngle": 68,
  "ImageComments": "Unaliased MB6/PE3/LB",
  "ImageOrientationPatientDICOM": [0.999976, -0.00285347, -0.00627495, 0.00209434, 0.993033, -0.117817],
  "ImageType": [
    "ORIGINAL",
    "PRIMARY",
    "M",
    "MB",
    "ND",
    "MOSAIC"
],
  "ImagingFrequency": 123.197,
  "InPlanePhaseEncodingDirectionDICOM": "COL",
  "InstitutionAddress": "Washington Place 6,NYC,NYC,US,10003",
  "InstitutionName": "NYU - CBI",
  "InstitutionalDepartmentName": "Department",
  "MRAcquisitionType": "2D",
  "MagneticFieldStrength": 3,
  "Manufacturer": "Siemens",
  "ManufacturersModelName": "Prisma",
  "Modality": "MR",
  "MultibandAccelerationFactor": 6,
  "PartialFourier": 1,
  "PatientPosition": "HFS",
  "PercentPhaseFOV": 100,
  "PercentSampling": 100,
  "PhaseEncodingDirection": "j",
  "PhaseEncodingSteps": 104,
  "PhaseResolution": 1,
  "PixelBandwidth": 2290,
  "ProcedureStepDescription": "Investigators^Winawer",
  "ProtocolName": "cmrr_mbepi_s6_2mm_66sl_PA_task-wedgering2",
  "PulseSequenceDetails": "%CustomerSeq%\\cmrr_mbep2d_bold",
  "ReceiveCoilActiveElements": "HC1-7",
  "ReceiveCoilName": "HeadNeck_64",
  "ReconMatrixPE": 104,
  "RepetitionTime": 1,
  "SAR": 0.0940058,
  "ScanOptions": "FS",
  "ScanningSequence": "EP",
  "SequenceName": "epfid2d1_104",
  "SequenceVariant": "SK\\SS",
  "SeriesDescription": "cmrr_mbepi_s6_2mm_66sl_PA_task-wedgering2",
  "SeriesNumber": 14,
  "ShimSetting": [299, -12631, -8454, 273, 37, -58, 1, 64],
  "SliceThickness": 2,
  "SliceTiming": [0, 0.5325, 0.0875, 0.6225, 0.1775, 0.7125, 0.265, 0.8, 0.355, 0.89, 0.445, 0, 0.5325, 0.0875, 0.6225, 0.1775, 0.7125, 0.265, 0.8, 0.355, 0.89, 0.445, 0, 0.5325, 0.0875, 0.6225, 0.1775, 0.7125, 0.265, 0.8, 0.355, 0.89, 0.445, 0, 0.5325, 0.0875, 0.6225, 0.1775, 0.7125, 0.265, 0.8, 0.355, 0.89, 0.445, 0, 0.5325, 0.0875, 0.6225, 0.1775, 0.7125, 0.265, 0.8, 0.355, 0.89, 0.445, 0, 0.5325, 0.0875, 0.6225, 0.1775, 0.7125, 0.265, 0.8, 0.355, 0.89, 0.445],
  "SoftwareVersions": "syngo MR E11",
  "SpacingBetweenSlices": 2,
  "StationName": "AWP166018",
  "TaskName": "wedgering2",
  "TotalReadoutTime": 0.060771,
  "TxRefAmp": 292.773,
  "VendorReportedEchoSpacing": 0.00059,
  "WipMemBlock": "618e0de7-d131-4c82-893b-e4e6d3ce8205||Sequence: R016 ve11c/master r/8780670; Nov 27 2017 15:05:12 by eja",
  "dcmmeta_affine": [
    [-1.9999524354934692, 0.004188675433397293, -0.01313483901321888, 108.76008605957031],
    [0.005706930998712778, 1.9860661029815674, -0.23560276627540588, -64.95633697509766],
    [-0.012549897655844688, 0.23563465476036072, 1.98603093624115, -49.256099700927734],
    [0.0, 0.0, 0.0, 1.0]
],
  "dcmmeta_reorient_transform": [
    [0.0, -1.0, 0.0, 103.0],
    [1.0, 0.0, 0.0, 0.0],
    [0.0, 0.0, 1.0, 0.0],
    [0.0, 0.0, 0.0, 1.0]
],
  "dcmmeta_shape": [104, 104, 66, 300],
  "dcmmeta_slice_dim": 2,
  "dcmmeta_version": 0.6,
  "global": {
    "const": {
      "AccessionNumber": "Lffq0p3i",
      "AcquisitionMatrix": [104, 0, 0, 104],
      "AngioFlag": "N",
      "BitsAllocated": 16,
      "BitsStored": 16,
      "BodyPartExamined": "BRAIN",
      "Columns": 936,
      "EchoNumbers": 1,
      "EchoTime": 37.6,
      "EchoTrainLength": 104,
      "FlipAngle": 68.0,
      "HighBit": 15,
      "ImageOrientationPatient": [0.9999762410922, -0.0028534655954, -0.0062749490212, 0.00209433777121, 0.99303307683678, -0.1178173249458],
      "ImagePositionPatient": [-942.91423855489, -963.43791119637, 78.259041528817],
      "ImageType": [
        "ORIGINAL",
        "PRIMARY",
        "M",
        "MB",
        "ND",
        "MOSAIC"
],
      "ImagedNucleus": "1H",
      "ImagingFrequency": 123.196749,
      "InPlanePhaseEncodingDirection": "COL",
      "MRAcquisitionType": "2D",
      "MagneticFieldStrength": 3.0,
      "Manufacturer": "SIEMENS",
      "ManufacturerModelName": "Prisma",
      "Modality": "MR",
      "NumberOfAverages": 1.0,
      "NumberOfPhaseEncodingSteps": 104,
      "PercentPhaseFieldOfView": 100.0,
      "PercentSampling": 100.0,
      "PerformedProcedureStepStartTime": "131518.465000",
      "PhotometricInterpretation": "MONOCHROME2",
      "PixelBandwidth": 2290.0,
      "PixelRepresentation": 0,
      "PixelSpacing": [2.0, 2.0],
      "ProtocolName": "cmrr_mbepi_s6_2mm_66sl_PA_task-wedgering2",
      "RepetitionTime": 1000.0,
      "Rows": 936,
      "SAR": 0.09400578475125,
      "SamplesPerPixel": 1,
      "ScanOptions": "FS",
      "ScanningSequence": "EP",
      "SequenceName": "epfid2d1_104",
      "SequenceVariant": [
        "SK",
        "SS"
],
      "SeriesDescription": "cmrr_mbepi_s6_2mm_66sl_PA_task-wedgering2",
      "SeriesNumber": 14,
      "SeriesTime": "134153.424000",
      "SliceLocation": -41.974394591277,
      "SliceThickness": 2.0,
      "SmallestImagePixelValue": 0,
      "SoftwareVersions": "syngo MR E11",
      "SpacingBetweenSlices": 2.0000000158623,
      "SpecificCharacterSet": "ISO_IR 100",
      "StudyID": "1",
      "StudyTime": "131518.336000",
      "TransmitCoilName": "Body",
      "VariableFlipAngleFlag": "N",
      "WindowCenterWidthExplanation": "Algo1",
      "dBdt": 0.0},
    "slices": {}
  },
  "time": {
    "samples": {
      "AcquisitionNumber": [1, 2, 3, 4, 5, 6, 7, 8, 9, 10, 11, 12, 13, 14, 15, 16, 17, 18, 19, 20, 21, 22, 23, 24, 25, 26, 27, 28, 29, 30, 31, 32, 33, 34, 35, 36, 37, 38, 39, 40, 41, 42, 43, 44, 45, 46, 47, 48, 49, 50, 51, 52, 53, 54, 55, 56, 57, 58, 59, 60, 61, 62, 63, 64, 65, 66, 67, 68, 69, 70, 71, 72, 73, 74, 75, 76, 77, 78, 79, 80, 81, 82, 83, 84, 85, 86, 87, 88, 89, 90, 91, 92, 93, 94, 95, 96, 97, 98, 99, 100, 101, 102, 103, 104, 105, 106, 107, 108, 109, 110, 111, 112, 113, 114, 115, 116, 117, 118, 119, 120, 121, 122, 123, 124, 125, 126, 127, 128, 129, 130, 131, 132, 133, 134, 135, 136, 137, 138, 139, 140, 141, 142, 143, 144, 145, 146, 147, 148, 149, 150, 151, 152, 153, 154, 155, 156, 157, 158, 159, 160, 161, 162, 163, 164, 165, 166, 167, 168, 169, 170, 171, 172, 173, 174, 175, 176, 177, 178, 179, 180, 181, 182, 183, 184, 185, 186, 187, 188, 189, 190, 191, 192, 193, 194, 195, 196, 197, 198, 199, 200, 201, 202, 203, 204, 205, 206, 207, 208, 209, 210, 211, 212, 213, 214, 215, 216, 217, 218, 219, 220, 221, 222, 223, 224, 225, 226, 227, 228, 229, 230, 231, 232, 233, 234, 235, 236, 237, 238, 239, 240, 241, 242, 243, 244, 245, 246, 247, 248, 249, 250, 251, 252, 253, 254, 255, 256, 257, 258, 259, 260, 261, 262, 263, 264, 265, 266, 267, 268, 269, 270, 271, 272, 273, 274, 275, 276, 277, 278, 279, 280, 281, 282, 283, 284, 285, 286, 287, 288, 289, 290, 291, 292, 293, 294, 295, 296, 297, 298, 299, 300],
      "AcquisitionTime": ["134037.790000", "134038.790000", "134039.790000", "134040.790000", "134041.790000", "134042.790000", "134043.790000", "134044.790000", "134045.790000", "134046.790000", "134047.790000", "134048.790000", "134049.790000", "134050.790000", "134051.790000", "134052.790000", "134053.790000", "134054.790000", "134055.790000", "134056.790000", "134057.790000", "134058.790000", "134059.790000", "134100.790000", "134101.790000", "134102.790000", "134103.790000", "134104.790000", "134105.790000", "134106.790000", "134107.790000", "134108.790000", "134109.790000", "134110.790000", "134111.790000", "134112.790000", "134113.790000", "134114.790000", "134115.790000", "134116.790000", "134117.790000", "134118.790000", "134119.790000", "134120.790000", "134121.790000", "134122.790000", "134123.790000", "134124.790000", "134125.790000", "134126.790000", "134127.790000", "134128.790000", "134129.790000", "134130.790000", "134131.790000", "134132.790000", "134133.790000", "134134.790000", "134135.790000", "134136.790000", "134137.790000", "134138.790000", "134139.790000", "134140.790000", "134141.790000", "134142.790000", "134143.790000", "134144.790000", "134145.790000", "134146.790000", "134147.790000", "134148.790000", "134149.790000", "134150.790000", "134151.790000", "134152.790000", "134153.790000", "134154.790000", "134155.790000", "134156.790000", "134157.790000", "134158.790000", "134159.790000", "134200.790000", "134201.790000", "134202.790000", "134203.790000", "134204.790000", "134205.790000", "134206.790000", "134207.790000", "134208.790000", "134209.790000", "134210.790000", "134211.790000", "134212.790000", "134213.790000", "134214.790000", "134215.790000", "134216.790000", "134217.790000", "134218.790000", "134219.790000", "134220.790000", "134221.790000", "134222.790000", "134223.790000", "134224.790000", "134225.790000", "134226.790000", "134227.790000", "134228.790000", "134229.790000", "134230.790000", "134231.790000", "134232.790000", "134233.790000", "134234.790000", "134235.790000", "134236.790000", "134237.790000", "134238.790000", "134239.790000", "134240.790000", "134241.790000", "134242.790000", "134243.790000", "134244.790000", "134245.790000", "134246.790000", "134247.790000", "134248.790000", "134249.790000", "134250.790000", "134251.790000", "134252.790000", "134253.790000", "134254.790000", "134255.790000", "134256.790000", "134257.790000", "134258.790000", "134259.790000", "134300.790000", "134301.790000", "134302.790000", "134303.790000", "134304.790000", "134305.790000", "134306.790000", "134307.790000", "134308.790000", "134309.790000", "134310.790000", "134311.790000", "134312.790000", "134313.790000", "134314.790000", "134315.790000", "134316.790000", "134317.790000", "134318.790000", "134319.790000", "134320.790000", "134321.790000", "134322.790000", "134323.790000", "134324.790000", "134325.790000", "134326.790000", "134327.790000", "134328.790000", "134329.790000", "134330.790000", "134331.790000", "134332.790000", "134333.790000", "134334.790000", "134335.790000", "134336.790000", "134337.790000", "134338.790000", "134339.790000", "134340.790000", "134341.790000", "134342.790000", "134343.790000", "134344.790000", "134345.790000", "134346.790000", "134347.790000", "134348.790000", "134349.790000", "134350.790000", "134351.790000", "134352.790000", "134353.790000", "134354.790000", "134355.790000", "134356.790000", "134357.790000", "134358.790000", "134359.790000", "134400.790000", "134401.790000", "134402.790000", "134403.790000", "134404.790000", "134405.790000", "134406.790000", "134407.790000", "134408.790000", "134409.790000", "134410.790000", "134411.790000", "134412.790000", "134413.790000", "134414.790000", "134415.790000", "134416.790000", "134417.790000", "134418.790000", "134419.790000", "134420.790000", "134421.790000", "134422.790000", "134423.790000", "134424.790000", "134425.790000", "134426.790000", "134427.790000", "134428.790000", "134429.790000", "134430.790000", "134431.790000", "134432.790000", "134433.790000", "134434.790000", "134435.790000", "134436.790000", "134437.790000", "134438.790000", "134439.790000", "134440.790000", "134441.790000", "134442.790000", "134443.790000", "134444.790000", "134445.790000", "134446.790000", "134447.790000", "134448.790000", "134449.790000", "134450.790000", "134451.790000", "134452.790000", "134453.790000", "134454.790000", "134455.790000", "134456.790000", "134457.790000", "134458.790000", "134459.790000", "134500.790000", "134501.790000", "134502.790000", "134503.790000", "134504.790000", "134505.790000", "134506.790000", "134507.790000", "134508.790000", "134509.790000", "134510.790000", "134511.790000", "134512.790000", "134513.790000", "134514.790000", "134515.790000", "134516.790000", "134517.790000", "134518.790000", "134519.790000", "134520.790000", "134521.790000", "134522.790000", "134523.790000", "134524.790000", "134525.790000", "134526.790000", "134527.790000", "134528.790000", "134529.790000", "134530.790000", "134531.790000", "134532.790000", "134533.790000", "134534.790000", "134535.790000", "134536.790000"],
      "ContentTime": ["134153.427000", "134153.431000", "134153.434000", "134153.437000", "134153.440000", "134153.443000", "134153.447000", "134153.450000", "134153.453000", "134153.456000", "134153.459000", "134153.469000", "134153.472000", "134153.475000", "134153.478000", "134153.481000", "134153.489000", "134153.492000", "134153.495000", "134153.498000", "134153.509000", "134153.512000", "134153.516000", "134153.519000", "134153.522000", "134153.525000", "134153.528000", "134153.531000", "134153.534000", "134153.537000", "134153.549000", "134153.552000", "134153.555000", "134153.558000", "134153.561000", "134213.385000", "134213.391000", "134213.394000", "134213.397000", "134213.400000", "134213.403000", "134213.406000", "134213.409000", "134213.412000", "134213.415000", "134213.418000", "134213.421000", "134213.424000", "134213.427000", "134213.430000", "134213.433000", "134213.436000", "134213.439000", "134213.442000", "134213.445000", "134213.450000", "134213.453000", "134213.456000", "134213.459000", "134213.462000", "134213.465000", "134213.468000", "134213.471000", "134233.385000", "134233.388000", "134233.391000", "134233.394000", "134233.397000", "134233.400000", "134233.403000", "134233.406000", "134233.409000", "134233.412000", "134233.415000", "134233.424000", "134233.427000", "134233.430000", "134233.433000", "134233.436000", "134233.439000", "134233.442000", "134233.445000", "134233.449000", "134233.453000", "134233.456000", "134233.459000", "134233.462000", "134233.465000", "134233.468000", "134233.471000", "134233.474000", "134233.477000", "134253.385000", "134253.388000", "134253.391000", "134253.394000", "134253.397000", "134253.400000", "134253.403000", "134253.406000", "134253.409000", "134253.412000", "134253.415000", "134253.418000", "134253.421000", "134253.424000", "134253.427000", "134253.430000", "134253.434000", "134253.437000", "134253.440000", "134253.443000", "134253.446000", "134253.450000", "134253.453000", "134253.456000", "134253.459000", "134253.462000", "134253.465000", "134253.468000", "134313.386000", "134313.389000", "134313.392000", "134313.395000", "134313.398000", "134313.401000", "134313.404000", "134313.407000", "134313.410000", "134313.413000", "134313.416000", "134313.419000", "134313.423000", "134313.426000", "134313.429000", "134313.432000", "134313.435000", "134313.438000", "134313.441000", "134313.444000", "134313.449000", "134313.452000", "134313.455000", "134313.458000", "134313.461000", "134313.465000", "134313.468000", "134313.471000", "134333.386000", "134333.389000", "134333.392000", "134333.395000", "134333.409000", "134333.412000", "134333.416000", "134333.418000", "134333.422000", "134333.425000", "134333.428000", "134333.431000", "134333.434000", "134333.437000", "134333.440000", "134333.443000", "134333.447000", "134333.450000", "134333.454000", "134333.457000", "134333.460000", "134333.463000", "134333.466000", "134333.469000", "134333.472000", "134333.475000", "134353.386000", "134353.389000", "134353.392000", "134353.395000", "134353.398000", "134353.401000", "134353.404000", "134353.407000", "134353.410000", "134353.413000", "134353.416000", "134353.419000", "134353.423000", "134353.426000", "134353.429000", "134353.432000", "134353.435000", "134353.438000", "134353.441000", "134353.444000", "134413.385000", "134413.388000", "134413.391000", "134413.394000", "134413.397000", "134413.404000", "134413.408000", "134413.417000", "134413.420000", "134413.423000", "134413.426000", "134413.446000", "134413.449000", "134413.453000", "134413.456000", "134413.459000", "134413.462000", "134413.465000", "134413.468000", "134413.471000", "134433.385000", "134433.388000", "134433.391000", "134433.394000", "134433.397000", "134433.400000", "134433.403000", "134433.406000", "134433.409000", "134433.412000", "134433.415000", "134433.418000", "134433.427000", "134433.430000", "134433.433000", "134433.437000", "134433.440000", "134433.443000", "134433.447000", "134433.450000", "134453.385000", "134453.388000", "134453.391000", "134453.394000", "134453.397000", "134453.400000", "134453.403000", "134453.407000", "134453.410000", "134453.413000", "134453.416000", "134453.419000", "134453.422000", "134453.425000", "134453.428000", "134453.431000", "134453.434000", "134453.437000", "134453.440000", "134453.455000", "134513.385000", "134513.388000", "134513.391000", "134513.394000", "134513.398000", "134513.401000", "134513.404000", "134513.407000", "134513.411000", "134513.414000", "134513.417000", "134513.420000", "134513.423000", "134513.426000", "134513.429000", "134513.432000", "134513.436000", "134513.439000", "134513.442000", "134513.446000", "134533.386000", "134533.389000", "134533.392000", "134533.395000", "134533.398000", "134533.401000", "134533.404000", "134533.407000", "134533.420000", "134533.423000", "134533.426000", "134533.429000", "134533.432000", "134533.435000", "134533.438000", "134533.441000", "134533.445000", "134533.448000", "134533.452000", "134533.455000", "134538.644000", "134538.647000", "134538.650000", "134538.653000", "134538.657000", "134538.660000"],
      "InstanceCreationTime": ["134153.427000", "134153.431000", "134153.434000", "134153.437000", "134153.440000", "134153.443000", "134153.447000", "134153.450000", "134153.453000", "134153.456000", "134153.459000", "134153.469000", "134153.472000", "134153.475000", "134153.478000", "134153.481000", "134153.489000", "134153.492000", "134153.495000", "134153.498000", "134153.509000", "134153.512000", "134153.516000", "134153.519000", "134153.522000", "134153.525000", "134153.528000", "134153.531000", "134153.534000", "134153.537000", "134153.549000", "134153.552000", "134153.555000", "134153.558000", "134153.561000", "134213.385000", "134213.391000", "134213.394000", "134213.397000", "134213.400000", "134213.403000", "134213.406000", "134213.409000", "134213.412000", "134213.415000", "134213.418000", "134213.421000", "134213.424000", "134213.427000", "134213.430000", "134213.433000", "134213.436000", "134213.439000", "134213.442000", "134213.445000", "134213.450000", "134213.453000", "134213.456000", "134213.459000", "134213.462000", "134213.465000", "134213.468000", "134213.471000", "134233.385000", "134233.388000", "134233.391000", "134233.394000", "134233.397000", "134233.400000", "134233.403000", "134233.406000", "134233.409000", "134233.412000", "134233.415000", "134233.424000", "134233.427000", "134233.430000", "134233.433000", "134233.436000", "134233.439000", "134233.442000", "134233.445000", "134233.449000", "134233.453000", "134233.456000", "134233.459000", "134233.462000", "134233.465000", "134233.468000", "134233.471000", "134233.474000", "134233.477000", "134253.385000", "134253.388000", "134253.391000", "134253.394000", "134253.397000", "134253.400000", "134253.403000", "134253.406000", "134253.409000", "134253.412000", "134253.415000", "134253.418000", "134253.421000", "134253.424000", "134253.427000", "134253.430000", "134253.434000", "134253.437000", "134253.440000", "134253.443000", "134253.446000", "134253.450000", "134253.453000", "134253.456000", "134253.459000", "134253.462000", "134253.465000", "134253.468000", "134313.386000", "134313.389000", "134313.392000", "134313.395000", "134313.398000", "134313.401000", "134313.404000", "134313.407000", "134313.410000", "134313.413000", "134313.416000", "134313.419000", "134313.423000", "134313.426000", "134313.429000", "134313.432000", "134313.435000", "134313.438000", "134313.441000", "134313.444000", "134313.449000", "134313.452000", "134313.455000", "134313.458000", "134313.461000", "134313.465000", "134313.468000", "134313.471000", "134333.386000", "134333.389000", "134333.392000", "134333.395000", "134333.409000", "134333.412000", "134333.416000", "134333.418000", "134333.422000", "134333.425000", "134333.428000", "134333.431000", "134333.434000", "134333.437000", "134333.440000", "134333.443000", "134333.447000", "134333.450000", "134333.454000", "134333.457000", "134333.460000", "134333.463000", "134333.466000", "134333.469000", "134333.472000", "134333.475000", "134353.386000", "134353.389000", "134353.392000", "134353.395000", "134353.398000", "134353.401000", "134353.404000", "134353.407000", "134353.410000", "134353.413000", "134353.416000", "134353.419000", "134353.423000", "134353.426000", "134353.429000", "134353.432000", "134353.435000", "134353.438000", "134353.441000", "134353.444000", "134413.385000", "134413.388000", "134413.391000", "134413.394000", "134413.397000", "134413.404000", "134413.408000", "134413.417000", "134413.420000", "134413.423000", "134413.426000", "134413.446000", "134413.449000", "134413.453000", "134413.456000", "134413.459000", "134413.462000", "134413.465000", "134413.468000", "134413.471000", "134433.385000", "134433.388000", "134433.391000", "134433.394000", "134433.397000", "134433.400000", "134433.403000", "134433.406000", "134433.409000", "134433.412000", "134433.415000", "134433.418000", "134433.427000", "134433.430000", "134433.433000", "134433.437000", "134433.440000", "134433.443000", "134433.447000", "134433.450000", "134453.385000", "134453.388000", "134453.391000", "134453.394000", "134453.397000", "134453.400000", "134453.403000", "134453.407000", "134453.410000", "134453.413000", "134453.416000", "134453.419000", "134453.422000", "134453.425000", "134453.428000", "134453.431000", "134453.434000", "134453.437000", "134453.440000", "134453.455000", "134513.385000", "134513.388000", "134513.391000", "134513.394000", "134513.398000", "134513.401000", "134513.404000", "134513.407000", "134513.411000", "134513.414000", "134513.417000", "134513.420000", "134513.423000", "134513.426000", "134513.429000", "134513.432000", "134513.436000", "134513.439000", "134513.442000", "134513.446000", "134533.386000", "134533.389000", "134533.392000", "134533.395000", "134533.398000", "134533.401000", "134533.404000", "134533.407000", "134533.420000", "134533.423000", "134533.426000", "134533.429000", "134533.432000", "134533.435000", "134533.438000", "134533.441000", "134533.445000", "134533.448000", "134533.452000", "134533.455000", "134538.644000", "134538.647000", "134538.650000", "134538.653000", "134538.657000", "134538.660000"],
      "InstanceNumber": [1, 2, 3, 4, 5, 6, 7, 8, 9, 10, 11, 12, 13, 14, 15, 16, 17, 18, 19, 20, 21, 22, 23, 24, 25, 26, 27, 28, 29, 30, 31, 32, 33, 34, 35, 36, 37, 38, 39, 40, 41, 42, 43, 44, 45, 46, 47, 48, 49, 50, 51, 52, 53, 54, 55, 56, 57, 58, 59, 60, 61, 62, 63, 64, 65, 66, 67, 68, 69, 70, 71, 72, 73, 74, 75, 76, 77, 78, 79, 80, 81, 82, 83, 84, 85, 86, 87, 88, 89, 90, 91, 92, 93, 94, 95, 96, 97, 98, 99, 100, 101, 102, 103, 104, 105, 106, 107, 108, 109, 110, 111, 112, 113, 114, 115, 116, 117, 118, 119, 120, 121, 122, 123, 124, 125, 126, 127, 128, 129, 130, 131, 132, 133, 134, 135, 136, 137, 138, 139, 140, 141, 142, 143, 144, 145, 146, 147, 148, 149, 150, 151, 152, 153, 154, 155, 156, 157, 158, 159, 160, 161, 162, 163, 164, 165, 166, 167, 168, 169, 170, 171, 172, 173, 174, 175, 176, 177, 178, 179, 180, 181, 182, 183, 184, 185, 186, 187, 188, 189, 190, 191, 192, 193, 194, 195, 196, 197, 198, 199, 200, 201, 202, 203, 204, 205, 206, 207, 208, 209, 210, 211, 212, 213, 214, 215, 216, 217, 218, 219, 220, 221, 222, 223, 224, 225, 226, 227, 228, 229, 230, 231, 232, 233, 234, 235, 236, 237, 238, 239, 240, 241, 242, 243, 244, 245, 246, 247, 248, 249, 250, 251, 252, 253, 254, 255, 256, 257, 258, 259, 260, 261, 262, 263, 264, 265, 266, 267, 268, 269, 270, 271, 272, 273, 274, 275, 276, 277, 278, 279, 280, 281, 282, 283, 284, 285, 286, 287, 288, 289, 290, 291, 292, 293, 294, 295, 296, 297, 298, 299, 300],
      "LargestImagePixelValue": [58006, 58424, 59635, 60577, 59571, 59005, 61613, 61621, 59221, 60579, 60482, 61018, 63706, 60910, 61333, 63295, 60559, 61892, 63365, 61464, 63689, 64137, 62081, 63189, 64378, 62327, 62425, 63373, 60647, 62461, 64364, 62835, 62358, 63240, 61781, 62129, 61077, 60735, 61422, 62857, 62864, 63232, 62041, 61165, 61842, 62399, 62140, 62600, 62704, 62661, 63360, 62452, 62003, 62129, 62141, 61531, 63449, 63726, 62516, 62759, 63074, 63283, 64432, 62894, 62076, 63717, 62410, 62839, 64035, 63178, 62819, 62051, 62232, 63092, 64664, 63060, 63159, 63657, 62111, 62390, 64437, 63804, 63552, 63200, 63591, 63010, 64530, 63618, 53046, 56124, 61204, 61170, 60790, 65342, 63598, 63160, 65453, 63689, 63602, 64538, 61769, 61792, 64611, 63708, 62851, 64703, 64497, 65048, 64995, 63926, 65535, 63648, 59405, 61980, 62038, 59217, 62224, 62047, 60266, 63553, 61649, 60441, 62210, 60298, 62003, 63184, 61231, 63968, 64110, 61953, 62402, 62083, 61233, 61869, 61865, 60013, 60635, 64434, 64292, 64499, 63832, 63675, 64963, 64926, 64179, 65535, 64695, 62537, 63316, 64012, 63408, 64323, 65535, 63788, 65535, 64302, 63565, 63485, 63688, 64383, 65284, 64427, 64815, 64723, 62992, 64217, 63960, 64469, 64460, 63320, 62659, 64686, 63851, 64178, 63382, 63192, 63404, 63232, 62719, 64208, 64173, 63178, 63673, 64748, 64198, 65073, 64186, 62884, 64111, 64508, 63767, 63788, 64624, 64753, 63926, 64011, 62794, 62155, 63175, 64414, 64552, 63700, 64072, 63907, 63133, 64161, 63907, 64491, 63988, 65009, 63576, 62866, 63344, 62287, 63616, 62360, 62364, 62889, 63297, 64089, 63803, 63780, 63428, 62197, 61649, 61672, 63365, 63696, 64757, 64326, 61566, 64595, 64682, 63573, 63871, 64732, 61470, 60775, 62861, 62934, 64178, 62802, 62032, 62822, 63285, 62516, 62326, 63111, 64146, 63756, 64448, 64276, 64281, 65066, 63749, 63250, 63178, 60944, 62931, 62842, 63109, 63242, 63319, 63000, 63709, 64215, 62196, 63874, 62242, 59837, 62127, 63300, 62966, 63206, 64073, 62221, 61328, 63028, 61981, 61908, 62616, 60802, 63184, 64346, 64106, 63418, 62495, 62560, 62430, 63896, 63534, 61371, 63655, 63933, 63364, 62795, 64429, 62586, 61159, 63365],
      "WindowCenter": [10663.0, 10634.0, 10629.0, 10627.0, 10613.0, 10622.0, 10632.0, 10629.0, 10611.0, 10616.0, 10613.0, 10625.0, 10638.0, 10617.0, 10621.0, 10630.0, 10616.0, 10625.0, 10635.0, 10621.0, 10643.0, 10632.0, 10622.0, 10637.0, 10645.0, 10645.0, 10658.0, 10661.0, 10651.0, 10659.0, 10655.0, 10638.0, 10646.0, 10653.0, 10644.0, 10649.0, 10630.0, 10631.0, 10634.0, 10642.0, 10650.0, 10664.0, 10648.0, 10644.0, 10640.0, 10637.0, 10634.0, 10636.0, 10644.0, 10637.0, 10630.0, 10624.0, 10635.0, 10644.0, 10636.0, 10634.0, 10634.0, 10623.0, 10616.0, 10612.0, 10613.0, 10618.0, 10614.0, 10610.0, 10606.0, 10615.0, 10605.0, 10624.0, 10641.0, 10644.0, 10641.0, 10627.0, 10630.0, 10644.0, 10661.0, 10659.0, 10656.0, 10634.0, 10608.0, 10613.0, 10611.0, 10605.0, 10614.0, 10604.0, 10620.0, 10626.0, 10634.0, 10641.0, 10551.0, 10668.0, 10688.0, 10670.0, 10651.0, 10660.0, 10615.0, 10607.0, 10617.0, 10601.0, 10602.0, 10612.0, 10586.0, 10595.0, 10606.0, 10593.0, 10599.0, 10615.0, 10625.0, 10630.0, 10638.0, 10645.0, 10660.0, 10638.0, 10613.0, 10624.0, 10608.0, 10595.0, 10606.0, 10614.0, 10605.0, 10623.0, 10600.0, 10593.0, 10596.0, 10583.0, 10603.0, 10598.0, 10589.0, 10617.0, 10617.0, 10609.0, 10618.0, 10620.0, 10635.0, 10640.0, 10641.0, 10633.0, 10642.0, 10658.0, 10657.0, 10656.0, 10641.0, 10649.0, 10649.0, 10640.0, 10644.0, 10652.0, 10656.0, 10639.0, 10639.0, 10628.0, 10617.0, 10623.0, 10618.0, 10613.0, 10624.0, 10616.0, 10610.0, 10603.0, 10615.0, 10622.0, 10631.0, 10629.0, 10633.0, 10626.0, 10619.0, 10615.0, 10616.0, 10621.0, 10611.0, 10610.0, 10613.0, 10635.0, 10629.0, 10622.0, 10616.0, 10612.0, 10628.0, 10628.0, 10635.0, 10645.0, 10635.0, 10627.0, 10628.0, 10632.0, 10640.0, 10643.0, 10649.0, 10665.0, 10676.0, 10651.0, 10641.0, 10638.0, 10623.0, 10615.0, 10603.0, 10605.0, 10599.0, 10583.0, 10590.0, 10600.0, 10594.0, 10585.0, 10588.0, 10589.0, 10587.0, 10605.0, 10598.0, 10612.0, 10624.0, 10634.0, 10638.0, 10635.0, 10654.0, 10638.0, 10637.0, 10613.0, 10603.0, 10606.0, 10617.0, 10617.0, 10622.0, 10632.0, 10636.0, 10617.0, 10614.0, 10623.0, 10620.0, 10612.0, 10621.0, 10623.0, 10612.0, 10631.0, 10626.0, 10617.0, 10626.0, 10627.0, 10600.0, 10592.0, 10601.0, 10606.0, 10603.0, 10598.0, 10607.0, 10622.0, 10629.0, 10621.0, 10609.0, 10593.0, 10609.0, 10601.0, 10605.0, 10614.0, 10623.0, 10628.0, 10636.0, 10630.0, 10625.0, 10597.0, 10602.0, 10590.0, 10588.0, 10588.0, 10588.0, 10590.0, 10592.0, 10596.0, 10591.0, 10599.0, 10600.0, 10594.0, 10611.0, 10619.0, 10619.0, 10629.0, 10639.0, 10644.0, 10651.0, 10661.0, 10643.0, 10621.0, 10614.0, 10583.0, 10590.0, 10595.0, 10587.0, 10582.0, 10568.0, 10568.0, 10577.0, 10577.0, 10579.0, 10564.0, 10585.0, 10590.0, 10587.0, 10596.0, 10615.0, 10620.0, 10625.0, 10641.0],
