{
  "AcquisitionMatrixPE": 104,
  "AcquisitionNumber": 1,
  "AcquisitionTime": "10:52:33.422500",
  "BandwidthPerPixelPhaseEncode": 16.578,
  "BaseResolution": 104,
  "BodyPartExamined": "BRAIN",
  "CoilString": "HC2_4_6_7;NC2",
  "ConsistencyInfo": "N4_VE11C_LATEST_20160120",
  "ConversionSoftware": "dcm2niix",
  "ConversionSoftwareVersion": "v1.0.20190902",
  "DerivedVendorReportedEchoSpacing": 0.000580009,
  "DeviceSerialNumber": "166018",
  "DwellTime": 2.1e-06,
  "EchoTime": 0.037,
  "EchoTrainLength": 104,
  "EffectiveEchoSpacing": 0.000580009,
  "FlipAngle": 68,
  "ImageComments": "Unaliased_MB6_PE3_LB",
  "ImageOrientationPatientDICOM": [0.994735, 0.0983649, 0.0287476, -0.0858036, 0.952809, -0.291193],
  "ImageType": [
    "ORIGINAL",
    "PRIMARY",
    "M",
    "MB",
    "ND",
    "MOSAIC"
],
  "ImagingFrequency": 123.191,
  "InPlanePhaseEncodingDirectionDICOM": "COL",
  "InstitutionAddress": "Washington_Place_6_NYC_NYC_US_10003",
  "InstitutionName": "NYU_-_CBI",
  "InstitutionalDepartmentName": "Department",
  "MRAcquisitionType": "2D",
  "MagneticFieldStrength": 3,
  "Manufacturer": "Siemens",
  "ManufacturersModelName": "Prisma",
  "Modality": "MR",
  "MultibandAccelerationFactor": 6,
  "PartialFourier": 1,
  "PatientPosition": "HFS",
  "PercentPhaseFOV": 100,
  "PhaseEncodingDirection": "j",
  "PhaseEncodingSteps": 104,
  "PhaseResolution": 1,
  "PixelBandwidth": 2290,
  "ProcedureStepDescription": "Investigators_Winawer",
  "ProtocolName": "cmrr_mbepi_s6_2mm_66sl_PA_task-prf",
  "PulseSequenceDetails": "%CustomerSeq%_cmrr_mbep2d_bold",
  "ReceiveCoilActiveElements": "HC2,4,6,7;NC2",
  "ReceiveCoilName": "HeadNeck_64",
  "ReconMatrixPE": 104,
  "RepetitionTime": 1,
  "SAR": 0.0666188,
  "ScanOptions": "FS",
  "ScanningSequence": "EP",
  "SequenceName": "epfid2d1_104",
  "SequenceVariant": "SK_SS",
  "SeriesDescription": "cmrr_mbepi_s6_2mm_66sl_PA_task-prf",
  "SeriesNumber": 12,
  "ShimSetting": [244, -12647, -8398, 668, -53, -67, -38, 2],
  "SliceThickness": 2,
  "SliceTiming": [0, 0.5325, 0.0875, 0.6225, 0.1775, 0.7125, 0.2675, 0.8, 0.355, 0.89, 0.445, 0, 0.5325, 0.0875, 0.6225, 0.1775, 0.7125, 0.2675, 0.8, 0.355, 0.89, 0.445, 0, 0.5325, 0.0875, 0.6225, 0.1775, 0.7125, 0.2675, 0.8, 0.355, 0.89, 0.445, 0, 0.5325, 0.0875, 0.6225, 0.1775, 0.7125, 0.2675, 0.8, 0.355, 0.89, 0.445, 0, 0.5325, 0.0875, 0.6225, 0.1775, 0.7125, 0.2675, 0.8, 0.355, 0.89, 0.445, 0, 0.5325, 0.0875, 0.6225, 0.1775, 0.7125, 0.2675, 0.8, 0.355, 0.89, 0.445],
  "SoftwareVersions": "syngo_MR_E11",
  "SpacingBetweenSlices": 2,
  "StationName": "AWP166018",
  "TaskName": "prf",
  "TotalReadoutTime": 0.0597409,
  "TxRefAmp": 205.051,
  "WipMemBlock": "925f7271-233e-4e9e-842c-738f3a267ba3||Sequence: R016 ve11c/master r/8780670; Nov 27 2017 15:05:12 by eja",
  "dcmmeta_affine": [
    [-1.9894702434539795, -0.1716071516275406, 0.11206832528114319, 116.50248718261719],
    [-0.19672980904579163, 1.905617356300354, -0.5743865966796875, -58.07652282714844],
    [0.057495247572660446, 0.5823861360549927, 1.9124644994735718, -86.4813461303711],
    [0.0, 0.0, 0.0, 1.0]
],
  "dcmmeta_reorient_transform": [
    [0.0, -1.0, 0.0, 103.0],
    [1.0, 0.0, 0.0, 0.0],
    [0.0, 0.0, 1.0, 0.0],
    [0.0, 0.0, 0.0, 1.0]
],
  "dcmmeta_shape": [104, 104, 66, 192],
  "dcmmeta_slice_dim": 2,
  "dcmmeta_version": 0.6,
  "global": {
    "const": {
      "AccessionNumber": "K37FHWMX",
      "AcquisitionMatrix": [104, 0, 0, 104],
      "AngioFlag": "N",
      "BitsAllocated": 16,
      "BitsStored": 16,
      "BodyPartExamined": "BRAIN",
      "Columns": 936,
      "EchoNumbers": 1,
      "EchoTime": 37.0,
      "EchoTrainLength": 104,
      "FlipAngle": 68.0,
      "HighBit": 15,
      "ImageOrientationPatient": [0.99473510022019, 0.09836490489372, 0.02874762381807, -0.0858035725128, 0.95280866484505, -0.2911930547596],
      "ImagePositionPatient": [-855.05798608695, -1012.7784718803, 191.85902162791],
      "ImageType": [
        "ORIGINAL",
        "PRIMARY",
        "M",
        "MB",
        "ND",
        "MOSAIC"
],
      "ImagedNucleus": "1H",
      "ImagingFrequency": 123.190776,
      "InPlanePhaseEncodingDirection": "COL",
      "MRAcquisitionType": "2D",
      "MagneticFieldStrength": 3.0,
      "Manufacturer": "SIEMENS",
      "ManufacturerModelName": "Prisma",
      "Modality": "MR",
      "NumberOfAverages": 1.0,
      "NumberOfPhaseEncodingSteps": 104,
      "PercentPhaseFieldOfView": 100.0,
      "PercentSampling": 100.0,
      "PerformedProcedureStepStartTime": "102817.231000",
      "PhotometricInterpretation": "MONOCHROME2",
      "PixelBandwidth": 2290.0,
      "PixelRepresentation": 0,
      "PixelSpacing": [2.0, 2.0],
      "ProtocolName": "cmrr_mbepi_s6_2mm_66sl_PA_task-prf",
      "RepetitionTime": 1000.0,
      "Rows": 936,
      "SAR": 0.06661879965901,
      "SamplesPerPixel": 1,
      "ScanOptions": "FS",
      "ScanningSequence": "EP",
      "SequenceName": "epfid2d1_104",
      "SequenceVariant": [
        "SK",
        "SS"
],
      "SeriesDescription": "cmrr_mbepi_s6_2mm_66sl_PA_task-prf",
      "SeriesNumber": 12,
      "SeriesTime": "105323.121000",
      "SliceLocation": -59.488947094744,
      "SliceThickness": 2.0,
      "SmallestImagePixelValue": 0,
      "SoftwareVersions": "syngo MR E11",
      "SpacingBetweenSlices": 1.9999999913544,
      "SpecificCharacterSet": "ISO_IR 100",
      "StudyID": "1",
      "StudyTime": "102817.072000",
      "TransmitCoilName": "Body",
      "VariableFlipAngleFlag": "N",
      "WindowCenterWidthExplanation": "Algo1",
      "dBdt": 0.0},
    "slices": {}
  },
  "time": {
    "samples": {
      "AcquisitionNumber": [1, 2, 3, 4, 5, 6, 7, 8, 9, 10, 11, 12, 13, 14, 15, 16, 17, 18, 19, 20, 21, 22, 23, 24, 25, 26, 27, 28, 29, 30, 31, 32, 33, 34, 35, 36, 37, 38, 39, 40, 41, 42, 43, 44, 45, 46, 47, 48, 49, 50, 51, 52, 53, 54, 55, 56, 57, 58, 59, 60, 61, 62, 63, 64, 65, 66, 67, 68, 69, 70, 71, 72, 73, 74, 75, 76, 77, 78, 79, 80, 81, 82, 83, 84, 85, 86, 87, 88, 89, 90, 91, 92, 93, 94, 95, 96, 97, 98, 99, 100, 101, 102, 103, 104, 105, 106, 107, 108, 109, 110, 111, 112, 113, 114, 115, 116, 117, 118, 119, 120, 121, 122, 123, 124, 125, 126, 127, 128, 129, 130, 131, 132, 133, 134, 135, 136, 137, 138, 139, 140, 141, 142, 143, 144, 145, 146, 147, 148, 149, 150, 151, 152, 153, 154, 155, 156, 157, 158, 159, 160, 161, 162, 163, 164, 165, 166, 167, 168, 169, 170, 171, 172, 173, 174, 175, 176, 177, 178, 179, 180, 181, 182, 183, 184, 185, 186, 187, 188, 189, 190, 191, 192],
      "AcquisitionTime": ["105233.422500", "105234.422500", "105235.422500", "105236.422500", "105237.422500", "105238.422500", "105239.422500", "105240.422500", "105241.422500", "105242.422500", "105243.422500", "105244.422500", "105245.422500", "105246.422500", "105247.422500", "105248.422500", "105249.422500", "105250.422500", "105251.422500", "105252.422500", "105253.422500", "105254.422500", "105255.422500", "105256.422500", "105257.422500", "105258.422500", "105259.422500", "105300.422500", "105301.422500", "105302.422500", "105303.422500", "105304.422500", "105305.422500", "105306.422500", "105307.422500", "105308.422500", "105309.422500", "105310.422500", "105311.422500", "105312.422500", "105313.422500", "105314.422500", "105315.422500", "105316.422500", "105317.422500", "105318.422500", "105319.422500", "105320.422500", "105321.422500", "105322.422500", "105323.422500", "105324.422500", "105325.422500", "105326.422500", "105327.422500", "105328.422500", "105329.422500", "105330.422500", "105331.422500", "105332.422500", "105333.422500", "105334.422500", "105335.422500", "105336.422500", "105337.422500", "105338.422500", "105339.422500", "105340.422500", "105341.422500", "105342.422500", "105343.422500", "105344.422500", "105345.422500", "105346.422500", "105347.422500", "105348.422500", "105349.422500", "105350.422500", "105351.422500", "105352.422500", "105353.422500", "105354.422500", "105355.422500", "105356.422500", "105357.422500", "105358.422500", "105359.422500", "105400.422500", "105401.422500", "105402.422500", "105403.422500", "105404.422500", "105405.422500", "105406.422500", "105407.422500", "105408.422500", "105409.422500", "105410.422500", "105411.422500", "105412.422500", "105413.422500", "105414.422500", "105415.422500", "105416.422500", "105417.422500", "105418.422500", "105419.422500", "105420.422500", "105421.422500", "105422.422500", "105423.422500", "105424.422500", "105425.422500", "105426.422500", "105427.422500", "105428.422500", "105429.422500", "105430.422500", "105431.422500", "105432.422500", "105433.422500", "105434.422500", "105435.422500", "105436.422500", "105437.422500", "105438.422500", "105439.422500", "105440.422500", "105441.422500", "105442.422500", "105443.422500", "105444.422500", "105445.422500", "105446.422500", "105447.422500", "105448.422500", "105449.422500", "105450.422500", "105451.422500", "105452.422500", "105453.422500", "105454.422500", "105455.422500", "105456.422500", "105457.422500", "105458.422500", "105459.422500", "105500.422500", "105501.422500", "105502.422500", "105503.422500", "105504.422500", "105505.422500", "105506.422500", "105507.422500", "105508.422500", "105509.422500", "105510.422500", "105511.422500", "105512.422500", "105513.422500", "105514.422500", "105515.422500", "105516.422500", "105517.422500", "105518.422500", "105519.422500", "105520.422500", "105521.422500", "105522.422500", "105523.422500", "105524.422500", "105525.422500", "105526.422500", "105527.422500", "105528.422500", "105529.422500", "105530.422500", "105531.422500", "105532.422500", "105533.422500", "105534.422500", "105535.422500", "105536.422500", "105537.422500", "105538.422500", "105539.422500", "105540.422500", "105541.422500", "105542.422500", "105543.422500", "105544.422500"],
      "ContentTime": ["105323.123000", "105323.130000", "105323.133000", "105323.136000", "105323.141000", "105323.144000", "105323.147000", "105323.150000", "105323.153000", "105323.156000", "105323.159000", "105323.162000", "105323.165000", "105323.168000", "105323.171000", "105323.174000", "105323.177000", "105323.180000", "105323.183000", "105323.186000", "105323.189000", "105323.192000", "105323.200000", "105323.203000", "105323.206000", "105323.209000", "105323.212000", "105323.215000", "105323.218000", "105343.083000", "105343.089000", "105343.092000", "105343.095000", "105343.098000", "105343.101000", "105343.104000", "105343.114000", "105343.117000", "105343.120000", "105343.123000", "105343.126000", "105343.129000", "105343.141000", "105343.144000", "105343.147000", "105343.150000", "105343.153000", "105343.156000", "105343.159000", "105343.201000", "105343.204000", "105343.207000", "105343.210000", "105343.213000", "105343.216000", "105343.219000", "105343.222000", "105343.225000", "105343.228000", "105343.231000", "105343.234000", "105343.237000", "105343.240000", "105343.243000", "105343.246000", "105343.249000", "105343.252000", "105403.083000", "105403.086000", "105403.089000", "105403.092000", "105403.095000", "105403.098000", "105403.101000", "105403.104000", "105403.107000", "105403.110000", "105403.113000", "105403.116000", "105403.119000", "105403.122000", "105403.125000", "105403.128000", "105403.131000", "105403.134000", "105403.138000", "105403.147000", "105403.150000", "105403.153000", "105423.083000", "105423.086000", "105423.089000", "105423.092000", "105423.095000", "105423.098000", "105423.101000", "105423.104000", "105423.107000", "105423.110000", "105423.113000", "105423.116000", "105423.119000", "105423.122000", "105423.125000", "105423.128000", "105423.131000", "105423.134000", "105423.137000", "105423.164000", "105443.084000", "105443.088000", "105443.092000", "105443.096000", "105443.099000", "105443.103000", "105443.106000", "105443.114000", "105443.118000", "105443.121000", "105443.124000", "105443.127000", "105443.130000", "105443.134000", "105443.137000", "105443.141000", "105443.145000", "105443.149000", "105443.152000", "105443.156000", "105503.083000", "105503.086000", "105503.089000", "105503.092000", "105503.095000", "105503.098000", "105503.101000", "105503.104000", "105503.107000", "105503.110000", "105503.113000", "105503.116000", "105503.119000", "105503.122000", "105503.125000", "105503.129000", "105503.132000", "105503.135000", "105503.138000", "105503.141000", "105523.083000", "105523.086000", "105523.089000", "105523.092000", "105523.095000", "105523.098000", "105523.101000", "105523.104000", "105523.107000", "105523.110000", "105523.113000", "105523.117000", "105523.120000", "105523.123000", "105523.125000", "105523.129000", "105523.132000", "105523.135000", "105523.137000", "105523.141000", "105543.083000", "105543.086000", "105543.089000", "105543.092000", "105543.095000", "105543.098000", "105543.101000", "105543.104000", "105543.107000", "105543.110000", "105543.113000", "105543.116000", "105543.119000", "105543.122000", "105543.125000", "105543.128000", "105543.131000", "105543.134000", "105543.137000", "105543.140000", "105545.876000", "105545.880000", "105545.883000"],
      "InstanceCreationTime": ["105323.123000", "105323.130000", "105323.133000", "105323.136000", "105323.141000", "105323.144000", "105323.147000", "105323.150000", "105323.153000", "105323.156000", "105323.159000", "105323.162000", "105323.165000", "105323.168000", "105323.171000", "105323.174000", "105323.177000", "105323.180000", "105323.183000", "105323.186000", "105323.189000", "105323.192000", "105323.200000", "105323.203000", "105323.206000", "105323.209000", "105323.212000", "105323.215000", "105323.218000", "105343.083000", "105343.089000", "105343.092000", "105343.095000", "105343.098000", "105343.101000", "105343.104000", "105343.114000", "105343.117000", "105343.120000", "105343.123000", "105343.126000", "105343.129000", "105343.141000", "105343.144000", "105343.147000", "105343.150000", "105343.153000", "105343.156000", "105343.159000", "105343.201000", "105343.204000", "105343.207000", "105343.210000", "105343.213000", "105343.216000", "105343.219000", "105343.222000", "105343.225000", "105343.228000", "105343.231000", "105343.234000", "105343.237000", "105343.240000", "105343.243000", "105343.246000", "105343.249000", "105343.252000", "105403.083000", "105403.086000", "105403.089000", "105403.092000", "105403.095000", "105403.098000", "105403.101000", "105403.104000", "105403.107000", "105403.110000", "105403.113000", "105403.116000", "105403.119000", "105403.122000", "105403.125000", "105403.128000", "105403.131000", "105403.134000", "105403.138000", "105403.147000", "105403.150000", "105403.153000", "105423.083000", "105423.086000", "105423.089000", "105423.092000", "105423.095000", "105423.098000", "105423.101000", "105423.104000", "105423.107000", "105423.110000", "105423.113000", "105423.116000", "105423.119000", "105423.122000", "105423.125000", "105423.128000", "105423.131000", "105423.134000", "105423.137000", "105423.164000", "105443.084000", "105443.088000", "105443.092000", "105443.096000", "105443.099000", "105443.103000", "105443.106000", "105443.114000", "105443.118000", "105443.121000", "105443.124000", "105443.127000", "105443.130000", "105443.134000", "105443.137000", "105443.141000", "105443.145000", "105443.149000", "105443.152000", "105443.156000", "105503.083000", "105503.086000", "105503.089000", "105503.092000", "105503.095000", "105503.098000", "105503.101000", "105503.104000", "105503.107000", "105503.110000", "105503.113000", "105503.116000", "105503.119000", "105503.122000", "105503.125000", "105503.129000", "105503.132000", "105503.135000", "105503.138000", "105503.141000", "105523.083000", "105523.086000", "105523.089000", "105523.092000", "105523.095000", "105523.098000", "105523.101000", "105523.104000", "105523.107000", "105523.110000", "105523.113000", "105523.117000", "105523.120000", "105523.123000", "105523.125000", "105523.129000", "105523.132000", "105523.135000", "105523.137000", "105523.141000", "105543.083000", "105543.086000", "105543.089000", "105543.092000", "105543.095000", "105543.098000", "105543.101000", "105543.104000", "105543.107000", "105543.110000", "105543.113000", "105543.116000", "105543.119000", "105543.122000", "105543.125000", "105543.128000", "105543.131000", "105543.134000", "105543.137000", "105543.140000", "105545.876000", "105545.880000", "105545.883000"],
      "InstanceNumber": [1, 2, 3, 4, 5, 6, 7, 8, 9, 10, 11, 12, 13, 14, 15, 16, 17, 18, 19, 20, 21, 22, 23, 24, 25, 26, 27, 28, 29, 30, 31, 32, 33, 34, 35, 36, 37, 38, 39, 40, 41, 42, 43, 44, 45, 46, 47, 48, 49, 50, 51, 52, 53, 54, 55, 56, 57, 58, 59, 60, 61, 62, 63, 64, 65, 66, 67, 68, 69, 70, 71, 72, 73, 74, 75, 76, 77, 78, 79, 80, 81, 82, 83, 84, 85, 86, 87, 88, 89, 90, 91, 92, 93, 94, 95, 96, 97, 98, 99, 100, 101, 102, 103, 104, 105, 106, 107, 108, 109, 110, 111, 112, 113, 114, 115, 116, 117, 118, 119, 120, 121, 122, 123, 124, 125, 126, 127, 128, 129, 130, 131, 132, 133, 134, 135, 136, 137, 138, 139, 140, 141, 142, 143, 144, 145, 146, 147, 148, 149, 150, 151, 152, 153, 154, 155, 156, 157, 158, 159, 160, 161, 162, 163, 164, 165, 166, 167, 168, 169, 170, 171, 172, 173, 174, 175, 176, 177, 178, 179, 180, 181, 182, 183, 184, 185, 186, 187, 188, 189, 190, 191, 192],
      "LargestImagePixelValue": [28540, 28192, 27947, 28282, 27938, 28538, 27894, 29090, 28304, 28111, 28135, 28263, 27709, 28432, 28113, 28754, 28122, 28857, 28713, 28708, 28658, 27869, 28949, 28360, 27592, 28365, 28879, 27733, 28642, 28001, 28075, 28674, 27846, 28311, 27896, 29212, 28266, 28848, 28846, 28109, 27560, 28526, 27475, 27886, 27921, 27560, 28642, 27248, 27296, 27253, 27235, 27136, 27400, 27080, 28049, 27753, 27628, 28293, 27685, 27996, 28020, 27558, 27690, 28671, 27284, 28236, 27821, 27877, 28783, 28212, 28180, 27968, 26912, 27373, 28543, 27672, 27853, 27963, 27621, 28196, 28020, 27948, 28212, 27767, 28012, 29273, 28323, 28275, 28146, 27787, 27839, 27943, 27240, 26902, 27232, 27330, 27471, 27151, 27057, 28066, 27265, 28763, 28956, 28315, 28314, 27290, 27711, 28008, 27100, 27754, 27771, 27618, 28120, 27963, 27715, 28133, 27397, 27064, 26825, 27105, 26636, 27753, 27314, 27011, 27846, 27666, 28434, 27907, 27075, 27639, 26771, 27302, 27486, 27349, 28296, 28478, 28339, 29426, 27866, 27572, 28791, 28439, 28147, 29494, 28479, 27801, 29104, 29107, 28560, 28480, 29831, 28262, 27363, 27888, 26460, 27308, 27450, 27811, 27862, 28496, 27916, 28698, 28101, 26736, 27366, 27850, 26848, 27741, 27929, 27429, 28447, 27722, 26927, 27647, 27477, 26860, 27713, 28394, 27076, 28228, 28447, 27827, 28500, 28505, 28070, 27685, 28977, 27518, 28372, 27976, 27871, 28376],
      "WindowCenter": [8769.0, 8742.0, 8726.0, 8732.0, 8735.0, 8757.0, 8773.0, 8814.0, 8804.0, 8781.0, 8769.0, 8762.0, 8748.0, 8759.0, 8753.0, 8775.0, 8787.0, 8795.0, 8803.0, 8794.0, 8785.0, 8765.0, 8768.0, 8766.0, 8756.0, 8774.0, 8773.0, 8764.0, 8775.0, 8777.0, 8772.0, 8776.0, 8763.0, 8769.0, 8771.0, 8800.0, 8797.0, 8810.0, 8794.0, 8787.0, 8766.0, 8767.0, 8746.0, 8746.0, 8760.0, 8764.0, 8781.0, 8749.0, 8748.0, 8739.0, 8739.0, 8738.0, 8751.0, 8756.0, 8774.0, 8769.0, 8757.0, 8768.0, 8768.0, 8770.0, 8768.0, 8755.0, 8771.0, 8790.0, 8766.0, 8763.0, 8755.0, 8755.0, 8757.0, 8757.0, 8753.0, 8751.0, 8734.0, 8747.0, 8756.0, 8747.0, 8761.0, 8753.0, 8754.0, 8761.0, 8768.0, 8778.0, 8780.0, 8789.0, 8789.0, 8800.0, 8786.0, 8778.0, 8768.0, 8753.0, 8751.0, 8743.0, 8739.0, 8732.0, 8736.0, 8728.0, 8727.0, 8727.0, 8737.0, 8759.0, 8758.0, 8791.0, 8789.0, 8771.0, 8768.0, 8756.0, 8756.0, 8760.0, 8748.0, 8753.0, 8754.0, 8761.0, 8759.0, 8744.0, 8750.0, 8741.0, 8726.0, 8719.0, 8705.0, 8709.0, 8696.0, 8731.0, 8719.0, 8731.0, 8755.0, 8765.0, 8775.0, 8753.0, 8734.0, 8729.0, 8718.0, 8733.0, 8748.0, 8769.0, 8797.0, 8813.0, 8808.0, 8809.0, 8782.0, 8768.0, 8776.0, 8771.0, 8787.0, 8798.0, 8780.0, 8766.0, 8777.0, 8780.0, 8771.0, 8771.0, 8787.0, 8761.0, 8756.0, 8746.0, 8729.0, 8743.0, 8748.0, 8763.0, 8766.0, 8784.0, 8783.0, 8795.0, 8781.0, 8754.0, 8748.0, 8744.0, 8733.0, 8754.0, 8763.0, 8772.0, 8775.0, 8755.0, 8733.0, 8723.0, 8736.0, 8731.0, 8746.0, 8767.0, 8751.0, 8769.0, 8769.0, 8762.0, 8775.0, 8769.0, 8762.0, 8761.0, 8773.0, 8758.0, 8769.0, 8764.0, 8774.0, 8778.0],
      "WindowWidth": [18751.0, 18691.0, 18657.0, 18668.0, 18678.0, 18724.0, 18767.0, 18839.0, 18828.0, 18777.0, 18746.0, 18732.0, 18707.0, 18723.0, 18715.0, 18760.0, 18794.0, 18811.0, 18829.0, 18807.0, 18784.0, 18747.0, 18743.0, 18737.0, 18722.0, 18751.0, 18750.0, 18740.0, 18755.0, 18764.0, 18757.0, 18761.0, 18741.0, 18749.0, 18761.0, 18815.0, 18813.0, 18834.0, 18802.0, 18789.0, 18749.0, 18739.0, 18702.0, 18698.0, 18724.0, 18739.0, 18759.0, 18705.0, 18703.0, 18685.0, 18684.0, 18683.0, 18707.0, 18726.0, 18754.0, 18747.0, 18730.0, 18741.0, 18744.0, 18750.0, 18740.0, 18722.0, 18754.0, 18787.0, 18751.0, 18741.0, 18726.0, 18727.0, 18722.0, 18723.0, 18720.0, 18711.0, 18686.0, 18707.0, 18714.0, 18706.0, 18731.0, 18717.0, 18722.0, 18733.0, 18746.0, 18771.0, 18776.0, 18796.0, 18795.0, 18808.0, 18787.0, 18768.0, 18745.0, 18712.0, 18704.0, 18688.0, 18687.0, 18675.0, 18676.0, 18659.0, 18655.0, 18660.0, 18686.0, 18726.0, 18732.0, 18786.0, 18777.0, 18748.0, 18739.0, 18723.0, 18722.0, 18726.0, 18709.0, 18715.0, 18720.0, 18731.0, 18724.0, 18696.0, 18707.0, 18683.0, 18657.0, 18644.0, 18618.0, 18620.0, 18599.0, 18661.0, 18643.0, 18675.0, 18720.0, 18744.0, 18753.0, 18710.0, 18676.0, 18662.0, 18648.0, 18677.0, 18711.0, 18760.0, 18814.0, 18845.0, 18839.0, 18829.0, 18779.0, 18753.0, 18756.0, 18751.0, 18786.0, 18801.0, 18770.0, 18743.0, 18757.0, 18760.0, 18753.0, 18751.0, 18771.0, 18727.0, 18717.0, 18696.0, 18674.0, 18700.0, 18708.0, 18742.0, 18750.0, 18784.0, 18792.0, 18809.0, 18782.0, 18730.0, 18704.0, 18688.0, 18676.0, 18713.0, 18734.0, 18753.0, 18752.0, 18714.0, 18672.0, 18648.0, 18672.0, 18670.0, 18700.0, 18738.0, 18717.0, 18744.0, 18742.0, 18732.0, 18752.0, 18744.0, 18732.0, 18730.0, 18749.0, 18732.0, 18748.0, 18744.0, 18763.0, 18768.0]
    },
    "slices": {}
  },
  "NumberOfVolumes": 192
}