{
  "AcquisitionMatrixPE": 104,
  "AcquisitionNumber": 1,
  "AcquisitionTime": "10:43:13.197500",
  "BandwidthPerPixelPhaseEncode": 16.578,
  "BaseResolution": 104,
  "BodyPartExamined": "BRAIN",
  "CoilString": "HC2_4_6_7;NC2",
  "ConsistencyInfo": "N4_VE11C_LATEST_20160120",
  "ConversionSoftware": "dcm2niix",
  "ConversionSoftwareVersion": "v1.0.20190902",
  "DerivedVendorReportedEchoSpacing": 0.000580009,
  "DeviceSerialNumber": "166018",
  "DwellTime": 2.1e-06,
  "EchoTime": 0.037,
  "EchoTrainLength": 104,
  "EffectiveEchoSpacing": 0.000580009,
  "FlipAngle": 68,
  "ImageComments": "Unaliased_MB6_PE3_LB",
  "ImageOrientationPatientDICOM": [0.994735, 0.0983649, 0.0287476, -0.0858036, 0.952809, -0.291193],
  "ImageType": [
    "ORIGINAL",
    "PRIMARY",
    "M",
    "MB",
    "ND",
    "MOSAIC"
],
  "ImagingFrequency": 123.191,
  "InPlanePhaseEncodingDirectionDICOM": "COL",
  "InstitutionAddress": "Washington_Place_6_NYC_NYC_US_10003",
  "InstitutionName": "NYU_-_CBI",
  "InstitutionalDepartmentName": "Department",
  "MRAcquisitionType": "2D",
  "MagneticFieldStrength": 3,
  "Manufacturer": "Siemens",
  "ManufacturersModelName": "Prisma",
  "Modality": "MR",
  "MultibandAccelerationFactor": 6,
  "PartialFourier": 1,
  "PatientPosition": "HFS",
  "PercentPhaseFOV": 100,
  "PhaseEncodingDirection": "j",
  "PhaseEncodingSteps": 104,
  "PhaseResolution": 1,
  "PixelBandwidth": 2290,
  "ProcedureStepDescription": "Investigators_Winawer",
  "ProtocolName": "cmrr_mbepi_s6_2mm_66sl_PA_task-prf",
  "PulseSequenceDetails": "%CustomerSeq%_cmrr_mbep2d_bold",
  "ReceiveCoilActiveElements": "HC2,4,6,7;NC2",
  "ReceiveCoilName": "HeadNeck_64",
  "ReconMatrixPE": 104,
  "RepetitionTime": 1,
  "SAR": 0.0666188,
  "ScanOptions": "FS",
  "ScanningSequence": "EP",
  "SequenceName": "epfid2d1_104",
  "SequenceVariant": "SK_SS",
  "SeriesDescription": "cmrr_mbepi_s6_2mm_66sl_PA_task-prf",
  "SeriesNumber": 8,
  "ShimSetting": [244, -12647, -8398, 668, -53, -67, -38, 2],
  "SliceThickness": 2,
  "SliceTiming": [0, 0.535, 0.0875, 0.6225, 0.1775, 0.7125, 0.2675, 0.8025, 0.355, 0.89, 0.445, 0, 0.535, 0.0875, 0.6225, 0.1775, 0.7125, 0.2675, 0.8025, 0.355, 0.89, 0.445, 0, 0.535, 0.0875, 0.6225, 0.1775, 0.7125, 0.2675, 0.8025, 0.355, 0.89, 0.445, 0, 0.535, 0.0875, 0.6225, 0.1775, 0.7125, 0.2675, 0.8025, 0.355, 0.89, 0.445, 0, 0.535, 0.0875, 0.6225, 0.1775, 0.7125, 0.2675, 0.8025, 0.355, 0.89, 0.445, 0, 0.535, 0.0875, 0.6225, 0.1775, 0.7125, 0.2675, 0.8025, 0.355, 0.89, 0.445],
  "SoftwareVersions": "syngo_MR_E11",
  "SpacingBetweenSlices": 2,
  "StationName": "AWP166018",
  "TaskName": "prf",
  "TotalReadoutTime": 0.0597409,
  "TxRefAmp": 205.051,
  "WipMemBlock": "925f7271-233e-4e9e-842c-738f3a267ba3||Sequence: R016 ve11c/master r/8780670; Nov 27 2017 15:05:12 by eja",
  "dcmmeta_affine": [
    [-1.9894702434539795, -0.1716071516275406, 0.11206832528114319, 116.50248718261719],
    [-0.19672980904579163, 1.905617356300354, -0.5743865966796875, -58.07652282714844],
    [0.057495247572660446, 0.5823861360549927, 1.9124644994735718, -86.4813461303711],
    [0.0, 0.0, 0.0, 1.0]
],
  "dcmmeta_reorient_transform": [
    [0.0, -1.0, 0.0, 103.0],
    [1.0, 0.0, 0.0, 0.0],
    [0.0, 0.0, 1.0, 0.0],
    [0.0, 0.0, 0.0, 1.0]
],
  "dcmmeta_shape": [104, 104, 66, 192],
  "dcmmeta_slice_dim": 2,
  "dcmmeta_version": 0.6,
  "global": {
    "const": {
      "AccessionNumber": "K37FHWMX",
      "AcquisitionMatrix": [104, 0, 0, 104],
      "AngioFlag": "N",
      "BitsAllocated": 16,
      "BitsStored": 16,
      "BodyPartExamined": "BRAIN",
      "Columns": 936,
      "EchoNumbers": 1,
      "EchoTime": 37.0,
      "EchoTrainLength": 104,
      "FlipAngle": 68.0,
      "HighBit": 15,
      "ImageOrientationPatient": [0.99473510022019, 0.09836490489372, 0.02874762381807, -0.0858035725128, 0.95280866484505, -0.2911930547596],
      "ImagePositionPatient": [-855.05798608695, -1012.7784718803, 191.85902162791],
      "ImageType": [
        "ORIGINAL",
        "PRIMARY",
        "M",
        "MB",
        "ND",
        "MOSAIC"
],
      "ImagedNucleus": "1H",
      "ImagingFrequency": 123.190776,
      "InPlanePhaseEncodingDirection": "COL",
      "MRAcquisitionType": "2D",
      "MagneticFieldStrength": 3.0,
      "Manufacturer": "SIEMENS",
      "ManufacturerModelName": "Prisma",
      "Modality": "MR",
      "NumberOfAverages": 1.0,
      "NumberOfPhaseEncodingSteps": 104,
      "PercentPhaseFieldOfView": 100.0,
      "PercentSampling": 100.0,
      "PerformedProcedureStepStartTime": "102817.231000",
      "PhotometricInterpretation": "MONOCHROME2",
      "PixelBandwidth": 2290.0,
      "PixelRepresentation": 0,
      "PixelSpacing": [2.0, 2.0],
      "ProtocolName": "cmrr_mbepi_s6_2mm_66sl_PA_task-prf",
      "RepetitionTime": 1000.0,
      "Rows": 936,
      "SAR": 0.06661879965901,
      "SamplesPerPixel": 1,
      "ScanOptions": "FS",
      "ScanningSequence": "EP",
      "SequenceName": "epfid2d1_104",
      "SequenceVariant": [
        "SK",
        "SS"
],
      "SeriesDescription": "cmrr_mbepi_s6_2mm_66sl_PA_task-prf",
      "SeriesNumber": 8,
      "SeriesTime": "104402.971000",
      "SliceLocation": -59.488947094744,
      "SliceThickness": 2.0,
      "SmallestImagePixelValue": 0,
      "SoftwareVersions": "syngo MR E11",
      "SpacingBetweenSlices": 1.9999999913544,
      "SpecificCharacterSet": "ISO_IR 100",
      "StudyID": "1",
      "StudyTime": "102817.072000",
      "TransmitCoilName": "Body",
      "VariableFlipAngleFlag": "N",
      "WindowCenterWidthExplanation": "Algo1",
      "dBdt": 0.0},
    "slices": {}
  },
  "time": {
    "samples": {
      "AcquisitionNumber": [1, 2, 3, 4, 5, 6, 7, 8, 9, 10, 11, 12, 13, 14, 15, 16, 17, 18, 19, 20, 21, 22, 23, 24, 25, 26, 27, 28, 29, 30, 31, 32, 33, 34, 35, 36, 37, 38, 39, 40, 41, 42, 43, 44, 45, 46, 47, 48, 49, 50, 51, 52, 53, 54, 55, 56, 57, 58, 59, 60, 61, 62, 63, 64, 65, 66, 67, 68, 69, 70, 71, 72, 73, 74, 75, 76, 77, 78, 79, 80, 81, 82, 83, 84, 85, 86, 87, 88, 89, 90, 91, 92, 93, 94, 95, 96, 97, 98, 99, 100, 101, 102, 103, 104, 105, 106, 107, 108, 109, 110, 111, 112, 113, 114, 115, 116, 117, 118, 119, 120, 121, 122, 123, 124, 125, 126, 127, 128, 129, 130, 131, 132, 133, 134, 135, 136, 137, 138, 139, 140, 141, 142, 143, 144, 145, 146, 147, 148, 149, 150, 151, 152, 153, 154, 155, 156, 157, 158, 159, 160, 161, 162, 163, 164, 165, 166, 167, 168, 169, 170, 171, 172, 173, 174, 175, 176, 177, 178, 179, 180, 181, 182, 183, 184, 185, 186, 187, 188, 189, 190, 191, 192],
      "AcquisitionTime": ["104313.197500", "104314.197500", "104315.197500", "104316.197500", "104317.197500", "104318.197500", "104319.197500", "104320.197500", "104321.197500", "104322.197500", "104323.197500", "104324.197500", "104325.197500", "104326.197500", "104327.197500", "104328.197500", "104329.197500", "104330.197500", "104331.197500", "104332.197500", "104333.197500", "104334.197500", "104335.197500", "104336.197500", "104337.197500", "104338.197500", "104339.197500", "104340.197500", "104341.197500", "104342.197500", "104343.197500", "104344.197500", "104345.197500", "104346.197500", "104347.197500", "104348.197500", "104349.197500", "104350.197500", "104351.197500", "104352.197500", "104353.197500", "104354.197500", "104355.197500", "104356.197500", "104357.197500", "104358.197500", "104359.197500", "104400.197500", "104401.197500", "104402.197500", "104403.197500", "104404.197500", "104405.197500", "104406.197500", "104407.197500", "104408.197500", "104409.197500", "104410.197500", "104411.197500", "104412.197500", "104413.197500", "104414.197500", "104415.197500", "104416.197500", "104417.197500", "104418.197500", "104419.197500", "104420.197500", "104421.197500", "104422.197500", "104423.197500", "104424.197500", "104425.197500", "104426.197500", "104427.197500", "104428.197500", "104429.197500", "104430.197500", "104431.197500", "104432.197500", "104433.197500", "104434.197500", "104435.197500", "104436.197500", "104437.197500", "104438.197500", "104439.197500", "104440.197500", "104441.197500", "104442.197500", "104443.197500", "104444.197500", "104445.197500", "104446.197500", "104447.197500", "104448.197500", "104449.197500", "104450.197500", "104451.197500", "104452.197500", "104453.197500", "104454.197500", "104455.197500", "104456.197500", "104457.197500", "104458.197500", "104459.197500", "104500.197500", "104501.197500", "104502.197500", "104503.197500", "104504.197500", "104505.197500", "104506.197500", "104507.197500", "104508.197500", "104509.197500", "104510.197500", "104511.197500", "104512.197500", "104513.197500", "104514.197500", "104515.197500", "104516.197500", "104517.197500", "104518.197500", "104519.197500", "104520.197500", "104521.197500", "104522.197500", "104523.197500", "104524.197500", "104525.197500", "104526.197500", "104527.197500", "104528.197500", "104529.197500", "104530.197500", "104531.197500", "104532.197500", "104533.197500", "104534.197500", "104535.197500", "104536.197500", "104537.197500", "104538.197500", "104539.197500", "104540.197500", "104541.197500", "104542.197500", "104543.197500", "104544.197500", "104545.197500", "104546.197500", "104547.197500", "104548.197500", "104549.197500", "104550.197500", "104551.197500", "104552.197500", "104553.197500", "104554.197500", "104555.197500", "104556.197500", "104557.197500", "104558.197500", "104559.197500", "104600.197500", "104601.197500", "104602.197500", "104603.197500", "104604.197500", "104605.197500", "104606.197500", "104607.197500", "104608.197500", "104609.197500", "104610.197500", "104611.197500", "104612.197500", "104613.197500", "104614.197500", "104615.197500", "104616.197500", "104617.197500", "104618.197500", "104619.197500", "104620.197500", "104621.197500", "104622.197500", "104623.197500", "104624.197500"],
      "ContentTime": ["104402.974000", "104402.977000", "104402.981000", "104402.984000", "104402.987000", "104402.990000", "104402.993000", "104402.996000", "104403.000000", "104403.003000", "104403.006000", "104403.009000", "104403.012000", "104403.015000", "104403.018000", "104403.021000", "104403.030000", "104403.033000", "104403.045000", "104403.048000", "104403.051000", "104403.054000", "104403.057000", "104403.060000", "104403.063000", "104403.066000", "104403.069000", "104403.072000", "104422.945000", "104422.948000", "104422.951000", "104422.954000", "104422.957000", "104422.960000", "104422.970000", "104422.973000", "104422.976000", "104422.979000", "104422.982000", "104422.985000", "104422.988000", "104422.991000", "104422.994000", "104422.997000", "104423.001000", "104423.004000", "104423.007000", "104423.010000", "104423.013000", "104423.016000", "104423.018000", "104423.021000", "104423.024000", "104423.027000", "104423.030000", "104423.033000", "104423.036000", "104423.039000", "104423.042000", "104423.045000", "104423.048000", "104423.051000", "104423.059000", "104423.062000", "104423.065000", "104423.068000", "104442.945000", "104442.948000", "104442.951000", "104442.954000", "104442.957000", "104442.960000", "104442.963000", "104442.966000", "104442.969000", "104442.972000", "104442.975000", "104442.978000", "104442.981000", "104442.984000", "104442.987000", "104442.990000", "104442.993000", "104442.996000", "104443.000000", "104443.003000", "104443.006000", "104443.009000", "104443.012000", "104502.945000", "104502.948000", "104502.951000", "104502.954000", "104502.957000", "104502.960000", "104502.963000", "104502.966000", "104502.969000", "104502.972000", "104502.975000", "104502.978000", "104502.981000", "104502.984000", "104502.987000", "104502.990000", "104502.993000", "104502.996000", "104503.000000", "104503.003000", "104522.946000", "104522.949000", "104522.952000", "104522.955000", "104522.958000", "104522.961000", "104522.964000", "104522.967000", "104522.970000", "104522.973000", "104522.976000", "104522.979000", "104522.982000", "104522.985000", "104522.988000", "104522.991000", "104522.994000", "104522.997000", "104523.001000", "104523.004000", "104542.945000", "104542.948000", "104542.951000", "104542.960000", "104542.963000", "104542.966000", "104542.969000", "104542.972000", "104542.975000", "104542.978000", "104542.981000", "104542.984000", "104542.987000", "104542.990000", "104542.993000", "104542.996000", "104543.000000", "104543.003000", "104543.006000", "104543.009000", "104602.945000", "104602.948000", "104602.951000", "104602.954000", "104602.957000", "104602.960000", "104602.963000", "104602.966000", "104602.969000", "104602.973000", "104602.976000", "104602.978000", "104602.981000", "104602.984000", "104602.987000", "104602.990000", "104602.993000", "104602.996000", "104603.000000", "104603.003000", "104622.945000", "104622.948000", "104622.951000", "104622.954000", "104622.957000", "104622.960000", "104622.963000", "104622.966000", "104622.969000", "104622.972000", "104622.975000", "104622.978000", "104622.981000", "104622.984000", "104622.987000", "104622.990000", "104622.993000", "104623.002000", "104623.005000", "104623.008000", "104625.717000", "104625.721000", "104625.724000"],
      "InstanceCreationTime": ["104402.974000", "104402.977000", "104402.981000", "104402.984000", "104402.987000", "104402.990000", "104402.993000", "104402.996000", "104403.000000", "104403.003000", "104403.006000", "104403.009000", "104403.012000", "104403.015000", "104403.018000", "104403.021000", "104403.030000", "104403.033000", "104403.045000", "104403.048000", "104403.051000", "104403.054000", "104403.057000", "104403.060000", "104403.063000", "104403.066000", "104403.069000", "104403.072000", "104422.945000", "104422.948000", "104422.951000", "104422.954000", "104422.957000", "104422.960000", "104422.970000", "104422.973000", "104422.976000", "104422.979000", "104422.982000", "104422.985000", "104422.988000", "104422.991000", "104422.994000", "104422.997000", "104423.001000", "104423.004000", "104423.007000", "104423.010000", "104423.013000", "104423.016000", "104423.018000", "104423.021000", "104423.024000", "104423.027000", "104423.030000", "104423.033000", "104423.036000", "104423.039000", "104423.042000", "104423.045000", "104423.048000", "104423.051000", "104423.059000", "104423.062000", "104423.065000", "104423.068000", "104442.945000", "104442.948000", "104442.951000", "104442.954000", "104442.957000", "104442.960000", "104442.963000", "104442.966000", "104442.969000", "104442.972000", "104442.975000", "104442.978000", "104442.981000", "104442.984000", "104442.987000", "104442.990000", "104442.993000", "104442.996000", "104443.000000", "104443.003000", "104443.006000", "104443.009000", "104443.012000", "104502.945000", "104502.948000", "104502.951000", "104502.954000", "104502.957000", "104502.960000", "104502.963000", "104502.966000", "104502.969000", "104502.972000", "104502.975000", "104502.978000", "104502.981000", "104502.984000", "104502.987000", "104502.990000", "104502.993000", "104502.996000", "104503.000000", "104503.003000", "104522.946000", "104522.949000", "104522.952000", "104522.955000", "104522.958000", "104522.961000", "104522.964000", "104522.967000", "104522.970000", "104522.973000", "104522.976000", "104522.979000", "104522.982000", "104522.985000", "104522.988000", "104522.991000", "104522.994000", "104522.997000", "104523.001000", "104523.004000", "104542.945000", "104542.948000", "104542.951000", "104542.960000", "104542.963000", "104542.966000", "104542.969000", "104542.972000", "104542.975000", "104542.978000", "104542.981000", "104542.984000", "104542.987000", "104542.990000", "104542.993000", "104542.996000", "104543.000000", "104543.003000", "104543.006000", "104543.009000", "104602.945000", "104602.948000", "104602.951000", "104602.954000", "104602.957000", "104602.960000", "104602.963000", "104602.966000", "104602.969000", "104602.973000", "104602.976000", "104602.978000", "104602.981000", "104602.984000", "104602.987000", "104602.990000", "104602.993000", "104602.996000", "104603.000000", "104603.003000", "104622.945000", "104622.948000", "104622.951000", "104622.954000", "104622.957000", "104622.960000", "104622.963000", "104622.966000", "104622.969000", "104622.972000", "104622.975000", "104622.978000", "104622.981000", "104622.984000", "104622.987000", "104622.990000", "104622.993000", "104623.002000", "104623.005000", "104623.008000", "104625.717000", "104625.721000", "104625.724000"],
      "InstanceNumber": [1, 2, 3, 4, 5, 6, 7, 8, 9, 10, 11, 12, 13, 14, 15, 16, 17, 18, 19, 20, 21, 22, 23, 24, 25, 26, 27, 28, 29, 30, 31, 32, 33, 34, 35, 36, 37, 38, 39, 40, 41, 42, 43, 44, 45, 46, 47, 48, 49, 50, 51, 52, 53, 54, 55, 56, 57, 58, 59, 60, 61, 62, 63, 64, 65, 66, 67, 68, 69, 70, 71, 72, 73, 74, 75, 76, 77, 78, 79, 80, 81, 82, 83, 84, 85, 86, 87, 88, 89, 90, 91, 92, 93, 94, 95, 96, 97, 98, 99, 100, 101, 102, 103, 104, 105, 106, 107, 108, 109, 110, 111, 112, 113, 114, 115, 116, 117, 118, 119, 120, 121, 122, 123, 124, 125, 126, 127, 128, 129, 130, 131, 132, 133, 134, 135, 136, 137, 138, 139, 140, 141, 142, 143, 144, 145, 146, 147, 148, 149, 150, 151, 152, 153, 154, 155, 156, 157, 158, 159, 160, 161, 162, 163, 164, 165, 166, 167, 168, 169, 170, 171, 172, 173, 174, 175, 176, 177, 178, 179, 180, 181, 182, 183, 184, 185, 186, 187, 188, 189, 190, 191, 192],
      "LargestImagePixelValue": [28865, 29343, 28190, 30030, 29518, 29703, 29843, 28546, 30029, 29836, 28494, 29652, 29413, 29068, 29217, 28453, 29433, 29452, 29456, 29689, 29373, 30422, 30208, 30170, 30126, 29642, 30204, 29313, 30192, 30245, 30134, 30503, 29965, 30372, 29666, 29246, 29259, 29458, 29684, 29856, 29665, 29527, 29739, 29506, 29402, 29193, 29255, 30072, 29584, 28467, 29517, 28202, 29532, 28746, 30252, 29452, 30050, 29126, 29160, 29066, 29665, 29682, 29525, 30260, 29396, 29300, 28497, 29040, 29001, 28716, 28507, 28671, 28221, 28544, 28439, 29012, 29343, 29652, 28209, 27555, 28111, 28402, 28233, 28629, 29447, 28022, 28211, 28269, 28311, 28462, 28611, 28996, 28056, 29011, 29253, 28383, 29424, 27547, 28951, 28000, 28093, 29382, 28640, 29128, 29069, 29956, 29632, 28886, 28995, 28765, 28065, 28340, 28864, 28287, 29162, 28336, 28415, 29316, 27945, 28602, 28702, 28410, 28783, 28535, 29048, 28994, 28312, 28661, 28286, 28530, 28602, 28218, 29592, 28575, 28360, 28705, 29001, 29356, 28743, 29421, 28832, 27765, 27945, 28965, 27305, 29968, 29772, 28240, 29592, 28389, 29272, 28597, 29055, 30052, 28996, 29288, 29386, 29051, 29538, 28606, 29425, 28548, 28815, 28001, 28622, 29194, 27848, 27786, 29552, 27477, 28221, 28346, 28356, 28947, 28028, 29386, 29458, 28098, 28126, 29055, 29336, 28829, 29202, 28510, 29789, 28447, 28921, 29307, 27981, 28711, 27825, 29069],
      "WindowCenter": [8731.0, 8722.0, 8696.0, 8725.0, 8729.0, 8736.0, 8739.0, 8720.0, 8737.0, 8736.0, 8711.0, 8721.0, 8713.0, 8699.0, 8696.0, 8693.0, 8705.0, 8712.0, 8713.0, 8719.0, 8721.0, 8726.0, 8726.0, 8718.0, 8716.0, 8709.0, 8714.0, 8717.0, 8734.0, 8752.0, 8755.0, 8745.0, 8737.0, 8725.0, 8703.0, 8689.0, 8688.0, 8711.0, 8728.0, 8738.0, 8754.0, 8740.0, 8738.0, 8714.0, 8697.0, 8689.0, 8688.0, 8698.0, 8676.0, 8662.0, 8675.0, 8683.0, 8715.0, 8729.0, 8736.0, 8709.0, 8726.0, 8701.0, 8700.0, 8700.0, 8712.0, 8714.0, 8716.0, 8743.0, 8718.0, 8717.0, 8688.0, 8692.0, 8693.0, 8693.0, 8686.0, 8685.0, 8686.0, 8693.0, 8695.0, 8716.0, 8724.0, 8724.0, 8689.0, 8666.0, 8677.0, 8694.0, 8713.0, 8722.0, 8728.0, 8709.0, 8706.0, 8715.0, 8714.0, 8720.0, 8713.0, 8717.0, 8705.0, 8709.0, 8708.0, 8696.0, 8706.0, 8675.0, 8692.0, 8687.0, 8704.0, 8722.0, 8718.0, 8719.0, 8735.0, 8755.0, 8740.0, 8714.0, 8702.0, 8685.0, 8679.0, 8695.0, 8710.0, 8699.0, 8710.0, 8695.0, 8694.0, 8704.0, 8687.0, 8685.0, 8694.0, 8704.0, 8720.0, 8724.0, 8735.0, 8729.0, 8723.0, 8720.0, 8699.0, 8703.0, 8694.0, 8690.0, 8707.0, 8705.0, 8723.0, 8738.0, 8755.0, 8752.0, 8729.0, 8716.0, 8685.0, 8662.0, 8662.0, 8699.0, 8696.0, 8741.0, 8742.0, 8718.0, 8727.0, 8714.0, 8711.0, 8706.0, 8719.0, 8738.0, 8720.0, 8717.0, 8717.0, 8719.0, 8726.0, 8707.0, 8718.0, 8699.0, 8704.0, 8691.0, 8703.0, 8717.0, 8698.0, 8683.0, 8689.0, 8657.0, 8670.0, 8687.0, 8706.0, 8721.0, 8718.0, 8719.0, 8709.0, 8683.0, 8682.0, 8701.0, 8725.0, 8731.0, 8747.0, 8743.0, 8746.0, 8716.0, 8703.0, 8699.0, 8682.0, 8694.0, 8684.0, 8702.0],
      "WindowWidth": [18670.0, 18637.0, 18590.0, 18635.0, 18646.0, 18660.0, 18671.0, 18637.0, 18663.0, 18659.0, 18619.0, 18626.0, 18609.0, 18585.0, 18579.0, 18580.0, 18599.0, 18616.0, 18619.0, 18628.0, 18635.0, 18637.0, 18635.0, 18616.0, 18612.0, 18595.0, 18602.0, 18616.0, 18651.0, 18692.0, 18702.0, 18676.0, 18660.0, 18628.0, 18586.0, 18561.0, 18561.0, 18606.0, 18646.0, 18670.0, 18702.0, 18671.0, 18662.0, 18607.0, 18572.0, 18557.0, 18556.0, 18566.0, 18524.0, 18501.0, 18527.0, 18554.0, 18617.0, 18652.0, 18650.0, 18602.0, 18630.0, 18588.0, 18584.0, 18585.0, 18609.0, 18616.0, 18626.0, 18675.0, 18632.0, 18630.0, 18573.0, 18576.0, 18578.0, 18580.0, 18566.0, 18560.0, 18563.0, 18577.0, 18583.0, 18623.0, 18636.0, 18635.0, 18569.0, 18525.0, 18541.0, 18581.0, 18627.0, 18644.0, 18652.0, 18622.0, 18615.0, 18636.0, 18632.0, 18640.0, 18624.0, 18623.0, 18606.0, 18607.0, 18604.0, 18583.0, 18596.0, 18547.0, 18570.0, 18565.0, 18602.0, 18632.0, 18629.0, 18632.0, 18664.0, 18702.0, 18670.0, 18625.0, 18594.0, 18555.0, 18550.0, 18585.0, 18617.0, 18600.0, 18611.0, 18582.0, 18575.0, 18589.0, 18562.0, 18556.0, 18577.0, 18600.0, 18634.0, 18644.0, 18659.0, 18650.0, 18641.0, 18628.0, 18592.0, 18591.0, 18578.0, 18574.0, 18599.0, 18609.0, 18647.0, 18680.0, 18712.0, 18700.0, 18654.0, 18618.0, 18555.0, 18511.0, 18514.0, 18585.0, 18597.0, 18669.0, 18673.0, 18635.0, 18644.0, 18625.0, 18615.0, 18611.0, 18634.0, 18667.0, 18636.0, 18626.0, 18625.0, 18633.0, 18645.0, 18613.0, 18628.0, 18599.0, 18601.0, 18577.0, 18596.0, 18620.0, 18587.0, 18553.0, 18552.0, 18503.0, 18524.0, 18563.0, 18607.0, 18639.0, 18638.0, 18626.0, 18604.0, 18556.0, 18552.0, 18587.0, 18639.0, 18660.0, 18694.0, 18692.0, 18690.0, 18630.0, 18592.0, 18580.0, 18556.0, 18573.0, 18560.0, 18585.0]
    },
    "slices": {}
  },
  "NumberOfVolumes": 192
}