{
  "AcquisitionMatrixPE": 104,
  "AcquisitionNumber": 1,
  "AcquisitionTime": "10:47:53.432500",
  "BandwidthPerPixelPhaseEncode": 16.578,
  "BaseResolution": 104,
  "BodyPartExamined": "BRAIN",
  "CoilString": "HC2_4_6_7;NC2",
  "ConsistencyInfo": "N4_VE11C_LATEST_20160120",
  "ConversionSoftware": "dcm2niix",
  "ConversionSoftwareVersion": "v1.0.20190902",
  "DerivedVendorReportedEchoSpacing": 0.000580009,
  "DeviceSerialNumber": "166018",
  "DwellTime": 2.1e-06,
  "EchoTime": 0.037,
  "EchoTrainLength": 104,
  "EffectiveEchoSpacing": 0.000580009,
  "FlipAngle": 68,
  "ImageComments": "Unaliased_MB6_PE3_LB",
  "ImageOrientationPatientDICOM": [0.994735, 0.0983649, 0.0287476, -0.0858036, 0.952809, -0.291193],
  "ImageType": [
    "ORIGINAL",
    "PRIMARY",
    "M",
    "MB",
    "ND",
    "MOSAIC"
],
  "ImagingFrequency": 123.191,
  "InPlanePhaseEncodingDirectionDICOM": "COL",
  "InstitutionAddress": "Washington_Place_6_NYC_NYC_US_10003",
  "InstitutionName": "NYU_-_CBI",
  "InstitutionalDepartmentName": "Department",
  "MRAcquisitionType": "2D",
  "MagneticFieldStrength": 3,
  "Manufacturer": "Siemens",
  "ManufacturersModelName": "Prisma",
  "Modality": "MR",
  "MultibandAccelerationFactor": 6,
  "PartialFourier": 1,
  "PatientPosition": "HFS",
  "PercentPhaseFOV": 100,
  "PhaseEncodingDirection": "j",
  "PhaseEncodingSteps": 104,
  "PhaseResolution": 1,
  "PixelBandwidth": 2290,
  "ProcedureStepDescription": "Investigators_Winawer",
  "ProtocolName": "cmrr_mbepi_s6_2mm_66sl_PA_task-prf",
  "PulseSequenceDetails": "%CustomerSeq%_cmrr_mbep2d_bold",
  "ReceiveCoilActiveElements": "HC2,4,6,7;NC2",
  "ReceiveCoilName": "HeadNeck_64",
  "ReconMatrixPE": 104,
  "RepetitionTime": 1,
  "SAR": 0.0666188,
  "ScanOptions": "FS",
  "ScanningSequence": "EP",
  "SequenceName": "epfid2d1_104",
  "SequenceVariant": "SK_SS",
  "SeriesDescription": "cmrr_mbepi_s6_2mm_66sl_PA_task-prf",
  "SeriesNumber": 10,
  "ShimSetting": [244, -12647, -8398, 668, -53, -67, -38, 2],
  "SliceThickness": 2,
  "SliceTiming": [0, 0.535, 0.09, 0.625, 0.1775, 0.7125, 0.2675, 0.8025, 0.3575, 0.89, 0.445, 0, 0.535, 0.09, 0.625, 0.1775, 0.7125, 0.2675, 0.8025, 0.3575, 0.89, 0.445, 0, 0.535, 0.09, 0.625, 0.1775, 0.7125, 0.2675, 0.8025, 0.3575, 0.89, 0.445, 0, 0.535, 0.09, 0.625, 0.1775, 0.7125, 0.2675, 0.8025, 0.3575, 0.89, 0.445, 0, 0.535, 0.09, 0.625, 0.1775, 0.7125, 0.2675, 0.8025, 0.3575, 0.89, 0.445, 0, 0.535, 0.09, 0.625, 0.1775, 0.7125, 0.2675, 0.8025, 0.3575, 0.89, 0.445],
  "SoftwareVersions": "syngo_MR_E11",
  "SpacingBetweenSlices": 2,
  "StationName": "AWP166018",
  "TaskName": "prf",
  "TotalReadoutTime": 0.0597409,
  "TxRefAmp": 205.051,
  "WipMemBlock": "925f7271-233e-4e9e-842c-738f3a267ba3||Sequence: R016 ve11c/master r/8780670; Nov 27 2017 15:05:12 by eja",
  "dcmmeta_affine": [
    [-1.9894702434539795, -0.1716071516275406, 0.11206832528114319, 116.50248718261719],
    [-0.19672980904579163, 1.905617356300354, -0.5743865966796875, -58.07652282714844],
    [0.057495247572660446, 0.5823861360549927, 1.9124644994735718, -86.4813461303711],
    [0.0, 0.0, 0.0, 1.0]
],
  "dcmmeta_reorient_transform": [
    [0.0, -1.0, 0.0, 103.0],
    [1.0, 0.0, 0.0, 0.0],
    [0.0, 0.0, 1.0, 0.0],
    [0.0, 0.0, 0.0, 1.0]
],
  "dcmmeta_shape": [104, 104, 66, 192],
  "dcmmeta_slice_dim": 2,
  "dcmmeta_version": 0.6,
  "global": {
    "const": {
      "AccessionNumber": "K37FHWMX",
      "AcquisitionMatrix": [104, 0, 0, 104],
      "AngioFlag": "N",
      "BitsAllocated": 16,
      "BitsStored": 16,
      "BodyPartExamined": "BRAIN",
      "Columns": 936,
      "EchoNumbers": 1,
      "EchoTime": 37.0,
      "EchoTrainLength": 104,
      "FlipAngle": 68.0,
      "HighBit": 15,
      "ImageOrientationPatient": [0.99473510022019, 0.09836490489372, 0.02874762381807, -0.0858035725128, 0.95280866484505, -0.2911930547596],
      "ImagePositionPatient": [-855.05798608695, -1012.7784718803, 191.85902162791],
      "ImageType": [
        "ORIGINAL",
        "PRIMARY",
        "M",
        "MB",
        "ND",
        "MOSAIC"
],
      "ImagedNucleus": "1H",
      "ImagingFrequency": 123.190776,
      "InPlanePhaseEncodingDirection": "COL",
      "MRAcquisitionType": "2D",
      "MagneticFieldStrength": 3.0,
      "Manufacturer": "SIEMENS",
      "ManufacturerModelName": "Prisma",
      "Modality": "MR",
      "NumberOfAverages": 1.0,
      "NumberOfPhaseEncodingSteps": 104,
      "PercentPhaseFieldOfView": 100.0,
      "PercentSampling": 100.0,
      "PerformedProcedureStepStartTime": "102817.231000",
      "PhotometricInterpretation": "MONOCHROME2",
      "PixelBandwidth": 2290.0,
      "PixelRepresentation": 0,
      "PixelSpacing": [2.0, 2.0],
      "ProtocolName": "cmrr_mbepi_s6_2mm_66sl_PA_task-prf",
      "RepetitionTime": 1000.0,
      "Rows": 936,
      "SAR": 0.06661879965901,
      "SamplesPerPixel": 1,
      "ScanOptions": "FS",
      "ScanningSequence": "EP",
      "SequenceName": "epfid2d1_104",
      "SequenceVariant": [
        "SK",
        "SS"
],
      "SeriesDescription": "cmrr_mbepi_s6_2mm_66sl_PA_task-prf",
      "SeriesNumber": 10,
      "SeriesTime": "104843.038000",
      "SliceLocation": -59.488947094744,
      "SliceThickness": 2.0,
      "SmallestImagePixelValue": 0,
      "SoftwareVersions": "syngo MR E11",
      "SpacingBetweenSlices": 1.9999999913544,
      "SpecificCharacterSet": "ISO_IR 100",
      "StudyID": "1",
      "StudyTime": "102817.072000",
      "TransmitCoilName": "Body",
      "VariableFlipAngleFlag": "N",
      "WindowCenterWidthExplanation": "Algo1",
      "dBdt": 0.0},
    "slices": {}
  },
  "time": {
    "samples": {
      "AcquisitionNumber": [1, 2, 3, 4, 5, 6, 7, 8, 9, 10, 11, 12, 13, 14, 15, 16, 17, 18, 19, 20, 21, 22, 23, 24, 25, 26, 27, 28, 29, 30, 31, 32, 33, 34, 35, 36, 37, 38, 39, 40, 41, 42, 43, 44, 45, 46, 47, 48, 49, 50, 51, 52, 53, 54, 55, 56, 57, 58, 59, 60, 61, 62, 63, 64, 65, 66, 67, 68, 69, 70, 71, 72, 73, 74, 75, 76, 77, 78, 79, 80, 81, 82, 83, 84, 85, 86, 87, 88, 89, 90, 91, 92, 93, 94, 95, 96, 97, 98, 99, 100, 101, 102, 103, 104, 105, 106, 107, 108, 109, 110, 111, 112, 113, 114, 115, 116, 117, 118, 119, 120, 121, 122, 123, 124, 125, 126, 127, 128, 129, 130, 131, 132, 133, 134, 135, 136, 137, 138, 139, 140, 141, 142, 143, 144, 145, 146, 147, 148, 149, 150, 151, 152, 153, 154, 155, 156, 157, 158, 159, 160, 161, 162, 163, 164, 165, 166, 167, 168, 169, 170, 171, 172, 173, 174, 175, 176, 177, 178, 179, 180, 181, 182, 183, 184, 185, 186, 187, 188, 189, 190, 191, 192],
      "AcquisitionTime": ["104753.432500", "104754.432500", "104755.432500", "104756.432500", "104757.432500", "104758.432500", "104759.432500", "104800.432500", "104801.432500", "104802.432500", "104803.432500", "104804.432500", "104805.432500", "104806.432500", "104807.432500", "104808.432500", "104809.432500", "104810.432500", "104811.432500", "104812.432500", "104813.432500", "104814.432500", "104815.432500", "104816.432500", "104817.432500", "104818.432500", "104819.432500", "104820.432500", "104821.432500", "104822.432500", "104823.432500", "104824.432500", "104825.432500", "104826.432500", "104827.432500", "104828.432500", "104829.432500", "104830.432500", "104831.432500", "104832.432500", "104833.432500", "104834.432500", "104835.432500", "104836.432500", "104837.432500", "104838.432500", "104839.432500", "104840.432500", "104841.432500", "104842.432500", "104843.432500", "104844.432500", "104845.432500", "104846.432500", "104847.432500", "104848.432500", "104849.432500", "104850.432500", "104851.432500", "104852.432500", "104853.432500", "104854.432500", "104855.432500", "104856.432500", "104857.432500", "104858.432500", "104859.432500", "104900.432500", "104901.432500", "104902.432500", "104903.432500", "104904.432500", "104905.432500", "104906.432500", "104907.432500", "104908.432500", "104909.432500", "104910.432500", "104911.432500", "104912.432500", "104913.432500", "104914.432500", "104915.432500", "104916.432500", "104917.432500", "104918.432500", "104919.432500", "104920.432500", "104921.432500", "104922.432500", "104923.432500", "104924.432500", "104925.432500", "104926.432500", "104927.432500", "104928.432500", "104929.432500", "104930.432500", "104931.432500", "104932.432500", "104933.432500", "104934.432500", "104935.432500", "104936.432500", "104937.432500", "104938.432500", "104939.432500", "104940.432500", "104941.432500", "104942.432500", "104943.432500", "104944.432500", "104945.432500", "104946.432500", "104947.432500", "104948.432500", "104949.432500", "104950.432500", "104951.432500", "104952.432500", "104953.432500", "104954.432500", "104955.432500", "104956.432500", "104957.432500", "104958.432500", "104959.432500", "105000.432500", "105001.432500", "105002.432500", "105003.432500", "105004.432500", "105005.432500", "105006.432500", "105007.432500", "105008.432500", "105009.432500", "105010.432500", "105011.432500", "105012.432500", "105013.432500", "105014.432500", "105015.432500", "105016.432500", "105017.432500", "105018.432500", "105019.432500", "105020.432500", "105021.432500", "105022.432500", "105023.432500", "105024.432500", "105025.432500", "105026.432500", "105027.432500", "105028.432500", "105029.432500", "105030.432500", "105031.432500", "105032.432500", "105033.432500", "105034.432500", "105035.432500", "105036.432500", "105037.432500", "105038.432500", "105039.432500", "105040.432500", "105041.432500", "105042.432500", "105043.432500", "105044.432500", "105045.432500", "105046.432500", "105047.432500", "105048.432500", "105049.432500", "105050.432500", "105051.432500", "105052.432500", "105053.432500", "105054.432500", "105055.432500", "105056.432500", "105057.432500", "105058.432500", "105059.432500", "105100.432500", "105101.432500", "105102.432500", "105103.432500", "105104.432500"],
      "ContentTime": ["104843.041000", "104843.045000", "104843.048000", "104843.056000", "104843.059000", "104843.062000", "104843.065000", "104843.068000", "104843.071000", "104843.074000", "104843.077000", "104843.080000", "104843.083000", "104843.086000", "104843.089000", "104843.101000", "104843.104000", "104843.107000", "104843.110000", "104843.113000", "104843.116000", "104843.119000", "104843.122000", "104843.125000", "104843.128000", "104843.131000", "104843.134000", "104903.013000", "104903.016000", "104903.019000", "104903.022000", "104903.025000", "104903.028000", "104903.031000", "104903.034000", "104903.037000", "104903.040000", "104903.043000", "104903.046000", "104903.049000", "104903.052000", "104903.055000", "104903.058000", "104903.061000", "104903.064000", "104903.067000", "104903.070000", "104903.075000", "104903.078000", "104903.081000", "104903.084000", "104903.087000", "104903.090000", "104903.093000", "104903.095000", "104903.098000", "104903.101000", "104903.104000", "104903.107000", "104903.110000", "104903.113000", "104903.116000", "104903.119000", "104903.122000", "104903.125000", "104923.013000", "104923.016000", "104923.019000", "104923.022000", "104923.025000", "104923.028000", "104923.031000", "104923.034000", "104923.037000", "104923.040000", "104923.043000", "104923.046000", "104923.049000", "104923.052000", "104923.055000", "104923.058000", "104923.060000", "104923.063000", "104923.066000", "104923.069000", "104923.072000", "104923.075000", "104923.078000", "104943.013000", "104943.016000", "104943.019000", "104943.022000", "104943.025000", "104943.028000", "104943.031000", "104943.034000", "104943.037000", "104943.040000", "104943.043000", "104943.046000", "104943.049000", "104943.052000", "104943.055000", "104943.058000", "104943.061000", "104943.064000", "104943.067000", "104943.070000", "105003.014000", "105003.017000", "105003.020000", "105003.023000", "105003.026000", "105003.029000", "105003.032000", "105003.035000", "105003.038000", "105003.041000", "105003.044000", "105003.047000", "105003.058000", "105003.061000", "105003.064000", "105003.067000", "105003.070000", "105003.073000", "105003.076000", "105003.078000", "105023.013000", "105023.016000", "105023.019000", "105023.022000", "105023.025000", "105023.028000", "105023.031000", "105023.034000", "105023.037000", "105023.040000", "105023.043000", "105023.046000", "105023.049000", "105023.052000", "105023.055000", "105023.058000", "105023.061000", "105023.064000", "105023.067000", "105023.070000", "105043.013000", "105043.016000", "105043.019000", "105043.022000", "105043.025000", "105043.028000", "105043.031000", "105043.034000", "105043.037000", "105043.040000", "105043.043000", "105043.046000", "105043.049000", "105043.052000", "105043.055000", "105043.058000", "105043.061000", "105043.064000", "105043.067000", "105043.070000", "105103.013000", "105103.016000", "105103.019000", "105103.022000", "105103.025000", "105103.028000", "105103.031000", "105103.034000", "105103.044000", "105103.047000", "105103.050000", "105103.053000", "105103.056000", "105103.059000", "105103.062000", "105103.065000", "105103.068000", "105103.071000", "105103.074000", "105103.077000", "105106.506000", "105106.510000", "105106.512000", "105106.515000"],
      "InstanceCreationTime": ["104843.041000", "104843.045000", "104843.048000", "104843.056000", "104843.059000", "104843.062000", "104843.065000", "104843.068000", "104843.071000", "104843.074000", "104843.077000", "104843.080000", "104843.083000", "104843.086000", "104843.089000", "104843.101000", "104843.104000", "104843.107000", "104843.110000", "104843.113000", "104843.116000", "104843.119000", "104843.122000", "104843.125000", "104843.128000", "104843.131000", "104843.134000", "104903.013000", "104903.016000", "104903.019000", "104903.022000", "104903.025000", "104903.028000", "104903.031000", "104903.034000", "104903.037000", "104903.040000", "104903.043000", "104903.046000", "104903.049000", "104903.052000", "104903.055000", "104903.058000", "104903.061000", "104903.064000", "104903.067000", "104903.070000", "104903.075000", "104903.078000", "104903.081000", "104903.084000", "104903.087000", "104903.090000", "104903.093000", "104903.095000", "104903.098000", "104903.101000", "104903.104000", "104903.107000", "104903.110000", "104903.113000", "104903.116000", "104903.119000", "104903.122000", "104903.125000", "104923.013000", "104923.016000", "104923.019000", "104923.022000", "104923.025000", "104923.028000", "104923.031000", "104923.034000", "104923.037000", "104923.040000", "104923.043000", "104923.046000", "104923.049000", "104923.052000", "104923.055000", "104923.058000", "104923.060000", "104923.063000", "104923.066000", "104923.069000", "104923.072000", "104923.075000", "104923.078000", "104943.013000", "104943.016000", "104943.019000", "104943.022000", "104943.025000", "104943.028000", "104943.031000", "104943.034000", "104943.037000", "104943.040000", "104943.043000", "104943.046000", "104943.049000", "104943.052000", "104943.055000", "104943.058000", "104943.061000", "104943.064000", "104943.067000", "104943.070000", "105003.014000", "105003.017000", "105003.020000", "105003.023000", "105003.026000", "105003.029000", "105003.032000", "105003.035000", "105003.038000", "105003.041000", "105003.044000", "105003.047000", "105003.058000", "105003.061000", "105003.064000", "105003.067000", "105003.070000", "105003.073000", "105003.076000", "105003.078000", "105023.013000", "105023.016000", "105023.019000", "105023.022000", "105023.025000", "105023.028000", "105023.031000", "105023.034000", "105023.037000", "105023.040000", "105023.043000", "105023.046000", "105023.049000", "105023.052000", "105023.055000", "105023.058000", "105023.061000", "105023.064000", "105023.067000", "105023.070000", "105043.013000", "105043.016000", "105043.019000", "105043.022000", "105043.025000", "105043.028000", "105043.031000", "105043.034000", "105043.037000", "105043.040000", "105043.043000", "105043.046000", "105043.049000", "105043.052000", "105043.055000", "105043.058000", "105043.061000", "105043.064000", "105043.067000", "105043.070000", "105103.013000", "105103.016000", "105103.019000", "105103.022000", "105103.025000", "105103.028000", "105103.031000", "105103.034000", "105103.044000", "105103.047000", "105103.050000", "105103.053000", "105103.056000", "105103.059000", "105103.062000", "105103.065000", "105103.068000", "105103.071000", "105103.074000", "105103.077000", "105106.506000", "105106.510000", "105106.512000", "105106.515000"],
      "InstanceNumber": [1, 2, 3, 4, 5, 6, 7, 8, 9, 10, 11, 12, 13, 14, 15, 16, 17, 18, 19, 20, 21, 22, 23, 24, 25, 26, 27, 28, 29, 30, 31, 32, 33, 34, 35, 36, 37, 38, 39, 40, 41, 42, 43, 44, 45, 46, 47, 48, 49, 50, 51, 52, 53, 54, 55, 56, 57, 58, 59, 60, 61, 62, 63, 64, 65, 66, 67, 68, 69, 70, 71, 72, 73, 74, 75, 76, 77, 78, 79, 80, 81, 82, 83, 84, 85, 86, 87, 88, 89, 90, 91, 92, 93, 94, 95, 96, 97, 98, 99, 100, 101, 102, 103, 104, 105, 106, 107, 108, 109, 110, 111, 112, 113, 114, 115, 116, 117, 118, 119, 120, 121, 122, 123, 124, 125, 126, 127, 128, 129, 130, 131, 132, 133, 134, 135, 136, 137, 138, 139, 140, 141, 142, 143, 144, 145, 146, 147, 148, 149, 150, 151, 152, 153, 154, 155, 156, 157, 158, 159, 160, 161, 162, 163, 164, 165, 166, 167, 168, 169, 170, 171, 172, 173, 174, 175, 176, 177, 178, 179, 180, 181, 182, 183, 184, 185, 186, 187, 188, 189, 190, 191, 192],
      "LargestImagePixelValue": [29516, 29705, 28408, 29232, 28982, 28925, 29190, 28930, 29313, 28932, 29047, 29530, 27855, 28981, 29181, 29025, 29951, 29886, 29878, 30036, 29651, 29619, 29637, 30193, 29530, 29487, 29950, 29548, 29436, 29909, 29312, 30102, 29804, 29502, 29838, 29207, 29500, 29426, 29762, 30134, 29102, 28985, 28745, 29186, 29208, 29163, 28461, 29437, 28697, 29072, 29103, 28638, 29200, 29339, 29497, 29174, 29685, 29066, 29045, 28417, 29037, 29213, 29092, 29301, 29391, 29385, 29396, 29855, 28638, 29760, 28522, 29389, 28243, 29421, 29497, 29656, 29313, 30178, 29190, 28889, 29473, 28859, 29081, 28238, 29563, 29668, 29004, 29477, 29569, 29585, 28391, 29142, 29724, 29339, 29464, 29336, 29187, 29466, 29061, 29491, 28609, 29628, 29784, 30048, 29573, 29967, 29411, 29738, 29546, 29172, 28326, 29002, 29230, 29624, 29135, 28945, 29149, 29665, 29097, 28553, 29551, 28851, 29527, 29294, 29838, 29571, 28587, 29863, 29281, 28947, 29409, 29288, 29209, 29343, 29756, 29697, 28961, 29382, 29758, 29086, 29686, 29563, 29568, 29437, 29736, 29666, 28431, 28969, 29238, 29720, 28397, 29728, 29731, 30355, 29693, 29622, 29770, 29287, 29547, 29694, 29439, 29725, 29229, 29651, 29008, 29623, 29171, 28060, 28288, 27787, 29206, 28748, 27869, 28581, 28278, 28784, 28642, 28480, 28934, 28467, 28021, 28776, 29022, 29591, 28667, 29102, 29543, 27864, 28672, 27680, 28034, 27994],
      "WindowCenter": [8791.0, 8789.0, 8779.0, 8799.0, 8799.0, 8793.0, 8782.0, 8775.0, 8780.0, 8775.0, 8790.0, 8798.0, 8782.0, 8809.0, 8803.0, 8802.0, 8814.0, 8807.0, 8808.0, 8805.0, 8798.0, 8790.0, 8789.0, 8803.0, 8796.0, 8804.0, 8811.0, 8800.0, 8809.0, 8805.0, 8799.0, 8805.0, 8796.0, 8805.0, 8804.0, 8800.0, 8808.0, 8809.0, 8824.0, 8828.0, 8808.0, 8799.0, 8774.0, 8772.0, 8771.0, 8770.0, 8767.0, 8787.0, 8782.0, 8787.0, 8772.0, 8759.0, 8780.0, 8777.0, 8778.0, 8765.0, 8776.0, 8773.0, 8778.0, 8774.0, 8780.0, 8778.0, 8779.0, 8779.0, 8779.0, 8781.0, 8774.0, 8786.0, 8768.0, 8784.0, 8782.0, 8797.0, 8780.0, 8798.0, 8796.0, 8794.0, 8804.0, 8810.0, 8792.0, 8785.0, 8787.0, 8767.0, 8765.0, 8753.0, 8760.0, 8758.0, 8745.0, 8742.0, 8742.0, 8751.0, 8748.0, 8755.0, 8777.0, 8795.0, 8805.0, 8799.0, 8784.0, 8779.0, 8771.0, 8770.0, 8753.0, 8786.0, 8787.0, 8802.0, 8798.0, 8811.0, 8807.0, 8806.0, 8790.0, 8791.0, 8780.0, 8784.0, 8800.0, 8815.0, 8813.0, 8815.0, 8803.0, 8813.0, 8786.0, 8778.0, 8792.0, 8784.0, 8797.0, 8798.0, 8804.0, 8807.0, 8787.0, 8797.0, 8791.0, 8776.0, 8789.0, 8787.0, 8773.0, 8780.0, 8778.0, 8786.0, 8781.0, 8779.0, 8793.0, 8775.0, 8786.0, 8789.0, 8781.0, 8780.0, 8788.0, 8780.0, 8770.0, 8775.0, 8784.0, 8796.0, 8788.0, 8816.0, 8816.0, 8823.0, 8807.0, 8790.0, 8789.0, 8774.0, 8774.0, 8788.0, 8790.0, 8805.0, 8801.0, 8807.0, 8803.0, 8805.0, 8791.0, 8765.0, 8755.0, 8747.0, 8764.0, 8758.0, 8765.0, 8786.0, 8782.0, 8786.0, 8768.0, 8760.0, 8758.0, 8758.0, 8754.0, 8766.0, 8783.0, 8788.0, 8783.0, 8782.0, 8771.0, 8746.0, 8757.0, 8745.0, 8752.0, 8746.0],
      "WindowWidth": [18802.0, 18795.0, 18779.0, 18811.0, 18809.0, 18795.0, 18769.0, 18756.0, 18764.0, 18759.0, 18791.0, 18809.0, 18788.0, 18836.0, 18821.0, 18818.0, 18840.0, 18826.0, 18830.0, 18817.0, 18802.0, 18786.0, 18784.0, 18806.0, 18796.0, 18813.0, 18827.0, 18813.0, 18831.0, 18819.0, 18808.0, 18813.0, 18797.0, 18815.0, 18812.0, 18815.0, 18828.0, 18835.0, 18865.0, 18868.0, 18832.0, 18808.0, 18752.0, 18744.0, 18740.0, 18737.0, 18741.0, 18774.0, 18771.0, 18774.0, 18743.0, 18723.0, 18759.0, 18751.0, 18754.0, 18732.0, 18747.0, 18746.0, 18752.0, 18752.0, 18762.0, 18757.0, 18763.0, 18762.0, 18760.0, 18769.0, 18754.0, 18774.0, 18746.0, 18769.0, 18772.0, 18798.0, 18775.0, 18801.0, 18791.0, 18788.0, 18811.0, 18820.0, 18788.0, 18775.0, 18772.0, 18732.0, 18727.0, 18710.0, 18711.0, 18706.0, 18687.0, 18675.0, 18676.0, 18696.0, 18697.0, 18708.0, 18750.0, 18790.0, 18813.0, 18804.0, 18770.0, 18752.0, 18737.0, 18733.0, 18710.0, 18770.0, 18774.0, 18805.0, 18801.0, 18821.0, 18819.0, 18814.0, 18783.0, 18788.0, 18771.0, 18775.0, 18811.0, 18843.0, 18847.0, 18851.0, 18819.0, 18828.0, 18778.0, 18765.0, 18790.0, 18775.0, 18797.0, 18802.0, 18810.0, 18822.0, 18785.0, 18798.0, 18786.0, 18759.0, 18781.0, 18771.0, 18745.0, 18758.0, 18753.0, 18770.0, 18764.0, 18756.0, 18781.0, 18750.0, 18768.0, 18775.0, 18759.0, 18761.0, 18774.0, 18760.0, 18749.0, 18755.0, 18776.0, 18795.0, 18794.0, 18843.0, 18844.0, 18858.0, 18823.0, 18786.0, 18783.0, 18756.0, 18756.0, 18782.0, 18789.0, 18818.0, 18814.0, 18823.0, 18818.0, 18810.0, 18786.0, 18737.0, 18713.0, 18699.0, 18720.0, 18717.0, 18741.0, 18780.0, 18777.0, 18775.0, 18734.0, 18721.0, 18714.0, 18717.0, 18716.0, 18737.0, 18777.0, 18782.0, 18777.0, 18770.0, 18744.0, 18701.0, 18713.0, 18693.0, 18706.0, 18695.0]
    },
    "slices": {}
  },
  "NumberOfVolumes": 192
}