{
  "AcquisitionMatrixPE": 104,
  "AcquisitionNumber": 1,
  "AcquisitionTime": "14:25:0.440000",
  "BandwidthPerPixelPhaseEncode": 16.297,
  "BaseResolution": 104,
  "BodyPartExamined": "BRAIN",
  "ConsistencyInfo": "N4_VE11C_LATEST_20160120",
  "ConversionSoftware": "dcm2niix",
  "ConversionSoftwareVersion": "v1.0.20210317",
  "DerivedVendorReportedEchoSpacing": 0.000590009,
  "DeviceSerialNumber": "166018",
  "DwellTime": 2.1e-06,
  "EchoTime": 0.0376,
  "EchoTrainLength": 104,
  "EffectiveEchoSpacing": 0.000590009,
  "FlipAngle": 68,
  "ImageComments": "Unaliased MB6/PE3/LB",
  "ImageOrientationPatientDICOM": [0.999464, 0.0172422, -0.0278379, -0.0191906, 0.997269, -0.0713151],
  "ImageType": [
    "ORIGINAL",
    "PRIMARY",
    "M",
    "MB",
    "ND",
    "MOSAIC"
],
  "ImagingFrequency": 123.197,
  "InPlanePhaseEncodingDirectionDICOM": "COL",
  "InstitutionAddress": "Washington Place 6,NYC,NYC,US,10003",
  "InstitutionName": "NYU - CBI",
  "InstitutionalDepartmentName": "Department",
  "MRAcquisitionType": "2D",
  "MagneticFieldStrength": 3,
  "Manufacturer": "Siemens",
  "ManufacturersModelName": "Prisma",
  "Modality": "MR",
  "MultibandAccelerationFactor": 6,
  "PartialFourier": 1,
  "PatientPosition": "HFS",
  "PercentPhaseFOV": 100,
  "PercentSampling": 100,
  "PhaseEncodingDirection": "j",
  "PhaseEncodingSteps": 104,
  "PhaseResolution": 1,
  "PixelBandwidth": 2290,
  "ProcedureStepDescription": "Investigators^Winawer",
  "ProtocolName": "cmrr_mbepi_s6_2mm_66sl_PA_task-wedgering3",
  "PulseSequenceDetails": "%CustomerSeq%\\cmrr_mbep2d_bold",
  "ReceiveCoilActiveElements": "HC1-7",
  "ReceiveCoilName": "HeadNeck_64",
  "ReconMatrixPE": 104,
  "RepetitionTime": 1,
  "SAR": 0.0811514,
  "ScanOptions": "FS",
  "ScanningSequence": "EP",
  "SequenceName": "epfid2d1_104",
  "SequenceVariant": "SK\\SS",
  "SeriesDescription": "cmrr_mbepi_s6_2mm_66sl_PA_task-wedgering3",
  "SeriesNumber": 18,
  "ShimSetting": [300, -12689, -8467, 338, 18, -199, 21, 6],
  "SliceThickness": 2,
  "SliceTiming": [0, 0.535, 0.09, 0.625, 0.1775, 0.7125, 0.2675, 0.8025, 0.3575, 0.89, 0.445, 0, 0.535, 0.09, 0.625, 0.1775, 0.7125, 0.2675, 0.8025, 0.3575, 0.89, 0.445, 0, 0.535, 0.09, 0.625, 0.1775, 0.7125, 0.2675, 0.8025, 0.3575, 0.89, 0.445, 0, 0.535, 0.09, 0.625, 0.1775, 0.7125, 0.2675, 0.8025, 0.3575, 0.89, 0.445, 0, 0.535, 0.09, 0.625, 0.1775, 0.7125, 0.2675, 0.8025, 0.3575, 0.89, 0.445, 0, 0.535, 0.09, 0.625, 0.1775, 0.7125, 0.2675, 0.8025, 0.3575, 0.89, 0.445],
  "SoftwareVersions": "syngo MR E11",
  "SpacingBetweenSlices": 2,
  "StationName": "AWP166018",
  "TaskName": "wedgering3",
  "TotalReadoutTime": 0.060771,
  "TxRefAmp": 234.738,
  "VendorReportedEchoSpacing": 0.00059,
  "WipMemBlock": "08c4a094-f16c-4fc2-9eec-3b4dad1fec54||Sequence: R016 ve11c/master r/8780670; Nov 27 2017 15:05:12 by eja",
  "dcmmeta_affine": [
    [-1.9989274740219116, -0.03838126361370087, -0.053064581006765366, 110.05915069580078],
    [-0.03448432311415672, 1.994538426399231, -0.14362207055091858, -72.31951141357422],
    [-0.055675871670246124, 0.14263011515140533, 1.9941304922103882, -41.76121520996094],
    [0.0, 0.0, 0.0, 1.0]
],
  "dcmmeta_reorient_transform": [
    [0.0, -1.0, 0.0, 103.0],
    [1.0, 0.0, 0.0, 0.0],
    [0.0, 0.0, 1.0, 0.0],
    [0.0, 0.0, 0.0, 1.0]
],
  "dcmmeta_shape": [104, 104, 66, 300],
  "dcmmeta_slice_dim": 2,
  "dcmmeta_version": 0.6,
  "global": {
    "const": {
      "AccessionNumber": "Leptn04o",
      "AcquisitionMatrix": [104, 0, 0, 104],
      "AngioFlag": "N",
      "BitsAllocated": 16,
      "BitsStored": 16,
      "BodyPartExamined": "BRAIN",
      "Columns": 936,
      "EchoNumbers": 1,
      "EchoTime": 37.6,
      "EchoTrainLength": 104,
      "FlipAngle": 68.0,
      "HighBit": 15,
      "ImageOrientationPatient": [0.99946373480637, 0.01724216158833, -0.0278379358191, -0.0191906321625, 0.99726921252761, -0.0713150571883],
      "ImagePositionPatient": [-921.69310383771, -977.19140700626, 55.424976418253],
      "ImageType": [
        "ORIGINAL",
        "PRIMARY",
        "M",
        "MB",
        "ND",
        "MOSAIC"
],
      "ImagedNucleus": "1H",
      "ImagingFrequency": 123.196797,
      "InPlanePhaseEncodingDirection": "COL",
      "MRAcquisitionType": "2D",
      "MagneticFieldStrength": 3.0,
      "Manufacturer": "SIEMENS",
      "ManufacturerModelName": "Prisma",
      "Modality": "MR",
      "NumberOfAverages": 1.0,
      "NumberOfPhaseEncodingSteps": 104,
      "PercentPhaseFieldOfView": 100.0,
      "PercentSampling": 100.0,
      "PerformedProcedureStepStartTime": "134948.547000",
      "PhotometricInterpretation": "MONOCHROME2",
      "PixelBandwidth": 2290.0,
      "PixelRepresentation": 0,
      "PixelSpacing": [2.0, 2.0],
      "ProtocolName": "cmrr_mbepi_s6_2mm_66sl_PA_task-wedgering3",
      "RepetitionTime": 1000.0,
      "Rows": 936,
      "SAR": 0.08115139884451,
      "SamplesPerPixel": 1,
      "ScanOptions": "FS",
      "ScanningSequence": "EP",
      "SequenceName": "epfid2d1_104",
      "SequenceVariant": [
        "SK",
        "SS"
],
      "SeriesDescription": "cmrr_mbepi_s6_2mm_66sl_PA_task-wedgering3",
      "SeriesNumber": 18,
      "SeriesTime": "142626.413000",
      "SliceLocation": -39.365440728294,
      "SliceThickness": 2.0,
      "SmallestImagePixelValue": 0,
      "SoftwareVersions": "syngo MR E11",
      "SpacingBetweenSlices": 1.9999999321085,
      "SpecificCharacterSet": "ISO_IR 100",
      "StudyID": "1",
      "StudyTime": "134948.477000",
      "TransmitCoilName": "Body",
      "VariableFlipAngleFlag": "N",
      "WindowCenterWidthExplanation": "Algo1",
      "dBdt": 0.0},
    "slices": {}
  },
  "time": {
    "samples": {
      "AcquisitionNumber": [1, 2, 3, 4, 5, 6, 7, 8, 9, 10, 11, 12, 13, 14, 15, 16, 17, 18, 19, 20, 21, 22, 23, 24, 25, 26, 27, 28, 29, 30, 31, 32, 33, 34, 35, 36, 37, 38, 39, 40, 41, 42, 43, 44, 45, 46, 47, 48, 49, 50, 51, 52, 53, 54, 55, 56, 57, 58, 59, 60, 61, 62, 63, 64, 65, 66, 67, 68, 69, 70, 71, 72, 73, 74, 75, 76, 77, 78, 79, 80, 81, 82, 83, 84, 85, 86, 87, 88, 89, 90, 91, 92, 93, 94, 95, 96, 97, 98, 99, 100, 101, 102, 103, 104, 105, 106, 107, 108, 109, 110, 111, 112, 113, 114, 115, 116, 117, 118, 119, 120, 121, 122, 123, 124, 125, 126, 127, 128, 129, 130, 131, 132, 133, 134, 135, 136, 137, 138, 139, 140, 141, 142, 143, 144, 145, 146, 147, 148, 149, 150, 151, 152, 153, 154, 155, 156, 157, 158, 159, 160, 161, 162, 163, 164, 165, 166, 167, 168, 169, 170, 171, 172, 173, 174, 175, 176, 177, 178, 179, 180, 181, 182, 183, 184, 185, 186, 187, 188, 189, 190, 191, 192, 193, 194, 195, 196, 197, 198, 199, 200, 201, 202, 203, 204, 205, 206, 207, 208, 209, 210, 211, 212, 213, 214, 215, 216, 217, 218, 219, 220, 221, 222, 223, 224, 225, 226, 227, 228, 229, 230, 231, 232, 233, 234, 235, 236, 237, 238, 239, 240, 241, 242, 243, 244, 245, 246, 247, 248, 249, 250, 251, 252, 253, 254, 255, 256, 257, 258, 259, 260, 261, 262, 263, 264, 265, 266, 267, 268, 269, 270, 271, 272, 273, 274, 275, 276, 277, 278, 279, 280, 281, 282, 283, 284, 285, 286, 287, 288, 289, 290, 291, 292, 293, 294, 295, 296, 297, 298, 299, 300],
      "AcquisitionTime": ["142500.440000", "142501.440000", "142502.440000", "142503.440000", "142504.440000", "142505.440000", "142506.440000", "142507.440000", "142508.440000", "142509.440000", "142510.440000", "142511.440000", "142512.440000", "142513.440000", "142514.440000", "142515.440000", "142516.440000", "142517.440000", "142518.440000", "142519.440000", "142520.440000", "142521.440000", "142522.440000", "142523.440000", "142524.440000", "142525.440000", "142526.440000", "142527.440000", "142528.440000", "142529.440000", "142530.440000", "142531.440000", "142532.440000", "142533.440000", "142534.440000", "142535.440000", "142536.440000", "142537.440000", "142538.440000", "142539.440000", "142540.440000", "142541.440000", "142542.440000", "142543.440000", "142544.440000", "142545.440000", "142546.440000", "142547.440000", "142548.440000", "142549.440000", "142550.440000", "142551.440000", "142552.440000", "142553.440000", "142554.440000", "142555.440000", "142556.440000", "142557.440000", "142558.440000", "142559.440000", "142600.440000", "142601.440000", "142602.440000", "142603.440000", "142604.440000", "142605.440000", "142606.440000", "142607.440000", "142608.440000", "142609.440000", "142610.440000", "142611.440000", "142612.440000", "142613.440000", "142614.440000", "142615.440000", "142616.440000", "142617.440000", "142618.440000", "142619.440000", "142620.440000", "142621.440000", "142622.440000", "142623.440000", "142624.440000", "142625.440000", "142626.440000", "142627.440000", "142628.440000", "142629.440000", "142630.440000", "142631.440000", "142632.440000", "142633.440000", "142634.440000", "142635.440000", "142636.440000", "142637.440000", "142638.440000", "142639.440000", "142640.440000", "142641.440000", "142642.440000", "142643.440000", "142644.440000", "142645.440000", "142646.440000", "142647.440000", "142648.440000", "142649.440000", "142650.440000", "142651.440000", "142652.440000", "142653.440000", "142654.440000", "142655.440000", "142656.440000", "142657.440000", "142658.440000", "142659.440000", "142700.440000", "142701.440000", "142702.440000", "142703.440000", "142704.440000", "142705.440000", "142706.440000", "142707.440000", "142708.440000", "142709.440000", "142710.440000", "142711.440000", "142712.440000", "142713.440000", "142714.440000", "142715.440000", "142716.440000", "142717.440000", "142718.440000", "142719.440000", "142720.440000", "142721.440000", "142722.440000", "142723.440000", "142724.440000", "142725.440000", "142726.440000", "142727.440000", "142728.440000", "142729.440000", "142730.440000", "142731.440000", "142732.440000", "142733.440000", "142734.440000", "142735.440000", "142736.440000", "142737.440000", "142738.440000", "142739.440000", "142740.440000", "142741.440000", "142742.440000", "142743.440000", "142744.440000", "142745.440000", "142746.440000", "142747.440000", "142748.440000", "142749.440000", "142750.440000", "142751.440000", "142752.440000", "142753.440000", "142754.440000", "142755.440000", "142756.440000", "142757.440000", "142758.440000", "142759.440000", "142800.440000", "142801.440000", "142802.440000", "142803.440000", "142804.440000", "142805.440000", "142806.440000", "142807.440000", "142808.440000", "142809.440000", "142810.440000", "142811.440000", "142812.440000", "142813.440000", "142814.440000", "142815.440000", "142816.440000", "142817.440000", "142818.440000", "142819.440000", "142820.440000", "142821.440000", "142822.440000", "142823.440000", "142824.440000", "142825.440000", "142826.440000", "142827.440000", "142828.440000", "142829.440000", "142830.440000", "142831.440000", "142832.440000", "142833.440000", "142834.440000", "142835.440000", "142836.440000", "142837.440000", "142838.440000", "142839.440000", "142840.440000", "142841.440000", "142842.440000", "142843.440000", "142844.440000", "142845.440000", "142846.440000", "142847.440000", "142848.440000", "142849.440000", "142850.440000", "142851.440000", "142852.440000", "142853.440000", "142854.440000", "142855.440000", "142856.440000", "142857.440000", "142858.440000", "142859.440000", "142900.440000", "142901.440000", "142902.440000", "142903.440000", "142904.440000", "142905.440000", "142906.440000", "142907.440000", "142908.440000", "142909.440000", "142910.440000", "142911.440000", "142912.440000", "142913.440000", "142914.440000", "142915.440000", "142916.440000", "142917.440000", "142918.440000", "142919.440000", "142920.440000", "142921.440000", "142922.440000", "142923.440000", "142924.440000", "142925.440000", "142926.440000", "142927.440000", "142928.440000", "142929.440000", "142930.440000", "142931.440000", "142932.440000", "142933.440000", "142934.440000", "142935.440000", "142936.440000", "142937.440000", "142938.440000", "142939.440000", "142940.440000", "142941.440000", "142942.440000", "142943.440000", "142944.440000", "142945.440000", "142946.440000", "142947.440000", "142948.440000", "142949.440000", "142950.440000", "142951.440000", "142952.440000", "142953.440000", "142954.440000", "142955.440000", "142956.440000", "142957.440000", "142958.440000", "142959.440000"],
      "ContentTime": ["142626.416000", "142626.419000", "142626.422000", "142626.425000", "142626.428000", "142626.431000", "142626.434000", "142626.437000", "142626.440000", "142626.443000", "142626.446000", "142626.449000", "142626.452000", "142626.455000", "142626.458000", "142626.461000", "142626.464000", "142626.467000", "142626.470000", "142626.473000", "142626.476000", "142626.479000", "142626.482000", "142626.485000", "142626.488000", "142626.491000", "142626.494000", "142626.497000", "142626.500000", "142626.503000", "142626.506000", "142626.508000", "142626.511000", "142626.514000", "142626.517000", "142626.520000", "142626.523000", "142626.526000", "142626.529000", "142626.532000", "142626.535000", "142626.538000", "142626.541000", "142626.544000", "142626.553000", "142626.556000", "142626.559000", "142646.384000", "142646.387000", "142646.390000", "142646.393000", "142646.396000", "142646.399000", "142646.402000", "142646.405000", "142646.408000", "142646.411000", "142646.414000", "142646.417000", "142646.420000", "142646.423000", "142646.426000", "142646.429000", "142646.431000", "142646.434000", "142646.437000", "142646.446000", "142646.449000", "142646.452000", "142646.455000", "142646.458000", "142646.461000", "142646.464000", "142646.467000", "142646.470000", "142706.384000", "142706.387000", "142706.390000", "142706.393000", "142706.396000", "142706.399000", "142706.402000", "142706.405000", "142706.408000", "142706.411000", "142706.414000", "142706.417000", "142706.420000", "142706.423000", "142706.426000", "142706.429000", "142706.432000", "142706.435000", "142706.438000", "142706.441000", "142706.444000", "142706.447000", "142706.450000", "142706.453000", "142706.456000", "142706.459000", "142706.462000", "142706.464000", "142726.384000", "142726.387000", "142726.390000", "142726.393000", "142726.396000", "142726.399000", "142726.402000", "142726.405000", "142726.408000", "142726.411000", "142726.414000", "142726.417000", "142726.420000", "142726.423000", "142726.426000", "142726.428000", "142726.431000", "142726.434000", "142726.437000", "142726.440000", "142726.443000", "142726.446000", "142726.449000", "142726.452000", "142726.455000", "142726.458000", "142726.461000", "142726.464000", "142726.467000", "142746.397000", "142746.400000", "142746.403000", "142746.406000", "142746.409000", "142746.412000", "142746.415000", "142746.418000", "142746.421000", "142746.424000", "142746.427000", "142746.430000", "142746.433000", "142746.436000", "142746.439000", "142746.442000", "142746.445000", "142746.448000", "142746.451000", "142746.454000", "142746.457000", "142746.460000", "142746.463000", "142746.466000", "142746.469000", "142746.472000", "142746.475000", "142746.478000", "142806.384000", "142806.387000", "142806.390000", "142806.393000", "142806.396000", "142806.399000", "142806.402000", "142806.405000", "142806.408000", "142806.411000", "142806.414000", "142806.417000", "142806.420000", "142806.423000", "142806.426000", "142806.429000", "142806.432000", "142806.435000", "142806.438000", "142806.441000", "142806.444000", "142806.447000", "142806.450000", "142806.453000", "142806.456000", "142826.384000", "142826.387000", "142826.390000", "142826.393000", "142826.396000", "142826.399000", "142826.402000", "142826.405000", "142826.408000", "142826.411000", "142826.414000", "142826.417000", "142826.420000", "142826.423000", "142826.426000", "142826.429000", "142826.432000", "142826.434000", "142826.437000", "142826.440000", "142846.384000", "142846.387000", "142846.390000", "142846.393000", "142846.396000", "142846.399000", "142846.402000", "142846.405000", "142846.408000", "142846.411000", "142846.414000", "142846.417000", "142846.420000", "142846.423000", "142846.426000", "142846.429000", "142846.432000", "142846.435000", "142846.438000", "142846.441000", "142906.384000", "142906.387000", "142906.390000", "142906.393000", "142906.396000", "142906.399000", "142906.402000", "142906.405000", "142906.408000", "142906.411000", "142906.414000", "142906.417000", "142906.420000", "142906.423000", "142906.426000", "142906.429000", "142906.432000", "142906.435000", "142906.438000", "142906.441000", "142926.384000", "142926.387000", "142926.390000", "142926.393000", "142926.400000", "142926.403000", "142926.406000", "142926.409000", "142926.412000", "142926.415000", "142926.418000", "142926.421000", "142926.424000", "142926.427000", "142926.430000", "142926.433000", "142926.436000", "142926.439000", "142926.442000", "142926.445000", "142946.384000", "142946.387000", "142946.390000", "142946.393000", "142946.396000", "142946.399000", "142946.402000", "142946.405000", "142946.408000", "142946.411000", "142946.414000", "142946.417000", "142946.420000", "142946.423000", "142946.426000", "142946.429000", "142946.432000", "142946.435000", "142946.438000", "142946.441000", "143001.059000", "143001.062000", "143001.066000", "143001.069000", "143001.072000", "143001.075000", "143001.078000", "143001.081000", "143001.084000", "143001.087000", "143001.089000", "143001.092000", "143001.095000", "143001.098000", "143001.101000"],
      "InstanceCreationTime": ["142626.416000", "142626.419000", "142626.422000", "142626.425000", "142626.428000", "142626.431000", "142626.434000", "142626.437000", "142626.440000", "142626.443000", "142626.446000", "142626.449000", "142626.452000", "142626.455000", "142626.458000", "142626.461000", "142626.464000", "142626.467000", "142626.470000", "142626.473000", "142626.476000", "142626.479000", "142626.482000", "142626.485000", "142626.488000", "142626.491000", "142626.494000", "142626.497000", "142626.500000", "142626.503000", "142626.506000", "142626.508000", "142626.511000", "142626.514000", "142626.517000", "142626.520000", "142626.523000", "142626.526000", "142626.529000", "142626.532000", "142626.535000", "142626.538000", "142626.541000", "142626.544000", "142626.553000", "142626.556000", "142626.559000", "142646.384000", "142646.387000", "142646.390000", "142646.393000", "142646.396000", "142646.399000", "142646.402000", "142646.405000", "142646.408000", "142646.411000", "142646.414000", "142646.417000", "142646.420000", "142646.423000", "142646.426000", "142646.429000", "142646.431000", "142646.434000", "142646.437000", "142646.446000", "142646.449000", "142646.452000", "142646.455000", "142646.458000", "142646.461000", "142646.464000", "142646.467000", "142646.470000", "142706.384000", "142706.387000", "142706.390000", "142706.393000", "142706.396000", "142706.399000", "142706.402000", "142706.405000", "142706.408000", "142706.411000", "142706.414000", "142706.417000", "142706.420000", "142706.423000", "142706.426000", "142706.429000", "142706.432000", "142706.435000", "142706.438000", "142706.441000", "142706.444000", "142706.447000", "142706.450000", "142706.453000", "142706.456000", "142706.459000", "142706.462000", "142706.464000", "142726.384000", "142726.387000", "142726.390000", "142726.393000", "142726.396000", "142726.399000", "142726.402000", "142726.405000", "142726.408000", "142726.411000", "142726.414000", "142726.417000", "142726.420000", "142726.423000", "142726.426000", "142726.428000", "142726.431000", "142726.434000", "142726.437000", "142726.440000", "142726.443000", "142726.446000", "142726.449000", "142726.452000", "142726.455000", "142726.458000", "142726.461000", "142726.464000", "142726.467000", "142746.397000", "142746.400000", "142746.403000", "142746.406000", "142746.409000", "142746.412000", "142746.415000", "142746.418000", "142746.421000", "142746.424000", "142746.427000", "142746.430000", "142746.433000", "142746.436000", "142746.439000", "142746.442000", "142746.445000", "142746.448000", "142746.451000", "142746.454000", "142746.457000", "142746.460000", "142746.463000", "142746.466000", "142746.469000", "142746.472000", "142746.475000", "142746.478000", "142806.384000", "142806.387000", "142806.390000", "142806.393000", "142806.396000", "142806.399000", "142806.402000", "142806.405000", "142806.408000", "142806.411000", "142806.414000", "142806.417000", "142806.420000", "142806.423000", "142806.426000", "142806.429000", "142806.432000", "142806.435000", "142806.438000", "142806.441000", "142806.444000", "142806.447000", "142806.450000", "142806.453000", "142806.456000", "142826.384000", "142826.387000", "142826.390000", "142826.393000", "142826.396000", "142826.399000", "142826.402000", "142826.405000", "142826.408000", "142826.411000", "142826.414000", "142826.417000", "142826.420000", "142826.423000", "142826.426000", "142826.429000", "142826.432000", "142826.434000", "142826.437000", "142826.440000", "142846.384000", "142846.387000", "142846.390000", "142846.393000", "142846.396000", "142846.399000", "142846.402000", "142846.405000", "142846.408000", "142846.411000", "142846.414000", "142846.417000", "142846.420000", "142846.423000", "142846.426000", "142846.429000", "142846.432000", "142846.435000", "142846.438000", "142846.441000", "142906.384000", "142906.387000", "142906.390000", "142906.393000", "142906.396000", "142906.399000", "142906.402000", "142906.405000", "142906.408000", "142906.411000", "142906.414000", "142906.417000", "142906.420000", "142906.423000", "142906.426000", "142906.429000", "142906.432000", "142906.435000", "142906.438000", "142906.441000", "142926.384000", "142926.387000", "142926.390000", "142926.393000", "142926.400000", "142926.403000", "142926.406000", "142926.409000", "142926.412000", "142926.415000", "142926.418000", "142926.421000", "142926.424000", "142926.427000", "142926.430000", "142926.433000", "142926.436000", "142926.439000", "142926.442000", "142926.445000", "142946.384000", "142946.387000", "142946.390000", "142946.393000", "142946.396000", "142946.399000", "142946.402000", "142946.405000", "142946.408000", "142946.411000", "142946.414000", "142946.417000", "142946.420000", "142946.423000", "142946.426000", "142946.429000", "142946.432000", "142946.435000", "142946.438000", "142946.441000", "143001.059000", "143001.062000", "143001.066000", "143001.069000", "143001.072000", "143001.075000", "143001.078000", "143001.081000", "143001.084000", "143001.087000", "143001.089000", "143001.092000", "143001.095000", "143001.098000", "143001.101000"],
      "InstanceNumber": [1, 2, 3, 4, 5, 6, 7, 8, 9, 10, 11, 12, 13, 14, 15, 16, 17, 18, 19, 20, 21, 22, 23, 24, 25, 26, 27, 28, 29, 30, 31, 32, 33, 34, 35, 36, 37, 38, 39, 40, 41, 42, 43, 44, 45, 46, 47, 48, 49, 50, 51, 52, 53, 54, 55, 56, 57, 58, 59, 60, 61, 62, 63, 64, 65, 66, 67, 68, 69, 70, 71, 72, 73, 74, 75, 76, 77, 78, 79, 80, 81, 82, 83, 84, 85, 86, 87, 88, 89, 90, 91, 92, 93, 94, 95, 96, 97, 98, 99, 100, 101, 102, 103, 104, 105, 106, 107, 108, 109, 110, 111, 112, 113, 114, 115, 116, 117, 118, 119, 120, 121, 122, 123, 124, 125, 126, 127, 128, 129, 130, 131, 132, 133, 134, 135, 136, 137, 138, 139, 140, 141, 142, 143, 144, 145, 146, 147, 148, 149, 150, 151, 152, 153, 154, 155, 156, 157, 158, 159, 160, 161, 162, 163, 164, 165, 166, 167, 168, 169, 170, 171, 172, 173, 174, 175, 176, 177, 178, 179, 180, 181, 182, 183, 184, 185, 186, 187, 188, 189, 190, 191, 192, 193, 194, 195, 196, 197, 198, 199, 200, 201, 202, 203, 204, 205, 206, 207, 208, 209, 210, 211, 212, 213, 214, 215, 216, 217, 218, 219, 220, 221, 222, 223, 224, 225, 226, 227, 228, 229, 230, 231, 232, 233, 234, 235, 236, 237, 238, 239, 240, 241, 242, 243, 244, 245, 246, 247, 248, 249, 250, 251, 252, 253, 254, 255, 256, 257, 258, 259, 260, 261, 262, 263, 264, 265, 266, 267, 268, 269, 270, 271, 272, 273, 274, 275, 276, 277, 278, 279, 280, 281, 282, 283, 284, 285, 286, 287, 288, 289, 290, 291, 292, 293, 294, 295, 296, 297, 298, 299, 300],
      "LargestImagePixelValue": [40154, 38701, 37902, 37682, 37528, 37546, 37190, 36919, 37108, 36997, 36932, 37476, 37271, 37204, 36946, 37045, 37142, 37378, 37070, 36934, 37193, 37032, 37007, 37125, 36906, 36870, 37010, 37201, 37070, 37272, 37137, 36992, 37235, 36858, 36862, 37015, 37048, 36938, 37052, 37285, 36899, 36826, 36800, 37235, 37224, 37073, 37645, 37150, 36760, 37179, 37234, 37186, 36897, 37479, 37060, 36706, 37186, 37093, 36900, 37021, 37397, 37048, 36986, 36885, 37554, 37240, 37180, 37557, 37111, 37111, 37259, 37823, 37308, 37100, 37261, 37879, 37625, 37708, 37781, 37878, 37792, 37102, 37247, 37855, 37497, 37296, 38182, 37537, 37059, 37503, 37727, 36990, 37186, 37980, 37147, 37088, 37201, 38001, 37357, 37331, 37413, 37626, 37134, 37750, 37419, 37144, 37392, 37741, 37223, 37642, 38151, 37444, 37218, 37822, 37746, 37262, 37399, 37730, 37623, 38032, 38113, 38251, 37254, 37372, 37479, 37365, 37264, 37741, 37648, 37388, 37634, 38200, 37762, 37483, 38672, 37804, 37880, 37863, 38400, 37725, 37434, 38110, 38282, 37687, 37499, 38168, 37918, 37725, 38097, 38072, 37655, 37621, 37939, 37571, 37144, 37690, 37941, 38104, 37204, 38041, 37812, 37372, 37859, 37538, 37090, 37672, 38271, 38016, 37920, 37878, 38083, 37555, 37652, 38165, 38185, 37189, 37754, 38121, 37630, 38087, 38230, 37766, 37940, 37912, 37985, 37929, 37804, 37572, 38113, 37856, 37510, 37488, 37374, 37593, 38157, 37789, 37587, 37625, 37864, 38160, 38184, 37430, 37739, 37815, 38002, 37983, 38123, 37641, 37782, 37829, 38423, 37729, 38249, 38130, 38719, 37832, 37554, 37826, 37770, 37743, 37994, 38168, 37625, 37636, 38142, 38067, 37604, 38306, 38258, 37943, 37887, 38052, 38239, 37830, 37816, 38300, 37769, 37862, 37856, 38192, 37887, 38109, 38018, 37759, 37500, 37944, 37819, 37132, 37535, 37982, 37309, 37518, 37586, 37885, 37643, 37738, 37736, 37486, 37678, 37684, 38055, 37553, 37916, 37740, 38300, 38257, 37841, 37799, 38287, 37711, 38284, 37954, 37942, 37969, 38443, 37794, 37721, 37640, 37654, 37358, 37764, 37589, 37580, 37553, 37656, 37344, 36915, 37295, 37637, 37331, 37521, 37801, 37898, 37613, 37908, 37689, 37778, 37423, 37393, 38147],
      "WindowCenter": [9942.0, 9893.0, 9873.0, 9862.0, 9847.0, 9843.0, 9830.0, 9821.0, 9817.0, 9823.0, 9827.0, 9845.0, 9834.0, 9835.0, 9827.0, 9823.0, 9816.0, 9821.0, 9815.0, 9816.0, 9822.0, 9831.0, 9829.0, 9815.0, 9807.0, 9806.0, 9803.0, 9802.0, 9803.0, 9812.0, 9818.0, 9819.0, 9828.0, 9823.0, 9822.0, 9821.0, 9827.0, 9821.0, 9821.0, 9827.0, 9820.0, 9818.0, 9819.0, 9826.0, 9833.0, 9829.0, 9834.0, 9835.0, 9814.0, 9817.0, 9818.0, 9818.0, 9820.0, 9836.0, 9845.0, 9826.0, 9822.0, 9822.0, 9814.0, 9818.0, 9818.0, 9819.0, 9814.0, 9807.0, 9819.0, 9823.0, 9813.0, 9809.0, 9812.0, 9813.0, 9820.0, 9833.0, 9836.0, 9827.0, 9821.0, 9833.0, 9834.0, 9826.0, 9830.0, 9823.0, 9830.0, 9826.0, 9827.0, 9840.0, 9835.0, 9827.0, 9831.0, 9828.0, 9821.0, 9819.0, 9825.0, 9813.0, 9801.0, 9804.0, 9801.0, 9800.0, 9801.0, 9820.0, 9818.0, 9817.0, 9824.0, 9833.0, 9836.0, 9842.0, 9838.0, 9839.0, 9838.0, 9835.0, 9824.0, 9825.0, 9823.0, 9828.0, 9830.0, 9843.0, 9843.0, 9832.0, 9821.0, 9826.0, 9826.0, 9818.0, 9816.0, 9822.0, 9811.0, 9819.0, 9830.0, 9839.0, 9832.0, 9828.0, 9829.0, 9827.0, 9826.0, 9830.0, 9827.0, 9811.0, 9826.0, 9823.0, 9822.0, 9823.0, 9837.0, 9834.0, 9835.0, 9848.0, 9857.0, 9854.0, 9833.0, 9828.0, 9822.0, 9819.0, 9824.0, 9825.0, 9828.0, 9834.0, 9836.0, 9831.0, 9824.0, 9827.0, 9826.0, 9828.0, 9821.0, 9832.0, 9841.0, 9837.0, 9842.0, 9836.0, 9842.0, 9846.0, 9855.0, 9850.0, 9835.0, 9825.0, 9822.0, 9810.0, 9813.0, 9813.0, 9820.0, 9818.0, 9832.0, 9841.0, 9842.0, 9833.0, 9829.0, 9819.0, 9822.0, 9823.0, 9823.0, 9831.0, 9826.0, 9829.0, 9836.0, 9835.0, 9835.0, 9831.0, 9832.0, 9823.0, 9824.0, 9819.0, 9811.0, 9810.0, 9809.0, 9814.0, 9824.0, 9819.0, 9836.0, 9846.0, 9852.0, 9844.0, 9850.0, 9848.0, 9846.0, 9845.0, 9849.0, 9846.0, 9849.0, 9844.0, 9853.0, 9836.0, 9823.0, 9836.0, 9852.0, 9854.0, 9845.0, 9837.0, 9827.0, 9810.0, 9809.0, 9817.0, 9816.0, 9829.0, 9832.0, 9824.0, 9814.0, 9820.0, 9828.0, 9822.0, 9823.0, 9828.0, 9824.0, 9823.0, 9824.0, 9831.0, 9832.0, 9832.0, 9830.0, 9832.0, 9828.0, 9834.0, 9836.0, 9831.0, 9831.0, 9843.0, 9842.0, 9846.0, 9839.0, 9846.0, 9846.0, 9847.0, 9847.0, 9842.0, 9838.0, 9835.0, 9841.0, 9832.0, 9830.0, 9835.0, 9845.0, 9852.0, 9845.0, 9846.0, 9853.0, 9839.0, 9834.0, 9827.0, 9826.0, 9817.0, 9821.0, 9817.0, 9818.0, 9819.0, 9828.0, 9839.0, 9846.0, 9848.0, 9843.0, 9834.0, 9831.0, 9832.0, 9826.0, 9839.0, 9843.0, 9841.0, 9840.0, 9847.0, 9846.0, 9847.0, 9837.0, 9837.0, 9837.0, 9840.0, 9847.0, 9861.0],
