{
  "AcquisitionMatrixPE": 104,
  "AcquisitionNumber": 1,
  "AcquisitionTime": "14:19:6.882500",
  "BandwidthPerPixelPhaseEncode": 16.297,
  "BaseResolution": 104,
  "BodyPartExamined": "BRAIN",
  "ConsistencyInfo": "N4_VE11C_LATEST_20160120",
  "ConversionSoftware": "dcm2niix",
  "ConversionSoftwareVersion": "v1.0.20210317",
  "DerivedVendorReportedEchoSpacing": 0.000590009,
  "DeviceSerialNumber": "166018",
  "DwellTime": 2.1e-06,
  "EchoTime": 0.0376,
  "EchoTrainLength": 104,
  "EffectiveEchoSpacing": 0.000590009,
  "FlipAngle": 68,
  "ImageComments": "Unaliased MB6/PE3/LB",
  "ImageOrientationPatientDICOM": [0.999464, 0.0172422, -0.0278379, -0.0191906, 0.997269, -0.0713151],
  "ImageType": [
    "ORIGINAL",
    "PRIMARY",
    "M",
    "MB",
    "ND",
    "MOSAIC"
],
  "ImagingFrequency": 123.197,
  "InPlanePhaseEncodingDirectionDICOM": "COL",
  "InstitutionAddress": "Washington Place 6,NYC,NYC,US,10003",
  "InstitutionName": "NYU - CBI",
  "InstitutionalDepartmentName": "Department",
  "MRAcquisitionType": "2D",
  "MagneticFieldStrength": 3,
  "Manufacturer": "Siemens",
  "ManufacturersModelName": "Prisma",
  "Modality": "MR",
  "MultibandAccelerationFactor": 6,
  "PartialFourier": 1,
  "PatientPosition": "HFS",
  "PercentPhaseFOV": 100,
  "PercentSampling": 100,
  "PhaseEncodingDirection": "j",
  "PhaseEncodingSteps": 104,
  "PhaseResolution": 1,
  "PixelBandwidth": 2290,
  "ProcedureStepDescription": "Investigators^Winawer",
  "ProtocolName": "cmrr_mbepi_s6_2mm_66sl_PA_task-bar3",
  "PulseSequenceDetails": "%CustomerSeq%\\cmrr_mbep2d_bold",
  "ReceiveCoilActiveElements": "HC1-7",
  "ReceiveCoilName": "HeadNeck_64",
  "ReconMatrixPE": 104,
  "RepetitionTime": 1,
  "SAR": 0.0811514,
  "ScanOptions": "FS",
  "ScanningSequence": "EP",
  "SequenceName": "epfid2d1_104",
  "SequenceVariant": "SK\\SS",
  "SeriesDescription": "cmrr_mbepi_s6_2mm_66sl_PA_task-bar3",
  "SeriesNumber": 16,
  "ShimSetting": [300, -12689, -8467, 338, 18, -199, 21, 6],
  "SliceThickness": 2,
  "SliceTiming": [0, 0.5325, 0.0875, 0.6225, 0.1775, 0.7125, 0.2675, 0.8, 0.355, 0.89, 0.445, 0, 0.5325, 0.0875, 0.6225, 0.1775, 0.7125, 0.2675, 0.8, 0.355, 0.89, 0.445, 0, 0.5325, 0.0875, 0.6225, 0.1775, 0.7125, 0.2675, 0.8, 0.355, 0.89, 0.445, 0, 0.5325, 0.0875, 0.6225, 0.1775, 0.7125, 0.2675, 0.8, 0.355, 0.89, 0.445, 0, 0.5325, 0.0875, 0.6225, 0.1775, 0.7125, 0.2675, 0.8, 0.355, 0.89, 0.445, 0, 0.5325, 0.0875, 0.6225, 0.1775, 0.7125, 0.2675, 0.8, 0.355, 0.89, 0.445],
  "SoftwareVersions": "syngo MR E11",
  "SpacingBetweenSlices": 2,
  "StationName": "AWP166018",
  "TaskName": "bar3",
  "TotalReadoutTime": 0.060771,
  "TxRefAmp": 234.738,
  "VendorReportedEchoSpacing": 0.00059,
  "WipMemBlock": "4c189b5f-5fda-46f0-8ffe-a7516b8ffcb7||Sequence: R016 ve11c/master r/8780670; Nov 27 2017 15:05:12 by eja",
  "dcmmeta_affine": [
    [-1.9989274740219116, -0.03838126361370087, -0.053064581006765366, 110.05915069580078],
    [-0.03448432311415672, 1.994538426399231, -0.14362207055091858, -72.31951141357422],
    [-0.055675871670246124, 0.14263011515140533, 1.9941304922103882, -41.76121520996094],
    [0.0, 0.0, 0.0, 1.0]
],
  "dcmmeta_reorient_transform": [
    [0.0, -1.0, 0.0, 103.0],
    [1.0, 0.0, 0.0, 0.0],
    [0.0, 0.0, 1.0, 0.0],
    [0.0, 0.0, 0.0, 1.0]
],
  "dcmmeta_shape": [104, 104, 66, 300],
  "dcmmeta_slice_dim": 2,
  "dcmmeta_version": 0.6,
  "global": {
    "const": {
      "AccessionNumber": "Leptn04o",
      "AcquisitionMatrix": [104, 0, 0, 104],
      "AngioFlag": "N",
      "BitsAllocated": 16,
      "BitsStored": 16,
      "BodyPartExamined": "BRAIN",
      "Columns": 936,
      "EchoNumbers": 1,
      "EchoTime": 37.6,
      "EchoTrainLength": 104,
      "FlipAngle": 68.0,
      "HighBit": 15,
      "ImageOrientationPatient": [0.99946373480637, 0.01724216158833, -0.0278379358191, -0.0191906321625, 0.99726921252761, -0.0713150571883],
      "ImagePositionPatient": [-921.69310383771, -977.19140700626, 55.424976418253],
      "ImageType": [
        "ORIGINAL",
        "PRIMARY",
        "M",
        "MB",
        "ND",
        "MOSAIC"
],
      "ImagedNucleus": "1H",
      "ImagingFrequency": 123.196795,
      "InPlanePhaseEncodingDirection": "COL",
      "MRAcquisitionType": "2D",
      "MagneticFieldStrength": 3.0,
      "Manufacturer": "SIEMENS",
      "ManufacturerModelName": "Prisma",
      "Modality": "MR",
      "NumberOfAverages": 1.0,
      "NumberOfPhaseEncodingSteps": 104,
      "PercentPhaseFieldOfView": 100.0,
      "PercentSampling": 100.0,
      "PerformedProcedureStepStartTime": "134948.547000",
      "PhotometricInterpretation": "MONOCHROME2",
      "PixelBandwidth": 2290.0,
      "PixelRepresentation": 0,
      "PixelSpacing": [2.0, 2.0],
      "ProtocolName": "cmrr_mbepi_s6_2mm_66sl_PA_task-bar3",
      "RepetitionTime": 1000.0,
      "Rows": 936,
      "SAR": 0.08115139884451,
      "SamplesPerPixel": 1,
      "ScanOptions": "FS",
      "ScanningSequence": "EP",
      "SequenceName": "epfid2d1_104",
      "SequenceVariant": [
        "SK",
        "SS"
],
      "SeriesDescription": "cmrr_mbepi_s6_2mm_66sl_PA_task-bar3",
      "SeriesNumber": 16,
      "SeriesTime": "142006.561000",
      "SliceLocation": -39.365440728294,
      "SliceThickness": 2.0,
      "SmallestImagePixelValue": 0,
      "SoftwareVersions": "syngo MR E11",
      "SpacingBetweenSlices": 1.9999999321085,
      "SpecificCharacterSet": "ISO_IR 100",
      "StudyID": "1",
      "StudyTime": "134948.477000",
      "TransmitCoilName": "Body",
      "VariableFlipAngleFlag": "N",
      "WindowCenterWidthExplanation": "Algo1",
      "dBdt": 0.0},
    "slices": {}
  },
  "time": {
    "samples": {
      "AcquisitionNumber": [1, 2, 3, 4, 5, 6, 7, 8, 9, 10, 11, 12, 13, 14, 15, 16, 17, 18, 19, 20, 21, 22, 23, 24, 25, 26, 27, 28, 29, 30, 31, 32, 33, 34, 35, 36, 37, 38, 39, 40, 41, 42, 43, 44, 45, 46, 47, 48, 49, 50, 51, 52, 53, 54, 55, 56, 57, 58, 59, 60, 61, 62, 63, 64, 65, 66, 67, 68, 69, 70, 71, 72, 73, 74, 75, 76, 77, 78, 79, 80, 81, 82, 83, 84, 85, 86, 87, 88, 89, 90, 91, 92, 93, 94, 95, 96, 97, 98, 99, 100, 101, 102, 103, 104, 105, 106, 107, 108, 109, 110, 111, 112, 113, 114, 115, 116, 117, 118, 119, 120, 121, 122, 123, 124, 125, 126, 127, 128, 129, 130, 131, 132, 133, 134, 135, 136, 137, 138, 139, 140, 141, 142, 143, 144, 145, 146, 147, 148, 149, 150, 151, 152, 153, 154, 155, 156, 157, 158, 159, 160, 161, 162, 163, 164, 165, 166, 167, 168, 169, 170, 171, 172, 173, 174, 175, 176, 177, 178, 179, 180, 181, 182, 183, 184, 185, 186, 187, 188, 189, 190, 191, 192, 193, 194, 195, 196, 197, 198, 199, 200, 201, 202, 203, 204, 205, 206, 207, 208, 209, 210, 211, 212, 213, 214, 215, 216, 217, 218, 219, 220, 221, 222, 223, 224, 225, 226, 227, 228, 229, 230, 231, 232, 233, 234, 235, 236, 237, 238, 239, 240, 241, 242, 243, 244, 245, 246, 247, 248, 249, 250, 251, 252, 253, 254, 255, 256, 257, 258, 259, 260, 261, 262, 263, 264, 265, 266, 267, 268, 269, 270, 271, 272, 273, 274, 275, 276, 277, 278, 279, 280, 281, 282, 283, 284, 285, 286, 287, 288, 289, 290, 291, 292, 293, 294, 295, 296, 297, 298, 299, 300],
      "AcquisitionTime": ["141906.882500", "141907.882500", "141908.882500", "141909.882500", "141910.882500", "141911.882500", "141912.882500", "141913.882500", "141914.882500", "141915.882500", "141916.882500", "141917.882500", "141918.882500", "141919.882500", "141920.882500", "141921.882500", "141922.882500", "141923.882500", "141924.882500", "141925.882500", "141926.882500", "141927.882500", "141928.882500", "141929.882500", "141930.882500", "141931.882500", "141932.882500", "141933.882500", "141934.882500", "141935.882500", "141936.882500", "141937.882500", "141938.882500", "141939.882500", "141940.882500", "141941.882500", "141942.882500", "141943.882500", "141944.882500", "141945.882500", "141946.882500", "141947.882500", "141948.882500", "141949.882500", "141950.882500", "141951.882500", "141952.882500", "141953.882500", "141954.882500", "141955.882500", "141956.882500", "141957.882500", "141958.882500", "141959.882500", "142000.882500", "142001.882500", "142002.882500", "142003.882500", "142004.882500", "142005.882500", "142006.882500", "142007.882500", "142008.882500", "142009.882500", "142010.882500", "142011.882500", "142012.882500", "142013.882500", "142014.882500", "142015.882500", "142016.882500", "142017.882500", "142018.882500", "142019.882500", "142020.882500", "142021.882500", "142022.882500", "142023.882500", "142024.882500", "142025.882500", "142026.882500", "142027.882500", "142028.882500", "142029.882500", "142030.882500", "142031.882500", "142032.882500", "142033.882500", "142034.882500", "142035.882500", "142036.882500", "142037.882500", "142038.882500", "142039.882500", "142040.882500", "142041.882500", "142042.882500", "142043.882500", "142044.882500", "142045.882500", "142046.882500", "142047.882500", "142048.882500", "142049.882500", "142050.882500", "142051.882500", "142052.882500", "142053.882500", "142054.882500", "142055.882500", "142056.882500", "142057.882500", "142058.882500", "142059.882500", "142100.882500", "142101.882500", "142102.882500", "142103.882500", "142104.882500", "142105.882500", "142106.882500", "142107.882500", "142108.882500", "142109.882500", "142110.882500", "142111.882500", "142112.882500", "142113.882500", "142114.882500", "142115.882500", "142116.882500", "142117.882500", "142118.882500", "142119.882500", "142120.882500", "142121.882500", "142122.882500", "142123.882500", "142124.882500", "142125.882500", "142126.882500", "142127.882500", "142128.882500", "142129.882500", "142130.882500", "142131.882500", "142132.882500", "142133.882500", "142134.882500", "142135.882500", "142136.882500", "142137.882500", "142138.882500", "142139.882500", "142140.882500", "142141.882500", "142142.882500", "142143.882500", "142144.882500", "142145.882500", "142146.882500", "142147.882500", "142148.882500", "142149.882500", "142150.882500", "142151.882500", "142152.882500", "142153.882500", "142154.882500", "142155.882500", "142156.882500", "142157.882500", "142158.882500", "142159.882500", "142200.882500", "142201.882500", "142202.882500", "142203.882500", "142204.882500", "142205.882500", "142206.882500", "142207.882500", "142208.882500", "142209.882500", "142210.882500", "142211.882500", "142212.882500", "142213.882500", "142214.882500", "142215.882500", "142216.882500", "142217.882500", "142218.882500", "142219.882500", "142220.882500", "142221.882500", "142222.882500", "142223.882500", "142224.882500", "142225.882500", "142226.882500", "142227.882500", "142228.882500", "142229.882500", "142230.882500", "142231.882500", "142232.882500", "142233.882500", "142234.882500", "142235.882500", "142236.882500", "142237.882500", "142238.882500", "142239.882500", "142240.882500", "142241.882500", "142242.882500", "142243.882500", "142244.882500", "142245.882500", "142246.882500", "142247.882500", "142248.882500", "142249.882500", "142250.882500", "142251.882500", "142252.882500", "142253.882500", "142254.882500", "142255.882500", "142256.882500", "142257.882500", "142258.882500", "142259.882500", "142300.882500", "142301.882500", "142302.882500", "142303.882500", "142304.882500", "142305.882500", "142306.882500", "142307.882500", "142308.882500", "142309.882500", "142310.882500", "142311.882500", "142312.882500", "142313.882500", "142314.882500", "142315.882500", "142316.882500", "142317.882500", "142318.882500", "142319.882500", "142320.882500", "142321.882500", "142322.882500", "142323.882500", "142324.882500", "142325.882500", "142326.882500", "142327.882500", "142328.882500", "142329.882500", "142330.882500", "142331.882500", "142332.882500", "142333.882500", "142334.882500", "142335.882500", "142336.882500", "142337.882500", "142338.882500", "142339.882500", "142340.882500", "142341.882500", "142342.882500", "142343.882500", "142344.882500", "142345.882500", "142346.882500", "142347.882500", "142348.882500", "142349.882500", "142350.882500", "142351.882500", "142352.882500", "142353.882500", "142354.882500", "142355.882500", "142356.882500", "142357.882500", "142358.882500", "142359.882500", "142400.882500", "142401.882500", "142402.882500", "142403.882500", "142404.882500", "142405.882500"],
      "ContentTime": ["142006.564000", "142006.568000", "142026.533000", "142026.536000", "142026.539000", "142026.542000", "142026.623000", "142026.626000", "142026.629000", "142026.632000", "142026.635000", "142026.638000", "142026.641000", "142026.643000", "142026.646000", "142026.649000", "142026.652000", "142026.655000", "142026.658000", "142026.661000", "142026.664000", "142026.669000", "142026.672000", "142026.675000", "142026.683000", "142026.686000", "142026.689000", "142026.692000", "142026.694000", "142026.697000", "142026.700000", "142046.533000", "142046.536000", "142046.543000", "142046.546000", "142046.549000", "142046.552000", "142046.555000", "142046.558000", "142046.561000", "142046.564000", "142046.567000", "142046.570000", "142046.573000", "142046.576000", "142046.579000", "142046.582000", "142046.585000", "142046.588000", "142046.591000", "142046.594000", "142046.597000", "142046.600000", "142046.603000", "142046.606000", "142046.609000", "142046.612000", "142046.615000", "142046.618000", "142106.533000", "142106.536000", "142106.539000", "142106.542000", "142106.545000", "142106.548000", "142106.552000", "142106.555000", "142106.558000", "142106.561000", "142106.564000", "142106.567000", "142106.570000", "142106.573000", "142106.576000", "142106.579000", "142106.582000", "142106.585000", "142106.588000", "142106.591000", "142106.594000", "142106.597000", "142106.600000", "142106.603000", "142106.606000", "142106.609000", "142106.612000", "142106.615000", "142126.533000", "142126.536000", "142126.539000", "142126.542000", "142126.546000", "142126.549000", "142126.552000", "142126.555000", "142126.558000", "142126.561000", "142126.564000", "142126.567000", "142126.570000", "142126.573000", "142126.576000", "142126.579000", "142126.582000", "142126.585000", "142126.588000", "142126.591000", "142126.600000", "142126.613000", "142126.616000", "142126.619000", "142126.622000", "142126.625000", "142126.628000", "142126.631000", "142146.533000", "142146.536000", "142146.539000", "142146.542000", "142146.545000", "142146.549000", "142146.552000", "142146.555000", "142146.558000", "142146.561000", "142146.564000", "142146.567000", "142146.570000", "142146.573000", "142146.576000", "142146.579000", "142146.582000", "142146.585000", "142146.588000", "142146.591000", "142146.594000", "142146.597000", "142146.600000", "142146.603000", "142146.606000", "142146.609000", "142146.612000", "142146.615000", "142146.618000", "142206.533000", "142206.540000", "142206.543000", "142206.546000", "142206.549000", "142206.552000", "142206.555000", "142206.558000", "142206.561000", "142206.564000", "142206.567000", "142206.570000", "142206.573000", "142206.576000", "142206.579000", "142206.582000", "142206.585000", "142206.588000", "142206.591000", "142206.594000", "142206.597000", "142206.600000", "142206.603000", "142206.606000", "142206.609000", "142206.612000", "142206.615000", "142206.617000", "142226.533000", "142226.536000", "142226.539000", "142226.542000", "142226.545000", "142226.548000", "142226.551000", "142226.554000", "142226.557000", "142226.560000", "142226.563000", "142226.566000", "142226.569000", "142226.572000", "142226.575000", "142226.578000", "142226.581000", "142226.584000", "142226.587000", "142226.590000", "142226.593000", "142226.596000", "142226.599000", "142226.602000", "142226.605000", "142226.608000", "142226.611000", "142246.533000", "142246.536000", "142246.539000", "142246.542000", "142246.545000", "142246.548000", "142246.551000", "142246.554000", "142246.557000", "142246.560000", "142246.563000", "142246.566000", "142246.569000", "142246.572000", "142246.575000", "142246.578000", "142246.581000", "142246.584000", "142246.587000", "142246.590000", "142306.533000", "142306.536000", "142306.539000", "142306.542000", "142306.545000", "142306.548000", "142306.551000", "142306.554000", "142306.557000", "142306.560000", "142306.563000", "142306.566000", "142306.569000", "142306.572000", "142306.575000", "142306.578000", "142306.581000", "142306.585000", "142306.588000", "142306.591000", "142326.533000", "142326.536000", "142326.539000", "142326.542000", "142326.545000", "142326.548000", "142326.551000", "142326.554000", "142326.557000", "142326.560000", "142326.563000", "142326.566000", "142326.569000", "142326.572000", "142326.575000", "142326.578000", "142326.581000", "142326.584000", "142326.587000", "142326.590000", "142346.533000", "142346.536000", "142346.539000", "142346.542000", "142346.545000", "142346.548000", "142346.551000", "142346.554000", "142346.557000", "142346.560000", "142346.563000", "142346.566000", "142346.569000", "142346.572000", "142346.575000", "142346.578000", "142346.581000", "142346.584000", "142346.587000", "142346.602000", "142406.533000", "142406.536000", "142406.539000", "142406.542000", "142406.545000", "142406.548000", "142406.551000", "142406.554000", "142406.561000", "142406.564000", "142406.566000", "142406.570000", "142406.573000", "142406.576000", "142406.579000", "142406.582000", "142406.585000", "142406.588000", "142406.591000", "142406.594000", "142407.112000"],
      "InstanceCreationTime": ["142006.564000", "142006.568000", "142026.533000", "142026.536000", "142026.539000", "142026.542000", "142026.623000", "142026.626000", "142026.629000", "142026.632000", "142026.635000", "142026.638000", "142026.641000", "142026.643000", "142026.646000", "142026.649000", "142026.652000", "142026.655000", "142026.658000", "142026.661000", "142026.664000", "142026.669000", "142026.672000", "142026.675000", "142026.683000", "142026.686000", "142026.689000", "142026.692000", "142026.694000", "142026.697000", "142026.700000", "142046.533000", "142046.536000", "142046.543000", "142046.546000", "142046.549000", "142046.552000", "142046.555000", "142046.558000", "142046.561000", "142046.564000", "142046.567000", "142046.570000", "142046.573000", "142046.576000", "142046.579000", "142046.582000", "142046.585000", "142046.588000", "142046.591000", "142046.594000", "142046.597000", "142046.600000", "142046.603000", "142046.606000", "142046.609000", "142046.612000", "142046.615000", "142046.618000", "142106.533000", "142106.536000", "142106.539000", "142106.542000", "142106.545000", "142106.548000", "142106.552000", "142106.555000", "142106.558000", "142106.561000", "142106.564000", "142106.567000", "142106.570000", "142106.573000", "142106.576000", "142106.579000", "142106.582000", "142106.585000", "142106.588000", "142106.591000", "142106.594000", "142106.597000", "142106.600000", "142106.603000", "142106.606000", "142106.609000", "142106.612000", "142106.615000", "142126.533000", "142126.536000", "142126.539000", "142126.542000", "142126.546000", "142126.549000", "142126.552000", "142126.555000", "142126.558000", "142126.561000", "142126.564000", "142126.567000", "142126.570000", "142126.573000", "142126.576000", "142126.579000", "142126.582000", "142126.585000", "142126.588000", "142126.591000", "142126.600000", "142126.613000", "142126.616000", "142126.619000", "142126.622000", "142126.625000", "142126.628000", "142126.631000", "142146.533000", "142146.536000", "142146.539000", "142146.542000", "142146.545000", "142146.549000", "142146.552000", "142146.555000", "142146.558000", "142146.561000", "142146.564000", "142146.567000", "142146.570000", "142146.573000", "142146.576000", "142146.579000", "142146.582000", "142146.585000", "142146.588000", "142146.591000", "142146.594000", "142146.597000", "142146.600000", "142146.603000", "142146.606000", "142146.609000", "142146.612000", "142146.615000", "142146.618000", "142206.533000", "142206.540000", "142206.543000", "142206.546000", "142206.549000", "142206.552000", "142206.555000", "142206.558000", "142206.561000", "142206.564000", "142206.567000", "142206.570000", "142206.573000", "142206.576000", "142206.579000", "142206.582000", "142206.585000", "142206.588000", "142206.591000", "142206.594000", "142206.597000", "142206.600000", "142206.603000", "142206.606000", "142206.609000", "142206.612000", "142206.615000", "142206.617000", "142226.533000", "142226.536000", "142226.539000", "142226.542000", "142226.545000", "142226.548000", "142226.551000", "142226.554000", "142226.557000", "142226.560000", "142226.563000", "142226.566000", "142226.569000", "142226.572000", "142226.575000", "142226.578000", "142226.581000", "142226.584000", "142226.587000", "142226.590000", "142226.593000", "142226.596000", "142226.599000", "142226.602000", "142226.605000", "142226.608000", "142226.611000", "142246.533000", "142246.536000", "142246.539000", "142246.542000", "142246.545000", "142246.548000", "142246.551000", "142246.554000", "142246.557000", "142246.560000", "142246.563000", "142246.566000", "142246.569000", "142246.572000", "142246.575000", "142246.578000", "142246.581000", "142246.584000", "142246.587000", "142246.590000", "142306.533000", "142306.536000", "142306.539000", "142306.542000", "142306.545000", "142306.548000", "142306.551000", "142306.554000", "142306.557000", "142306.560000", "142306.563000", "142306.566000", "142306.569000", "142306.572000", "142306.575000", "142306.578000", "142306.581000", "142306.585000", "142306.588000", "142306.591000", "142326.533000", "142326.536000", "142326.539000", "142326.542000", "142326.545000", "142326.548000", "142326.551000", "142326.554000", "142326.557000", "142326.560000", "142326.563000", "142326.566000", "142326.569000", "142326.572000", "142326.575000", "142326.578000", "142326.581000", "142326.584000", "142326.587000", "142326.590000", "142346.533000", "142346.536000", "142346.539000", "142346.542000", "142346.545000", "142346.548000", "142346.551000", "142346.554000", "142346.557000", "142346.560000", "142346.563000", "142346.566000", "142346.569000", "142346.572000", "142346.575000", "142346.578000", "142346.581000", "142346.584000", "142346.587000", "142346.602000", "142406.533000", "142406.536000", "142406.539000", "142406.542000", "142406.545000", "142406.548000", "142406.551000", "142406.554000", "142406.561000", "142406.564000", "142406.566000", "142406.570000", "142406.573000", "142406.576000", "142406.579000", "142406.582000", "142406.585000", "142406.588000", "142406.591000", "142406.594000", "142407.112000"],
      "InstanceNumber": [1, 2, 3, 4, 5, 6, 7, 8, 9, 10, 11, 12, 13, 14, 15, 16, 17, 18, 19, 20, 21, 22, 23, 24, 25, 26, 27, 28, 29, 30, 31, 32, 33, 34, 35, 36, 37, 38, 39, 40, 41, 42, 43, 44, 45, 46, 47, 48, 49, 50, 51, 52, 53, 54, 55, 56, 57, 58, 59, 60, 61, 62, 63, 64, 65, 66, 67, 68, 69, 70, 71, 72, 73, 74, 75, 76, 77, 78, 79, 80, 81, 82, 83, 84, 85, 86, 87, 88, 89, 90, 91, 92, 93, 94, 95, 96, 97, 98, 99, 100, 101, 102, 103, 104, 105, 106, 107, 108, 109, 110, 111, 112, 113, 114, 115, 116, 117, 118, 119, 120, 121, 122, 123, 124, 125, 126, 127, 128, 129, 130, 131, 132, 133, 134, 135, 136, 137, 138, 139, 140, 141, 142, 143, 144, 145, 146, 147, 148, 149, 150, 151, 152, 153, 154, 155, 156, 157, 158, 159, 160, 161, 162, 163, 164, 165, 166, 167, 168, 169, 170, 171, 172, 173, 174, 175, 176, 177, 178, 179, 180, 181, 182, 183, 184, 185, 186, 187, 188, 189, 190, 191, 192, 193, 194, 195, 196, 197, 198, 199, 200, 201, 202, 203, 204, 205, 206, 207, 208, 209, 210, 211, 212, 213, 214, 215, 216, 217, 218, 219, 220, 221, 222, 223, 224, 225, 226, 227, 228, 229, 230, 231, 232, 233, 234, 235, 236, 237, 238, 239, 240, 241, 242, 243, 244, 245, 246, 247, 248, 249, 250, 251, 252, 253, 254, 255, 256, 257, 258, 259, 260, 261, 262, 263, 264, 265, 266, 267, 268, 269, 270, 271, 272, 273, 274, 275, 276, 277, 278, 279, 280, 281, 282, 283, 284, 285, 286, 287, 288, 289, 290, 291, 292, 293, 294, 295, 296, 297, 298, 299, 300],
      "LargestImagePixelValue": [40223, 39430, 39454, 38402, 38499, 38898, 37822, 37627, 37823, 37869, 37577, 37626, 38139, 37917, 38113, 38283, 38445, 38296, 38212, 38525, 38065, 38302, 38012, 38655, 38335, 38209, 38328, 38381, 37688, 38161, 38169, 37581, 37560, 38315, 37466, 37260, 37409, 37911, 37698, 37482, 37803, 37653, 37539, 37645, 37580, 37424, 37564, 37419, 37302, 37676, 37676, 37468, 37435, 37901, 38135, 37489, 37231, 37921, 37913, 37687, 37611, 38009, 37629, 37633, 38224, 37737, 37960, 37786, 37842, 37786, 37509, 38085, 37655, 37917, 38231, 37532, 37774, 37837, 37989, 37286, 37406, 37854, 37712, 37604, 37376, 36968, 37088, 37223, 37454, 37554, 37069, 37062, 37310, 36946, 37420, 37409, 37009, 37112, 36741, 37186, 37281, 37265, 37014, 37510, 37328, 37244, 37798, 37297, 37390, 37690, 37401, 37513, 37454, 37408, 37469, 37045, 37679, 37519, 37273, 37975, 37005, 36985, 37274, 37599, 37519, 37345, 37308, 36763, 37171, 37460, 37464, 37088, 36918, 37394, 36894, 37280, 37392, 37136, 37372, 36880, 37326, 37595, 37860, 37527, 37710, 37596, 37195, 37443, 37595, 37333, 37380, 37531, 37441, 37541, 37246, 37721, 37591, 37124, 37276, 37680, 37146, 37216, 37300, 37171, 37152, 37706, 37611, 37407, 37669, 37950, 37626, 37798, 37543, 37727, 37416, 37452, 37452, 37240, 37274, 36945, 36664, 36986, 36908, 36850, 37443, 37179, 36740, 36994, 37259, 37037, 37310, 36906, 37362, 37383, 37450, 37747, 37952, 37399, 37549, 37358, 37405, 37387, 37507, 37568, 37431, 37341, 37848, 37362, 37783, 37638, 37426, 37245, 37642, 37497, 37161, 37847, 37404, 37465, 37383, 37799, 37371, 37537, 37633, 37522, 37132, 37546, 37795, 37531, 37629, 37337, 37730, 37183, 37512, 37991, 37537, 37555, 37920, 37469, 37455, 38123, 37664, 37198, 37577, 37798, 37284, 37639, 37624, 37405, 37487, 37457, 38030, 37234, 37576, 37331, 37601, 37077, 37711, 37720, 37323, 37559, 37605, 37092, 37686, 37717, 37563, 37434, 37767, 37631, 37094, 37521, 37813, 37721, 37304, 37449, 37484, 37260, 37767, 37829, 36915, 37177, 37700, 37807, 37122, 36971, 37526, 37438, 37039, 37243, 37460, 37594, 37678, 37090, 37459, 37324, 37548, 36743, 37111, 37138, 37605, 37521],
      "WindowCenter": [9957.0, 9908.0, 9900.0, 9883.0, 9890.0, 9903.0, 9885.0, 9876.0, 9867.0, 9867.0, 9852.0, 9856.0, 9856.0, 9851.0, 9853.0, 9861.0, 9877.0, 9879.0, 9872.0, 9877.0, 9871.0, 9868.0, 9861.0, 9866.0, 9858.0, 9851.0, 9865.0, 9872.0, 9862.0, 9870.0, 9878.0, 9866.0, 9864.0, 9884.0, 9874.0, 9867.0, 9865.0, 9870.0, 9861.0, 9855.0, 9861.0, 9863.0, 9846.0, 9853.0, 9855.0, 9854.0, 9848.0, 9847.0, 9837.0, 9835.0, 9844.0, 9831.0, 9827.0, 9832.0, 9841.0, 9827.0, 9826.0, 9845.0, 9834.0, 9831.0, 9833.0, 9841.0, 9840.0, 9841.0, 9855.0, 9851.0, 9854.0, 9848.0, 9843.0, 9840.0, 9833.0, 9847.0, 9838.0, 9831.0, 9838.0, 9827.0, 9826.0, 9837.0, 9841.0, 9833.0, 9834.0, 9847.0, 9849.0, 9856.0, 9860.0, 9857.0, 9856.0, 9854.0, 9859.0, 9853.0, 9839.0, 9837.0, 9850.0, 9855.0, 9877.0, 9880.0, 9876.0, 9866.0, 9851.0, 9855.0, 9846.0, 9830.0, 9828.0, 9842.0, 9843.0, 9837.0, 9851.0, 9846.0, 9844.0, 9844.0, 9838.0, 9836.0, 9843.0, 9846.0, 9839.0, 9839.0, 9853.0, 9846.0, 9838.0, 9855.0, 9840.0, 9845.0, 9839.0, 9853.0, 9846.0, 9853.0, 9860.0, 9849.0, 9847.0, 9853.0, 9863.0, 9856.0, 9849.0, 9862.0, 9851.0, 9854.0, 9855.0, 9848.0, 9838.0, 9825.0, 9838.0, 9829.0, 9833.0, 9837.0, 9843.0, 9836.0, 9830.0, 9822.0, 9818.0, 9811.0, 9811.0, 9810.0, 9817.0, 9820.0, 9820.0, 9834.0, 9837.0, 9839.0, 9840.0, 9846.0, 9842.0, 9833.0, 9828.0, 9814.0, 9813.0, 9809.0, 9816.0, 9818.0, 9824.0, 9830.0, 9833.0, 9827.0, 9826.0, 9832.0, 9834.0, 9835.0, 9843.0, 9847.0, 9847.0, 9848.0, 9850.0, 9840.0, 9831.0, 9831.0, 9846.0, 9846.0, 9851.0, 9869.0, 9857.0, 9842.0, 9831.0, 9815.0, 9811.0, 9800.0, 9805.0, 9815.0, 9830.0, 9833.0, 9842.0, 9853.0, 9862.0, 9871.0, 9879.0, 9883.0, 9874.0, 9867.0, 9873.0, 9871.0, 9871.0, 9871.0, 9872.0, 9866.0, 9864.0, 9864.0, 9858.0, 9854.0, 9846.0, 9854.0, 9854.0, 9844.0, 9838.0, 9838.0, 9828.0, 9826.0, 9828.0, 9834.0, 9835.0, 9839.0, 9851.0, 9837.0, 9835.0, 9824.0, 9821.0, 9825.0, 9828.0, 9828.0, 9833.0, 9834.0, 9832.0, 9836.0, 9821.0, 9811.0, 9814.0, 9815.0, 9826.0, 9831.0, 9830.0, 9825.0, 9832.0, 9818.0, 9827.0, 9819.0, 9817.0, 9810.0, 9815.0, 9817.0, 9823.0, 9823.0, 9832.0, 9825.0, 9815.0, 9816.0, 9820.0, 9812.0, 9807.0, 9799.0, 9795.0, 9800.0, 9799.0, 9805.0, 9818.0, 9826.0, 9824.0, 9823.0, 9829.0, 9825.0, 9829.0, 9830.0, 9828.0, 9827.0, 9831.0, 9830.0, 9820.0, 9817.0, 9816.0, 9816.0, 9817.0, 9803.0, 9808.0, 9807.0, 9822.0, 9809.0, 9815.0, 9816.0, 9816.0, 9820.0, 9819.0, 9827.0, 9840.0, 9836.0],
