{
  "AcquisitionMatrixPE": 104,
  "AcquisitionNumber": 1,
  "AcquisitionTime": "19:44:17.527500",
  "BandwidthPerPixelPhaseEncode": 16.297,
  "BaseResolution": 104,
  "BodyPartExamined": "BRAIN",
  "ConsistencyInfo": "N4_VE11C_LATEST_20160120",
  "ConversionSoftware": "dcm2niix",
  "ConversionSoftwareVersion": "v1.0.20190902",
  "DerivedVendorReportedEchoSpacing": 0.000590009,
  "DeviceSerialNumber": "166018",
  "DwellTime": 2.1e-06,
  "EchoTime": 0.0376,
  "EchoTrainLength": 104,
  "EffectiveEchoSpacing": 0.000590009,
  "FlipAngle": 68,
  "ImageComments": "Unaliased_MB6_PE3_LB",
  "ImageOrientationPatientDICOM": [0.99982, -0.0125353, -0.0142533, 0.0111685, 0.995675, -0.0922301],
  "ImageType": [
    "ORIGINAL",
    "PRIMARY",
    "M",
    "MB",
    "ND",
    "MOSAIC"
],
  "ImagingFrequency": 123.197,
  "InPlanePhaseEncodingDirectionDICOM": "COL",
  "InstitutionAddress": "Washington_Place_6_NYC_NYC_US_10003",
  "InstitutionName": "NYU_-_CBI",
  "InstitutionalDepartmentName": "Department",
  "MRAcquisitionType": "2D",
  "MagneticFieldStrength": 3,
  "Manufacturer": "Siemens",
  "ManufacturersModelName": "Prisma",
  "Modality": "MR",
  "MultibandAccelerationFactor": 6,
  "PartialFourier": 1,
  "PatientPosition": "HFS",
  "PercentPhaseFOV": 100,
  "PhaseEncodingDirection": "j",
  "PhaseEncodingSteps": 104,
  "PhaseResolution": 1,
  "PixelBandwidth": 2290,
  "ProcedureStepDescription": "Investigators_Winawer",
  "ProtocolName": "cmrr_mbepi_s6_2mm_66sl_PA_task-prf",
  "PulseSequenceDetails": "%CustomerSeq%_cmrr_mbep2d_bold",
  "ReceiveCoilActiveElements": "HC1-7",
  "ReceiveCoilName": "HeadNeck_64",
  "ReconMatrixPE": 104,
  "RepetitionTime": 1,
  "SAR": 0.0646521,
  "ScanOptions": "FS",
  "ScanningSequence": "EP",
  "SequenceName": "epfid2d1_104",
  "SequenceVariant": "SK_SS",
  "SeriesDescription": "cmrr_mbepi_s6_2mm_66sl_PA_task-prf",
  "SeriesNumber": 22,
  "ShimSetting": [285, -12614, -8462, 344, 17, -70, 37, 72],
  "SliceThickness": 2,
  "SliceTiming": [0, 0.535, 0.09, 0.625, 0.18, 0.715, 0.2675, 0.8025, 0.3575, 0.8925, 0.4475, 0, 0.535, 0.09, 0.625, 0.18, 0.715, 0.2675, 0.8025, 0.3575, 0.8925, 0.4475, 0, 0.535, 0.09, 0.625, 0.18, 0.715, 0.2675, 0.8025, 0.3575, 0.8925, 0.4475, 0, 0.535, 0.09, 0.625, 0.18, 0.715, 0.2675, 0.8025, 0.3575, 0.8925, 0.4475, 0, 0.535, 0.09, 0.625, 0.18, 0.715, 0.2675, 0.8025, 0.3575, 0.8925, 0.4475, 0, 0.535, 0.09, 0.625, 0.18, 0.715, 0.2675, 0.8025, 0.3575, 0.8925, 0.4475],
  "SoftwareVersions": "syngo_MR_E11",
  "SpacingBetweenSlices": 2,
  "StationName": "AWP166018",
  "TaskName": "prf",
  "TotalReadoutTime": 0.060771,
  "TxRefAmp": 206.58,
  "VendorReportedEchoSpacing": 0.00059,
  "WipMemBlock": "e08fe50f-6a08-4b97-99c7-510ed046b681||Sequence: R016 ve11c/master r/8780670; Nov 27 2017 15:05:12 by eja",
  "dcmmeta_affine": [
    [-1.999639630317688, 0.022337082773447037, -0.0306955985724926, 104.43843841552734],
    [0.025070656090974808, 1.9913501739501953, -0.18410862982273102, -73.31676483154297],
    [-0.02850661799311638, 0.18446023762226105, 1.9912714958190918, -51.61579895019531],
    [0.0, 0.0, 0.0, 1.0]
],
  "dcmmeta_reorient_transform": [
    [0.0, -1.0, 0.0, 103.0],
    [1.0, 0.0, 0.0, 0.0],
    [0.0, 0.0, 1.0, 0.0],
    [0.0, 0.0, 0.0, 1.0]
],
  "dcmmeta_shape": [104, 104, 66, 192],
  "dcmmeta_slice_dim": 2,
  "dcmmeta_version": 0.6,
  "global": {
    "const": {
      "AccessionNumber": "L80dmaio",
      "AcquisitionMatrix": [104, 0, 0, 104],
      "AngioFlag": "N",
      "BitsAllocated": 16,
      "BitsStored": 16,
      "BodyPartExamined": "BRAIN",
      "Columns": 936,
      "EchoNumbers": 1,
      "EchoTime": 37.6,
      "EchoTrainLength": 104,
      "FlipAngle": 68.0,
      "HighBit": 15,
      "ImageOrientationPatient": [0.99981983813936, -0.0125353278327, -0.0142533090581, 0.01116854137735, 0.99567508229194, -0.0922301153986],
      "ImagePositionPatient": [-947.88148665289, -949.76457700428, 55.97781527806],
      "ImageType": [
        "ORIGINAL",
        "PRIMARY",
        "M",
        "MB",
        "ND",
        "MOSAIC"
],
      "ImagedNucleus": "1H",
      "ImagingFrequency": 123.196836,
      "InPlanePhaseEncodingDirection": "COL",
      "MRAcquisitionType": "2D",
      "MagneticFieldStrength": 3.0,
      "Manufacturer": "SIEMENS",
      "ManufacturerModelName": "Prisma",
      "Modality": "MR",
      "NumberOfAverages": 1.0,
      "NumberOfPhaseEncodingSteps": 104,
      "PercentPhaseFieldOfView": 100.0,
      "PercentSampling": 100.0,
      "PerformedProcedureStepStartTime": "184723.689000",
      "PhotometricInterpretation": "MONOCHROME2",
      "PixelBandwidth": 2290.0,
      "PixelRepresentation": 0,
      "PixelSpacing": [2.0, 2.0],
      "ProtocolName": "cmrr_mbepi_s6_2mm_66sl_PA_task-prf",
      "RepetitionTime": 1000.0,
      "Rows": 936,
      "SAR": 0.06465207866915,
      "SamplesPerPixel": 1,
      "ScanOptions": "FS",
      "ScanningSequence": "EP",
      "SequenceName": "epfid2d1_104",
      "SequenceVariant": [
        "SK",
        "SS"
],
      "SeriesDescription": "cmrr_mbepi_s6_2mm_66sl_PA_task-prf",
      "SeriesNumber": 22,
      "SeriesTime": "194529.283000",
      "SliceLocation": -46.244306719308,
      "SliceThickness": 2.0,
      "SmallestImagePixelValue": 0,
      "SoftwareVersions": "syngo MR E11",
      "SpacingBetweenSlices": 2.0000000420824,
      "SpecificCharacterSet": "ISO_IR 100",
      "StudyID": "1",
      "StudyTime": "184723.598000",
      "TransmitCoilName": "Body",
      "VariableFlipAngleFlag": "N",
      "WindowCenterWidthExplanation": "Algo1",
      "dBdt": 0.0},
    "slices": {}
  },
  "time": {
    "samples": {
      "AcquisitionNumber": [1, 2, 3, 4, 5, 6, 7, 8, 9, 10, 11, 12, 13, 14, 15, 16, 17, 18, 19, 20, 21, 22, 23, 24, 25, 26, 27, 28, 29, 30, 31, 32, 33, 34, 35, 36, 37, 38, 39, 40, 41, 42, 43, 44, 45, 46, 47, 48, 49, 50, 51, 52, 53, 54, 55, 56, 57, 58, 59, 60, 61, 62, 63, 64, 65, 66, 67, 68, 69, 70, 71, 72, 73, 74, 75, 76, 77, 78, 79, 80, 81, 82, 83, 84, 85, 86, 87, 88, 89, 90, 91, 92, 93, 94, 95, 96, 97, 98, 99, 100, 101, 102, 103, 104, 105, 106, 107, 108, 109, 110, 111, 112, 113, 114, 115, 116, 117, 118, 119, 120, 121, 122, 123, 124, 125, 126, 127, 128, 129, 130, 131, 132, 133, 134, 135, 136, 137, 138, 139, 140, 141, 142, 143, 144, 145, 146, 147, 148, 149, 150, 151, 152, 153, 154, 155, 156, 157, 158, 159, 160, 161, 162, 163, 164, 165, 166, 167, 168, 169, 170, 171, 172, 173, 174, 175, 176, 177, 178, 179, 180, 181, 182, 183, 184, 185, 186, 187, 188, 189, 190, 191, 192],
      "AcquisitionTime": ["194417.527500", "194418.527500", "194419.527500", "194420.527500", "194421.527500", "194422.527500", "194423.527500", "194424.527500", "194425.527500", "194426.527500", "194427.527500", "194428.527500", "194429.527500", "194430.527500", "194431.527500", "194432.527500", "194433.527500", "194434.527500", "194435.527500", "194436.527500", "194437.527500", "194438.527500", "194439.527500", "194440.527500", "194441.527500", "194442.527500", "194443.527500", "194444.527500", "194445.527500", "194446.527500", "194447.527500", "194448.527500", "194449.527500", "194450.527500", "194451.527500", "194452.527500", "194453.527500", "194454.527500", "194455.527500", "194456.527500", "194457.527500", "194458.527500", "194459.527500", "194500.527500", "194501.527500", "194502.527500", "194503.527500", "194504.527500", "194505.527500", "194506.527500", "194507.527500", "194508.527500", "194509.527500", "194510.527500", "194511.527500", "194512.527500", "194513.527500", "194514.527500", "194515.527500", "194516.527500", "194517.527500", "194518.527500", "194519.527500", "194520.527500", "194521.527500", "194522.527500", "194523.527500", "194524.527500", "194525.527500", "194526.527500", "194527.527500", "194528.527500", "194529.527500", "194530.527500", "194531.527500", "194532.527500", "194533.527500", "194534.527500", "194535.527500", "194536.527500", "194537.527500", "194538.527500", "194539.527500", "194540.527500", "194541.527500", "194542.527500", "194543.527500", "194544.527500", "194545.527500", "194546.527500", "194547.527500", "194548.527500", "194549.527500", "194550.527500", "194551.527500", "194552.527500", "194553.527500", "194554.527500", "194555.527500", "194556.527500", "194557.527500", "194558.527500", "194559.527500", "194600.527500", "194601.527500", "194602.527500", "194603.527500", "194604.527500", "194605.527500", "194606.527500", "194607.527500", "194608.527500", "194609.527500", "194610.527500", "194611.527500", "194612.527500", "194613.527500", "194614.527500", "194615.527500", "194616.527500", "194617.527500", "194618.527500", "194619.527500", "194620.527500", "194621.527500", "194622.527500", "194623.527500", "194624.527500", "194625.527500", "194626.527500", "194627.527500", "194628.527500", "194629.527500", "194630.527500", "194631.527500", "194632.527500", "194633.527500", "194634.527500", "194635.527500", "194636.527500", "194637.527500", "194638.527500", "194639.527500", "194640.527500", "194641.527500", "194642.527500", "194643.527500", "194644.527500", "194645.527500", "194646.527500", "194647.527500", "194648.527500", "194649.527500", "194650.527500", "194651.527500", "194652.527500", "194653.527500", "194654.527500", "194655.527500", "194656.527500", "194657.527500", "194658.527500", "194659.527500", "194700.527500", "194701.527500", "194702.527500", "194703.527500", "194704.527500", "194705.527500", "194706.527500", "194707.527500", "194708.527500", "194709.527500", "194710.527500", "194711.527500", "194712.527500", "194713.527500", "194714.527500", "194715.527500", "194716.527500", "194717.527500", "194718.527500", "194719.527500", "194720.527500", "194721.527500", "194722.527500", "194723.527500", "194724.527500", "194725.527500", "194726.527500", "194727.527500", "194728.527500"],
      "ContentTime": ["194529.286000", "194529.289000", "194529.292000", "194529.295000", "194529.298000", "194529.302000", "194529.305000", "194529.307000", "194529.310000", "194529.313000", "194529.316000", "194529.320000", "194529.323000", "194529.326000", "194529.329000", "194529.331000", "194529.334000", "194529.337000", "194529.340000", "194529.343000", "194529.346000", "194529.349000", "194529.352000", "194529.355000", "194529.358000", "194529.361000", "194529.364000", "194529.367000", "194529.370000", "194529.373000", "194549.244000", "194549.247000", "194549.250000", "194549.253000", "194549.256000", "194549.259000", "194549.262000", "194549.265000", "194549.267000", "194549.270000", "194549.273000", "194549.276000", "194549.279000", "194549.282000", "194549.285000", "194549.288000", "194549.291000", "194549.293000", "194549.307000", "194549.310000", "194549.313000", "194549.316000", "194549.319000", "194549.322000", "194549.325000", "194549.329000", "194549.332000", "194549.335000", "194609.244000", "194609.247000", "194609.250000", "194609.253000", "194609.256000", "194609.259000", "194609.262000", "194609.265000", "194609.268000", "194609.271000", "194609.274000", "194609.276000", "194609.279000", "194609.282000", "194609.285000", "194609.288000", "194609.291000", "194609.294000", "194609.298000", "194609.302000", "194609.305000", "194609.309000", "194609.312000", "194609.315000", "194609.318000", "194609.321000", "194609.324000", "194609.327000", "194629.243000", "194629.246000", "194629.249000", "194629.252000", "194629.255000", "194629.258000", "194629.261000", "194629.264000", "194629.266000", "194629.269000", "194629.272000", "194629.275000", "194629.278000", "194629.281000", "194629.292000", "194629.294000", "194629.297000", "194629.300000", "194629.303000", "194629.306000", "194629.309000", "194629.312000", "194629.315000", "194629.318000", "194629.321000", "194629.324000", "194629.327000", "194629.330000", "194629.333000", "194649.243000", "194649.246000", "194649.249000", "194649.252000", "194649.255000", "194649.258000", "194649.261000", "194649.263000", "194649.266000", "194649.269000", "194649.272000", "194649.275000", "194649.278000", "194649.281000", "194649.284000", "194649.287000", "194649.290000", "194649.293000", "194649.296000", "194649.299000", "194649.302000", "194649.305000", "194649.308000", "194649.311000", "194649.313000", "194649.316000", "194649.319000", "194649.322000", "194709.243000", "194709.246000", "194709.249000", "194709.252000", "194709.255000", "194709.258000", "194709.261000", "194709.263000", "194709.266000", "194709.269000", "194709.272000", "194709.275000", "194709.278000", "194709.281000", "194709.284000", "194709.287000", "194709.290000", "194709.301000", "194709.304000", "194709.307000", "194709.310000", "194709.313000", "194709.316000", "194709.319000", "194709.322000", "194709.325000", "194709.327000", "194709.330000", "194729.243000", "194729.246000", "194729.249000", "194729.252000", "194729.255000", "194729.258000", "194729.261000", "194729.263000", "194729.266000", "194729.269000", "194729.272000", "194729.275000", "194729.278000", "194729.281000", "194729.284000", "194729.287000", "194729.290000", "194729.293000", "194729.296000", "194729.299000", "194730.237000"],
      "InstanceCreationTime": ["194529.286000", "194529.289000", "194529.292000", "194529.295000", "194529.298000", "194529.302000", "194529.305000", "194529.307000", "194529.310000", "194529.313000", "194529.316000", "194529.320000", "194529.323000", "194529.326000", "194529.329000", "194529.331000", "194529.334000", "194529.337000", "194529.340000", "194529.343000", "194529.346000", "194529.349000", "194529.352000", "194529.355000", "194529.358000", "194529.361000", "194529.364000", "194529.367000", "194529.370000", "194529.373000", "194549.244000", "194549.247000", "194549.250000", "194549.253000", "194549.256000", "194549.259000", "194549.262000", "194549.265000", "194549.267000", "194549.270000", "194549.273000", "194549.276000", "194549.279000", "194549.282000", "194549.285000", "194549.288000", "194549.291000", "194549.293000", "194549.307000", "194549.310000", "194549.313000", "194549.316000", "194549.319000", "194549.322000", "194549.325000", "194549.329000", "194549.332000", "194549.335000", "194609.244000", "194609.247000", "194609.250000", "194609.253000", "194609.256000", "194609.259000", "194609.262000", "194609.265000", "194609.268000", "194609.271000", "194609.274000", "194609.276000", "194609.279000", "194609.282000", "194609.285000", "194609.288000", "194609.291000", "194609.294000", "194609.298000", "194609.302000", "194609.305000", "194609.309000", "194609.312000", "194609.315000", "194609.318000", "194609.321000", "194609.324000", "194609.327000", "194629.243000", "194629.246000", "194629.249000", "194629.252000", "194629.255000", "194629.258000", "194629.261000", "194629.264000", "194629.266000", "194629.269000", "194629.272000", "194629.275000", "194629.278000", "194629.281000", "194629.292000", "194629.294000", "194629.297000", "194629.300000", "194629.303000", "194629.306000", "194629.309000", "194629.312000", "194629.315000", "194629.318000", "194629.321000", "194629.324000", "194629.327000", "194629.330000", "194629.333000", "194649.243000", "194649.246000", "194649.249000", "194649.252000", "194649.255000", "194649.258000", "194649.261000", "194649.263000", "194649.266000", "194649.269000", "194649.272000", "194649.275000", "194649.278000", "194649.281000", "194649.284000", "194649.287000", "194649.290000", "194649.293000", "194649.296000", "194649.299000", "194649.302000", "194649.305000", "194649.308000", "194649.311000", "194649.313000", "194649.316000", "194649.319000", "194649.322000", "194709.243000", "194709.246000", "194709.249000", "194709.252000", "194709.255000", "194709.258000", "194709.261000", "194709.263000", "194709.266000", "194709.269000", "194709.272000", "194709.275000", "194709.278000", "194709.281000", "194709.284000", "194709.287000", "194709.290000", "194709.301000", "194709.304000", "194709.307000", "194709.310000", "194709.313000", "194709.316000", "194709.319000", "194709.322000", "194709.325000", "194709.327000", "194709.330000", "194729.243000", "194729.246000", "194729.249000", "194729.252000", "194729.255000", "194729.258000", "194729.261000", "194729.263000", "194729.266000", "194729.269000", "194729.272000", "194729.275000", "194729.278000", "194729.281000", "194729.284000", "194729.287000", "194729.290000", "194729.293000", "194729.296000", "194729.299000", "194730.237000"],
      "InstanceNumber": [1, 2, 3, 4, 5, 6, 7, 8, 9, 10, 11, 12, 13, 14, 15, 16, 17, 18, 19, 20, 21, 22, 23, 24, 25, 26, 27, 28, 29, 30, 31, 32, 33, 34, 35, 36, 37, 38, 39, 40, 41, 42, 43, 44, 45, 46, 47, 48, 49, 50, 51, 52, 53, 54, 55, 56, 57, 58, 59, 60, 61, 62, 63, 64, 65, 66, 67, 68, 69, 70, 71, 72, 73, 74, 75, 76, 77, 78, 79, 80, 81, 82, 83, 84, 85, 86, 87, 88, 89, 90, 91, 92, 93, 94, 95, 96, 97, 98, 99, 100, 101, 102, 103, 104, 105, 106, 107, 108, 109, 110, 111, 112, 113, 114, 115, 116, 117, 118, 119, 120, 121, 122, 123, 124, 125, 126, 127, 128, 129, 130, 131, 132, 133, 134, 135, 136, 137, 138, 139, 140, 141, 142, 143, 144, 145, 146, 147, 148, 149, 150, 151, 152, 153, 154, 155, 156, 157, 158, 159, 160, 161, 162, 163, 164, 165, 166, 167, 168, 169, 170, 171, 172, 173, 174, 175, 176, 177, 178, 179, 180, 181, 182, 183, 184, 185, 186, 187, 188, 189, 190, 191, 192],
      "LargestImagePixelValue": [34040, 32532, 32144, 31906, 31861, 31804, 31775, 31637, 31171, 31220, 30921, 30984, 30866, 31672, 31367, 31879, 31926, 32407, 31709, 31939, 31223, 32009, 32034, 32023, 32210, 31950, 31884, 31828, 32189, 32120, 32501, 32331, 32669, 32601, 32555, 32596, 32552, 32394, 32538, 32967, 32245, 32991, 32165, 32814, 32784, 32821, 32409, 32137, 32546, 32678, 32532, 32881, 32365, 32535, 32563, 32925, 32466, 32448, 32433, 32685, 32914, 32297, 32495, 32207, 32218, 32205, 32399, 32690, 32822, 32568, 33013, 32336, 32722, 32189, 32632, 32445, 32600, 32404, 32979, 32267, 32570, 32492, 32547, 32726, 32366, 32094, 32524, 31896, 32402, 31860, 31821, 32242, 32105, 32091, 32188, 32487, 32174, 31910, 31545, 31837, 32274, 32373, 31885, 32273, 32098, 32019, 32194, 32075, 32496, 32600, 32342, 33112, 32642, 33020, 32166, 32301, 32998, 32781, 32560, 32319, 32559, 32578, 32459, 32415, 32605, 32724, 32439, 31896, 32113, 32098, 32418, 32317, 31940, 32533, 32463, 32542, 32733, 32363, 32335, 32591, 32781, 32079, 31916, 31930, 32257, 32180, 31975, 32264, 32293, 32487, 32468, 32023, 32493, 32431, 32038, 31944, 32112, 31229, 31674, 31640, 31570, 31778, 32066, 31565, 31708, 31841, 32009, 31888, 31894, 31838, 32239, 32042, 32119, 32558, 32270, 32415, 32066, 32280, 32491, 31965, 32374, 31747, 31798, 31824, 32049, 31957, 31863, 32182, 31988, 32041, 31915, 32316],
      "WindowCenter": [9674.0, 9633.0, 9624.0, 9613.0, 9613.0, 9615.0, 9634.0, 9628.0, 9621.0, 9621.0, 9612.0, 9606.0, 9599.0, 9603.0, 9601.0, 9615.0, 9623.0, 9630.0, 9625.0, 9630.0, 9621.0, 9633.0, 9625.0, 9623.0, 9630.0, 9631.0, 9623.0, 9624.0, 9630.0, 9622.0, 9629.0, 9635.0, 9633.0, 9626.0, 9627.0, 9634.0, 9642.0, 9637.0, 9643.0, 9652.0, 9646.0, 9650.0, 9645.0, 9650.0, 9637.0, 9642.0, 9636.0, 9623.0, 9636.0, 9644.0, 9644.0, 9649.0, 9638.0, 9637.0, 9635.0, 9630.0, 9620.0, 9620.0, 9611.0, 9618.0, 9624.0, 9618.0, 9628.0, 9634.0, 9635.0, 9631.0, 9636.0, 9650.0, 9658.0, 9653.0, 9651.0, 9640.0, 9644.0, 9628.0, 9627.0, 9621.0, 9624.0, 9612.0, 9630.0, 9628.0, 9635.0, 9635.0, 9634.0, 9634.0, 9620.0, 9620.0, 9620.0, 9613.0, 9613.0, 9612.0, 9606.0, 9618.0, 9611.0, 9612.0, 9619.0, 9610.0, 9610.0, 9605.0, 9599.0, 9599.0, 9618.0, 9621.0, 9614.0, 9623.0, 9617.0, 9615.0, 9620.0, 9615.0, 9628.0, 9636.0, 9638.0, 9647.0, 9657.0, 9659.0, 9646.0, 9647.0, 9652.0, 9651.0, 9646.0, 9647.0, 9646.0, 9643.0, 9637.0, 9636.0, 9638.0, 9645.0, 9646.0, 9632.0, 9631.0, 9631.0, 9623.0, 9629.0, 9626.0, 9627.0, 9621.0, 9635.0, 9628.0, 9628.0, 9629.0, 9634.0, 9630.0, 9625.0, 9626.0, 9624.0, 9621.0, 9616.0, 9613.0, 9613.0, 9621.0, 9629.0, 9631.0, 9631.0, 9636.0, 9637.0, 9623.0, 9623.0, 9623.0, 9609.0, 9623.0, 9624.0, 9624.0, 9616.0, 9615.0, 9616.0, 9609.0, 9608.0, 9613.0, 9631.0, 9641.0, 9636.0, 9640.0, 9634.0, 9634.0, 9636.0, 9630.0, 9630.0, 9630.0, 9639.0, 9644.0, 9642.0, 9649.0, 9635.0, 9635.0, 9634.0, 9633.0, 9633.0, 9634.0, 9646.0, 9640.0, 9640.0, 9656.0, 9672.0],
      "WindowWidth": [20562.0, 20472.0, 20447.0, 20420.0, 20419.0, 20429.0, 20471.0, 20457.0, 20442.0, 20441.0, 20419.0, 20408.0, 20396.0, 20401.0, 20396.0, 20424.0, 20444.0, 20458.0, 20449.0, 20457.0, 20442.0, 20464.0, 20447.0, 20443.0, 20457.0, 20459.0, 20444.0, 20448.0, 20458.0, 20439.0, 20452.0, 20465.0, 20459.0, 20444.0, 20447.0, 20464.0, 20481.0, 20471.0, 20483.0, 20503.0, 20494.0, 20498.0, 20489.0, 20496.0, 20470.0, 20479.0, 20468.0, 20440.0, 20468.0, 20484.0, 20486.0, 20495.0, 20476.0, 20470.0, 20461.0, 20448.0, 20433.0, 20430.0, 20411.0, 20426.0, 20439.0, 20428.0, 20449.0, 20462.0, 20464.0, 20458.0, 20467.0, 20498.0, 20516.0, 20507.0, 20501.0, 20480.0, 20485.0, 20447.0, 20445.0, 20433.0, 20435.0, 20414.0, 20451.0, 20452.0, 20463.0, 20462.0, 20459.0, 20460.0, 20430.0, 20431.0, 20431.0, 20416.0, 20416.0, 20413.0, 20404.0, 20423.0, 20411.0, 20413.0, 20427.0, 20408.0, 20408.0, 20397.0, 20385.0, 20387.0, 20427.0, 20435.0, 20420.0, 20443.0, 20432.0, 20426.0, 20434.0, 20428.0, 20455.0, 20471.0, 20478.0, 20493.0, 20519.0, 20520.0, 20495.0, 20498.0, 20507.0, 20501.0, 20493.0, 20499.0, 20495.0, 20484.0, 20472.0, 20471.0, 20478.0, 20488.0, 20492.0, 20462.0, 20457.0, 20458.0, 20443.0, 20455.0, 20449.0, 20445.0, 20436.0, 20463.0, 20450.0, 20452.0, 20454.0, 20461.0, 20454.0, 20448.0, 20451.0, 20440.0, 20433.0, 20425.0, 20417.0, 20418.0, 20437.0, 20453.0, 20462.0, 20461.0, 20468.0, 20467.0, 20440.0, 20438.0, 20437.0, 20412.0, 20441.0, 20444.0, 20444.0, 20426.0, 20423.0, 20425.0, 20410.0, 20406.0, 20420.0, 20462.0, 20487.0, 20479.0, 20483.0, 20474.0, 20470.0, 20470.0, 20457.0, 20461.0, 20460.0, 20477.0, 20488.0, 20491.0, 20503.0, 20474.0, 20473.0, 20470.0, 20467.0, 20468.0, 20473.0, 20495.0, 20484.0, 20485.0, 20520.0, 20557.0]
    },
    "slices": {}
  },
  "NumberOfVolumes": 192
}