{
  "AcquisitionMatrixPE": 104,
  "AcquisitionNumber": 1,
  "AcquisitionTime": "11:24:20.480000",
  "BandwidthPerPixelPhaseEncode": 16.297,
  "BaseResolution": 104,
  "BodyPartExamined": "BRAIN",
  "CoilString": "HC2_4_6_7;NC2",
  "ConsistencyInfo": "N4_VE11C_LATEST_20160120",
  "ConversionSoftware": "dcm2niix",
  "ConversionSoftwareVersion": "v1.0.20190902",
  "DerivedVendorReportedEchoSpacing": 0.000590009,
  "DeviceSerialNumber": "166018",
  "DwellTime": 2.1e-06,
  "EchoTime": 0.0376,
  "EchoTrainLength": 104,
  "EffectiveEchoSpacing": 0.000590009,
  "FlipAngle": 68,
  "ImageComments": "Unaliased_MB6_PE3_LB",
  "ImageOrientationPatientDICOM": [0.998319, 0.0136682, 0.0563213, -0.00714394, 0.993403, -0.114453],
  "ImageType": [
    "ORIGINAL",
    "PRIMARY",
    "M",
    "MB",
    "ND",
    "MOSAIC"
],
  "ImagingFrequency": 123.191,
  "InPlanePhaseEncodingDirectionDICOM": "COL",
  "InstitutionAddress": "Washington_Place_6_NYC_NYC_US_10003",
  "InstitutionName": "NYU_-_CBI",
  "InstitutionalDepartmentName": "Department",
  "MRAcquisitionType": "2D",
  "MagneticFieldStrength": 3,
  "Manufacturer": "Siemens",
  "ManufacturersModelName": "Prisma",
  "Modality": "MR",
  "MultibandAccelerationFactor": 6,
  "PartialFourier": 1,
  "PatientPosition": "HFS",
  "PercentPhaseFOV": 100,
  "PhaseEncodingDirection": "j",
  "PhaseEncodingSteps": 104,
  "PhaseResolution": 1,
  "PixelBandwidth": 2290,
  "ProcedureStepDescription": "Investigators_Winawer",
  "ProtocolName": "cmrr_mbepi_s6_2mm_66sl_PA_task-prf",
  "PulseSequenceDetails": "%CustomerSeq%_cmrr_mbep2d_bold",
  "ReceiveCoilActiveElements": "HC2,4,6,7;NC2",
  "ReceiveCoilName": "HeadNeck_64",
  "ReconMatrixPE": 104,
  "RepetitionTime": 1,
  "SAR": 0.0600589,
  "ScanOptions": "FS",
  "ScanningSequence": "EP",
  "SequenceName": "epfid2d1_104",
  "SequenceVariant": "SK_SS",
  "SeriesDescription": "cmrr_mbepi_s6_2mm_66sl_PA_task-prf",
  "SeriesNumber": 20,
  "ShimSetting": [276, -12609, -8462, 556, 12, 147, 24, -29],
  "SliceThickness": 2,
  "SliceTiming": [0, 0.535, 0.09, 0.625, 0.18, 0.715, 0.2675, 0.8025, 0.3575, 0.8925, 0.4475, 0, 0.535, 0.09, 0.625, 0.18, 0.715, 0.2675, 0.8025, 0.3575, 0.8925, 0.4475, 0, 0.535, 0.09, 0.625, 0.18, 0.715, 0.2675, 0.8025, 0.3575, 0.8925, 0.4475, 0, 0.535, 0.09, 0.625, 0.18, 0.715, 0.2675, 0.8025, 0.3575, 0.8925, 0.4475, 0, 0.535, 0.09, 0.625, 0.18, 0.715, 0.2675, 0.8025, 0.3575, 0.8925, 0.4475, 0, 0.535, 0.09, 0.625, 0.18, 0.715, 0.2675, 0.8025, 0.3575, 0.8925, 0.4475],
  "SoftwareVersions": "syngo_MR_E11",
  "SpacingBetweenSlices": 2,
  "StationName": "AWP166018",
  "TaskName": "prf",
  "TotalReadoutTime": 0.060771,
  "TxRefAmp": 210.784,
  "VendorReportedEchoSpacing": 0.00059,
  "WipMemBlock": "aa653d72-c920-413e-8a58-297189b94cd0||Sequence: R016 ve11c/master r/8780670; Nov 27 2017 15:05:12 by eja",
  "dcmmeta_affine": [
    [-1.996638298034668, -0.014287878759205341, 0.1150282472372055, 106.96871185302734],
    [-0.027336489409208298, 1.9868059158325195, -0.2277165651321411, -80.09649658203125],
    [0.11264261603355408, 0.22890605032444, 1.9836616516113281, -66.66742706298828],
    [0.0, 0.0, 0.0, 1.0]
],
  "dcmmeta_reorient_transform": [
    [0.0, -1.0, 0.0, 103.0],
    [1.0, 0.0, 0.0, 0.0],
    [0.0, 0.0, 1.0, 0.0],
    [0.0, 0.0, 0.0, 1.0]
],
  "dcmmeta_shape": [104, 104, 66, 192],
  "dcmmeta_slice_dim": 2,
  "dcmmeta_version": 0.6,
  "global": {
    "const": {
      "AccessionNumber": "k7gfkyn9",
      "AcquisitionMatrix": [104, 0, 0, 104],
      "AngioFlag": "N",
      "BitsAllocated": 16,
      "BitsStored": 16,
      "BodyPartExamined": "BRAIN",
      "Columns": 936,
      "EchoNumbers": 1,
      "EchoTime": 37.6,
      "EchoTrainLength": 104,
      "FlipAngle": 68.0,
      "HighBit": 15,
      "ImageOrientationPatient": [0.99831913210548, 0.01366824469194, 0.05632130644077, -0.0071439392315, 0.99340297458014, -0.1144530219242],
      "ImagePositionPatient": [-930.15482098988, -962.42776997279, 5.2754862845493],
      "ImageType": [
        "ORIGINAL",
        "PRIMARY",
        "M",
        "MB",
        "ND",
        "MOSAIC"
],
      "ImagedNucleus": "1H",
      "ImagingFrequency": 123.190741,
      "InPlanePhaseEncodingDirection": "COL",
      "MRAcquisitionType": "2D",
      "MagneticFieldStrength": 3.0,
      "Manufacturer": "SIEMENS",
      "ManufacturerModelName": "Prisma",
      "Modality": "MR",
      "NumberOfAverages": 1.0,
      "NumberOfPhaseEncodingSteps": 104,
      "PercentPhaseFieldOfView": 100.0,
      "PercentSampling": 100.0,
      "PerformedProcedureStepStartTime": "104151.005000",
      "PhotometricInterpretation": "MONOCHROME2",
      "PixelBandwidth": 2290.0,
      "PixelRepresentation": 0,
      "PixelSpacing": [2.0, 2.0],
      "ProtocolName": "cmrr_mbepi_s6_2mm_66sl_PA_task-prf",
      "RepetitionTime": 1000.0,
      "Rows": 936,
      "SAR": 0.06005889938346,
      "SamplesPerPixel": 1,
      "ScanOptions": "FS",
      "ScanningSequence": "EP",
      "SequenceName": "epfid2d1_104",
      "SequenceVariant": [
        "SK",
        "SS"
],
      "SeriesDescription": "cmrr_mbepi_s6_2mm_66sl_PA_task-prf",
      "SeriesNumber": 20,
      "SeriesTime": "112512.910000",
      "SliceLocation": -50.850944948111,
      "SliceThickness": 2.0,
      "SmallestImagePixelValue": 0,
      "SoftwareVersions": "syngo MR E11",
      "SpacingBetweenSlices": 1.9999999725694,
      "SpecificCharacterSet": "ISO_IR 100",
      "StudyID": "2",
      "StudyTime": "104150.948000",
      "TransmitCoilName": "Body",
      "VariableFlipAngleFlag": "N",
      "WindowCenterWidthExplanation": "Algo1",
      "dBdt": 0.0},
    "slices": {}
  },
  "time": {
    "samples": {
      "AcquisitionNumber": [1, 2, 3, 4, 5, 6, 7, 8, 9, 10, 11, 12, 13, 14, 15, 16, 17, 18, 19, 20, 21, 22, 23, 24, 25, 26, 27, 28, 29, 30, 31, 32, 33, 34, 35, 36, 37, 38, 39, 40, 41, 42, 43, 44, 45, 46, 47, 48, 49, 50, 51, 52, 53, 54, 55, 56, 57, 58, 59, 60, 61, 62, 63, 64, 65, 66, 67, 68, 69, 70, 71, 72, 73, 74, 75, 76, 77, 78, 79, 80, 81, 82, 83, 84, 85, 86, 87, 88, 89, 90, 91, 92, 93, 94, 95, 96, 97, 98, 99, 100, 101, 102, 103, 104, 105, 106, 107, 108, 109, 110, 111, 112, 113, 114, 115, 116, 117, 118, 119, 120, 121, 122, 123, 124, 125, 126, 127, 128, 129, 130, 131, 132, 133, 134, 135, 136, 137, 138, 139, 140, 141, 142, 143, 144, 145, 146, 147, 148, 149, 150, 151, 152, 153, 154, 155, 156, 157, 158, 159, 160, 161, 162, 163, 164, 165, 166, 167, 168, 169, 170, 171, 172, 173, 174, 175, 176, 177, 178, 179, 180, 181, 182, 183, 184, 185, 186, 187, 188, 189, 190, 191, 192],
      "AcquisitionTime": ["112420.480000", "112421.480000", "112422.480000", "112423.480000", "112424.480000", "112425.480000", "112426.480000", "112427.480000", "112428.480000", "112429.480000", "112430.480000", "112431.480000", "112432.480000", "112433.480000", "112434.480000", "112435.480000", "112436.480000", "112437.480000", "112438.480000", "112439.480000", "112440.480000", "112441.480000", "112442.480000", "112443.480000", "112444.480000", "112445.480000", "112446.480000", "112447.480000", "112448.480000", "112449.480000", "112450.480000", "112451.480000", "112452.480000", "112453.480000", "112454.480000", "112455.480000", "112456.480000", "112457.480000", "112458.480000", "112459.480000", "112500.480000", "112501.480000", "112502.480000", "112503.480000", "112504.480000", "112505.480000", "112506.480000", "112507.480000", "112508.480000", "112509.480000", "112510.480000", "112511.480000", "112512.480000", "112513.480000", "112514.480000", "112515.480000", "112516.480000", "112517.480000", "112518.480000", "112519.480000", "112520.480000", "112521.480000", "112522.480000", "112523.480000", "112524.480000", "112525.480000", "112526.480000", "112527.480000", "112528.480000", "112529.480000", "112530.480000", "112531.480000", "112532.480000", "112533.480000", "112534.480000", "112535.480000", "112536.480000", "112537.480000", "112538.480000", "112539.480000", "112540.480000", "112541.480000", "112542.480000", "112543.480000", "112544.480000", "112545.480000", "112546.480000", "112547.480000", "112548.480000", "112549.480000", "112550.480000", "112551.480000", "112552.480000", "112553.480000", "112554.480000", "112555.480000", "112556.480000", "112557.480000", "112558.480000", "112559.480000", "112600.480000", "112601.480000", "112602.480000", "112603.480000", "112604.480000", "112605.480000", "112606.480000", "112607.480000", "112608.480000", "112609.480000", "112610.480000", "112611.480000", "112612.480000", "112613.480000", "112614.480000", "112615.480000", "112616.480000", "112617.480000", "112618.480000", "112619.480000", "112620.480000", "112621.480000", "112622.480000", "112623.480000", "112624.480000", "112625.480000", "112626.480000", "112627.480000", "112628.480000", "112629.480000", "112630.480000", "112631.480000", "112632.480000", "112633.480000", "112634.480000", "112635.480000", "112636.480000", "112637.480000", "112638.480000", "112639.480000", "112640.480000", "112641.480000", "112642.480000", "112643.480000", "112644.480000", "112645.480000", "112646.480000", "112647.480000", "112648.480000", "112649.480000", "112650.480000", "112651.480000", "112652.480000", "112653.480000", "112654.480000", "112655.480000", "112656.480000", "112657.480000", "112658.480000", "112659.480000", "112700.480000", "112701.480000", "112702.480000", "112703.480000", "112704.480000", "112705.480000", "112706.480000", "112707.480000", "112708.480000", "112709.480000", "112710.480000", "112711.480000", "112712.480000", "112713.480000", "112714.480000", "112715.480000", "112716.480000", "112717.480000", "112718.480000", "112719.480000", "112720.480000", "112721.480000", "112722.480000", "112723.480000", "112724.480000", "112725.480000", "112726.480000", "112727.480000", "112728.480000", "112729.480000", "112730.480000", "112731.480000"],
      "ContentTime": ["112512.912000", "112512.915000", "112512.918000", "112512.921000", "112512.924000", "112512.927000", "112512.930000", "112512.933000", "112512.936000", "112512.939000", "112512.942000", "112512.945000", "112512.947000", "112512.950000", "112512.953000", "112512.956000", "112512.959000", "112512.962000", "112512.971000", "112512.973000", "112512.976000", "112512.979000", "112512.982000", "112512.985000", "112512.988000", "112512.991000", "112512.993000", "112512.996000", "112513.000000", "112513.003000", "112513.006000", "112532.873000", "112532.876000", "112532.879000", "112532.881000", "112532.884000", "112532.887000", "112532.890000", "112532.893000", "112532.896000", "112532.899000", "112532.902000", "112532.904000", "112532.907000", "112532.910000", "112532.913000", "112532.916000", "112532.919000", "112532.927000", "112532.930000", "112532.932000", "112532.935000", "112532.938000", "112532.941000", "112532.944000", "112532.947000", "112532.949000", "112532.952000", "112532.955000", "112532.958000", "112532.961000", "112532.964000", "112532.967000", "112532.969000", "112532.972000", "112532.975000", "112532.978000", "112532.981000", "112532.984000", "112552.873000", "112552.876000", "112552.879000", "112552.881000", "112552.884000", "112552.887000", "112552.890000", "112552.893000", "112552.896000", "112552.899000", "112552.902000", "112552.904000", "112552.907000", "112552.910000", "112552.913000", "112552.916000", "112552.922000", "112552.925000", "112552.928000", "112552.931000", "112552.934000", "112552.936000", "112612.873000", "112612.876000", "112612.878000", "112612.881000", "112612.884000", "112612.887000", "112612.890000", "112612.893000", "112612.897000", "112612.900000", "112612.903000", "112612.906000", "112612.908000", "112612.911000", "112612.914000", "112612.917000", "112612.920000", "112612.923000", "112612.926000", "112612.928000", "112632.873000", "112632.876000", "112632.879000", "112632.881000", "112632.884000", "112632.889000", "112632.892000", "112632.895000", "112632.897000", "112632.900000", "112632.903000", "112632.906000", "112632.909000", "112632.912000", "112632.915000", "112632.917000", "112632.920000", "112632.923000", "112632.926000", "112632.929000", "112652.873000", "112652.876000", "112652.879000", "112652.881000", "112652.884000", "112652.887000", "112652.890000", "112652.893000", "112652.896000", "112652.899000", "112652.902000", "112652.904000", "112652.907000", "112652.910000", "112652.913000", "112652.916000", "112652.919000", "112652.922000", "112652.925000", "112652.927000", "112712.873000", "112712.876000", "112712.879000", "112712.881000", "112712.884000", "112712.887000", "112712.890000", "112712.893000", "112712.896000", "112712.899000", "112712.902000", "112712.904000", "112712.907000", "112712.910000", "112712.913000", "112712.916000", "112712.919000", "112712.922000", "112712.924000", "112712.927000", "112732.873000", "112732.876000", "112732.879000", "112732.882000", "112732.884000", "112732.887000", "112732.890000", "112732.893000", "112732.896000", "112732.899000", "112732.902000", "112732.905000", "112732.907000", "112732.910000", "112732.913000", "112732.916000", "112732.919000", "112732.922000", "112732.925000", "112732.927000", "112733.561000"],
      "InstanceCreationTime": ["112512.912000", "112512.915000", "112512.918000", "112512.921000", "112512.924000", "112512.927000", "112512.930000", "112512.933000", "112512.936000", "112512.939000", "112512.942000", "112512.945000", "112512.947000", "112512.950000", "112512.953000", "112512.956000", "112512.959000", "112512.962000", "112512.971000", "112512.973000", "112512.976000", "112512.979000", "112512.982000", "112512.985000", "112512.988000", "112512.991000", "112512.993000", "112512.996000", "112513.000000", "112513.003000", "112513.006000", "112532.873000", "112532.876000", "112532.879000", "112532.881000", "112532.884000", "112532.887000", "112532.890000", "112532.893000", "112532.896000", "112532.899000", "112532.902000", "112532.904000", "112532.907000", "112532.910000", "112532.913000", "112532.916000", "112532.919000", "112532.927000", "112532.930000", "112532.932000", "112532.935000", "112532.938000", "112532.941000", "112532.944000", "112532.947000", "112532.949000", "112532.952000", "112532.955000", "112532.958000", "112532.961000", "112532.964000", "112532.967000", "112532.969000", "112532.972000", "112532.975000", "112532.978000", "112532.981000", "112532.984000", "112552.873000", "112552.876000", "112552.879000", "112552.881000", "112552.884000", "112552.887000", "112552.890000", "112552.893000", "112552.896000", "112552.899000", "112552.902000", "112552.904000", "112552.907000", "112552.910000", "112552.913000", "112552.916000", "112552.922000", "112552.925000", "112552.928000", "112552.931000", "112552.934000", "112552.936000", "112612.873000", "112612.876000", "112612.878000", "112612.881000", "112612.884000", "112612.887000", "112612.890000", "112612.893000", "112612.897000", "112612.900000", "112612.903000", "112612.906000", "112612.908000", "112612.911000", "112612.914000", "112612.917000", "112612.920000", "112612.923000", "112612.926000", "112612.928000", "112632.873000", "112632.876000", "112632.879000", "112632.881000", "112632.884000", "112632.889000", "112632.892000", "112632.895000", "112632.897000", "112632.900000", "112632.903000", "112632.906000", "112632.909000", "112632.912000", "112632.915000", "112632.917000", "112632.920000", "112632.923000", "112632.926000", "112632.929000", "112652.873000", "112652.876000", "112652.879000", "112652.881000", "112652.884000", "112652.887000", "112652.890000", "112652.893000", "112652.896000", "112652.899000", "112652.902000", "112652.904000", "112652.907000", "112652.910000", "112652.913000", "112652.916000", "112652.919000", "112652.922000", "112652.925000", "112652.927000", "112712.873000", "112712.876000", "112712.879000", "112712.881000", "112712.884000", "112712.887000", "112712.890000", "112712.893000", "112712.896000", "112712.899000", "112712.902000", "112712.904000", "112712.907000", "112712.910000", "112712.913000", "112712.916000", "112712.919000", "112712.922000", "112712.924000", "112712.927000", "112732.873000", "112732.876000", "112732.879000", "112732.882000", "112732.884000", "112732.887000", "112732.890000", "112732.893000", "112732.896000", "112732.899000", "112732.902000", "112732.905000", "112732.907000", "112732.910000", "112732.913000", "112732.916000", "112732.919000", "112732.922000", "112732.925000", "112732.927000", "112733.561000"],
      "InstanceNumber": [1, 2, 3, 4, 5, 6, 7, 8, 9, 10, 11, 12, 13, 14, 15, 16, 17, 18, 19, 20, 21, 22, 23, 24, 25, 26, 27, 28, 29, 30, 31, 32, 33, 34, 35, 36, 37, 38, 39, 40, 41, 42, 43, 44, 45, 46, 47, 48, 49, 50, 51, 52, 53, 54, 55, 56, 57, 58, 59, 60, 61, 62, 63, 64, 65, 66, 67, 68, 69, 70, 71, 72, 73, 74, 75, 76, 77, 78, 79, 80, 81, 82, 83, 84, 85, 86, 87, 88, 89, 90, 91, 92, 93, 94, 95, 96, 97, 98, 99, 100, 101, 102, 103, 104, 105, 106, 107, 108, 109, 110, 111, 112, 113, 114, 115, 116, 117, 118, 119, 120, 121, 122, 123, 124, 125, 126, 127, 128, 129, 130, 131, 132, 133, 134, 135, 136, 137, 138, 139, 140, 141, 142, 143, 144, 145, 146, 147, 148, 149, 150, 151, 152, 153, 154, 155, 156, 157, 158, 159, 160, 161, 162, 163, 164, 165, 166, 167, 168, 169, 170, 171, 172, 173, 174, 175, 176, 177, 178, 179, 180, 181, 182, 183, 184, 185, 186, 187, 188, 189, 190, 191, 192],
      "LargestImagePixelValue": [36389, 35062, 35270, 34763, 34878, 34622, 34557, 35354, 34660, 34002, 34372, 35030, 35303, 34651, 34397, 36863, 34825, 35091, 39387, 36263, 39967, 35423, 35246, 37706, 34643, 34900, 34931, 34608, 33995, 34593, 35764, 35370, 34962, 36901, 38210, 34943, 35493, 36685, 34816, 35352, 35337, 34784, 33951, 34589, 35387, 34800, 35060, 34836, 35068, 35100, 34758, 35084, 34855, 34831, 35216, 34680, 34877, 35393, 34632, 34676, 34993, 35089, 35072, 34198, 34747, 35134, 34878, 34587, 35087, 35291, 35483, 35493, 34695, 35179, 35358, 34998, 35277, 34947, 34178, 34888, 35212, 35104, 35218, 35439, 35507, 34800, 34842, 35150, 34652, 34894, 34854, 34825, 33087, 34580, 35205, 35319, 34621, 34611, 34710, 34355, 35026, 36475, 34686, 34400, 34211, 35037, 34232, 34893, 35380, 34748, 35080, 34819, 33565, 34382, 35065, 35029, 35295, 35293, 34359, 34884, 34984, 34157, 34508, 33104, 34108, 34311, 34244, 34780, 34544, 34745, 34883, 34981, 35390, 35244, 34828, 35254, 34803, 34668, 34969, 34912, 33500, 36022, 35013, 34668, 35073, 35006, 35376, 35371, 35706, 34620, 35501, 34788, 34887, 34848, 34769, 34747, 34700, 34926, 34697, 34528, 35245, 35249, 35566, 35428, 35445, 35159, 35751, 35073, 37570, 35424, 34536, 35079, 35383, 35320, 35482, 35592, 35416, 35070, 34938, 34675, 34950, 35087, 35144, 37310, 37240, 34827, 36902, 35498, 35363, 35457, 34258, 35037],
      "WindowCenter": [9228.0, 9202.0, 9202.0, 9216.0, 9238.0, 9259.0, 9278.0, 9300.0, 9310.0, 9309.0, 9307.0, 9301.0, 9332.0, 9327.0, 9320.0, 9357.0, 9336.0, 9355.0, 9403.0, 9355.0, 9387.0, 9323.0, 9306.0, 9326.0, 9282.0, 9263.0, 9259.0, 9256.0, 9267.0, 9274.0, 9293.0, 9309.0, 9314.0, 9330.0, 9334.0, 9289.0, 9297.0, 9305.0, 9283.0, 9292.0, 9287.0, 9279.0, 9259.0, 9264.0, 9285.0, 9279.0, 9277.0, 9268.0, 9262.0, 9268.0, 9279.0, 9294.0, 9290.0, 9306.0, 9311.0, 9291.0, 9282.0, 9275.0, 9247.0, 9246.0, 9252.0, 9248.0, 9263.0, 9269.0, 9287.0, 9293.0, 9290.0, 9295.0, 9291.0, 9281.0, 9289.0, 9288.0, 9268.0, 9263.0, 9261.0, 9257.0, 9268.0, 9255.0, 9241.0, 9238.0, 9234.0, 9237.0, 9242.0, 9240.0, 9241.0, 9243.0, 9252.0, 9260.0, 9255.0, 9254.0, 9247.0, 9239.0, 9212.0, 9228.0, 9227.0, 9243.0, 9239.0, 9242.0, 9244.0, 9248.0, 9262.0, 9270.0, 9232.0, 9219.0, 9214.0, 9224.0, 9228.0, 9250.0, 9265.0, 9254.0, 9283.0, 9280.0, 9275.0, 9296.0, 9309.0, 9309.0, 9322.0, 9305.0, 9291.0, 9293.0, 9273.0, 9255.0, 9261.0, 9215.0, 9261.0, 9247.0, 9220.0, 9192.0, 9167.0, 9156.0, 9146.0, 9161.0, 9184.0, 9195.0, 9207.0, 9231.0, 9236.0, 9252.0, 9270.0, 9289.0, 9288.0, 9316.0, 9288.0, 9295.0, 9293.0, 9292.0, 9311.0, 9327.0, 9328.0, 9296.0, 9281.0, 9236.0, 9234.0, 9225.0, 9233.0, 9233.0, 9230.0, 9237.0, 9240.0, 9258.0, 9269.0, 9265.0, 9287.0, 9295.0, 9295.0, 9297.0, 9302.0, 9288.0, 9309.0, 9282.0, 9264.0, 9262.0, 9267.0, 9268.0, 9267.0, 9272.0, 9279.0, 9283.0, 9296.0, 9321.0, 9330.0, 9333.0, 9342.0, 9356.0, 9334.0, 9292.0, 9312.0, 9294.0, 9292.0, 9299.0, 9298.0, 9306.0],
      "WindowWidth": [19842.0, 19777.0, 19769.0, 19796.0, 19846.0, 19893.0, 19937.0, 19979.0, 20003.0, 20010.0, 20004.0, 19985.0, 20050.0, 20043.0, 20031.0, 20101.0, 20064.0, 20106.0, 20194.0, 20107.0, 20152.0, 20027.0, 19992.0, 20019.0, 19937.0, 19888.0, 19877.0, 19880.0, 19907.0, 19921.0, 19956.0, 19992.0, 20010.0, 20031.0, 20038.0, 19957.0, 19974.0, 19983.0, 19952.0, 19963.0, 19955.0, 19938.0, 19902.0, 19903.0, 19941.0, 19931.0, 19921.0, 19901.0, 19890.0, 19900.0, 19929.0, 19961.0, 19960.0, 19995.0, 20002.0, 19960.0, 19935.0, 19914.0, 19856.0, 19853.0, 19866.0, 19855.0, 19890.0, 19912.0, 19952.0, 19962.0, 19961.0, 19975.0, 19963.0, 19941.0, 19957.0, 19953.0, 19912.0, 19893.0, 19888.0, 19884.0, 19903.0, 19875.0, 19847.0, 19836.0, 19824.0, 19831.0, 19840.0, 19837.0, 19840.0, 19847.0, 19870.0, 19889.0, 19883.0, 19882.0, 19867.0, 19847.0, 19799.0, 19819.0, 19804.0, 19837.0, 19834.0, 19843.0, 19851.0, 19864.0, 19893.0, 19905.0, 19835.0, 19795.0, 19788.0, 19803.0, 19815.0, 19857.0, 19891.0, 19877.0, 19935.0, 19932.0, 19933.0, 19975.0, 19994.0, 20005.0, 20031.0, 19989.0, 19962.0, 19955.0, 19905.0, 19865.0, 19883.0, 19778.0, 19887.0, 19849.0, 19790.0, 19728.0, 19674.0, 19646.0, 19629.0, 19659.0, 19706.0, 19736.0, 19767.0, 19816.0, 19832.0, 19863.0, 19906.0, 19947.0, 19955.0, 20003.0, 19950.0, 19968.0, 19953.0, 19960.0, 19993.0, 20033.0, 20034.0, 19973.0, 19929.0, 19825.0, 19820.0, 19802.0, 19824.0, 19821.0, 19822.0, 19839.0, 19849.0, 19889.0, 19902.0, 19896.0, 19947.0, 19962.0, 19960.0, 19965.0, 19972.0, 19945.0, 19974.0, 19923.0, 19892.0, 19884.0, 19888.0, 19889.0, 19884.0, 19897.0, 19914.0, 19925.0, 19960.0, 20019.0, 20037.0, 20046.0, 20070.0, 20091.0, 20045.0, 19960.0, 19988.0, 19955.0, 19948.0, 19965.0, 19969.0, 19985.0]
    },
    "slices": {}
  },
  "NumberOfVolumes": 192
}