{
  "AcquisitionMatrixPE": 104,
  "AcquisitionNumber": 1,
  "AcquisitionTime": "11:11:39.447500",
  "BandwidthPerPixelPhaseEncode": 16.297,
  "BaseResolution": 104,
  "BodyPartExamined": "BRAIN",
  "CoilString": "HC2_4_6_7;NC2",
  "ConsistencyInfo": "N4_VE11C_LATEST_20160120",
  "ConversionSoftware": "dcm2niix",
  "ConversionSoftwareVersion": "v1.0.20190902",
  "DerivedVendorReportedEchoSpacing": 0.000590009,
  "DeviceSerialNumber": "166018",
  "DwellTime": 2.1e-06,
  "EchoTime": 0.0376,
  "EchoTrainLength": 104,
  "EffectiveEchoSpacing": 0.000590009,
  "FlipAngle": 68,
  "ImageComments": "Unaliased_MB6_PE3_LB",
  "ImageOrientationPatientDICOM": [0.998319, 0.0136682, 0.0563213, -0.00714394, 0.993403, -0.114453],
  "ImageType": [
    "ORIGINAL",
    "PRIMARY",
    "M",
    "MB",
    "ND",
    "MOSAIC"
],
  "ImagingFrequency": 123.191,
  "InPlanePhaseEncodingDirectionDICOM": "COL",
  "InstitutionAddress": "Washington_Place_6_NYC_NYC_US_10003",
  "InstitutionName": "NYU_-_CBI",
  "InstitutionalDepartmentName": "Department",
  "MRAcquisitionType": "2D",
  "MagneticFieldStrength": 3,
  "Manufacturer": "Siemens",
  "ManufacturersModelName": "Prisma",
  "Modality": "MR",
  "MultibandAccelerationFactor": 6,
  "PartialFourier": 1,
  "PatientPosition": "HFS",
  "PercentPhaseFOV": 100,
  "PhaseEncodingDirection": "j",
  "PhaseEncodingSteps": 104,
  "PhaseResolution": 1,
  "PixelBandwidth": 2290,
  "ProcedureStepDescription": "Investigators_Winawer",
  "ProtocolName": "cmrr_mbepi_s6_2mm_66sl_PA_task-prf",
  "PulseSequenceDetails": "%CustomerSeq%_cmrr_mbep2d_bold",
  "ReceiveCoilActiveElements": "HC2,4,6,7;NC2",
  "ReceiveCoilName": "HeadNeck_64",
  "ReconMatrixPE": 104,
  "RepetitionTime": 1,
  "SAR": 0.0600589,
  "ScanOptions": "FS",
  "ScanningSequence": "EP",
  "SequenceName": "epfid2d1_104",
  "SequenceVariant": "SK_SS",
  "SeriesDescription": "cmrr_mbepi_s6_2mm_66sl_PA_task-prf",
  "SeriesNumber": 14,
  "ShimSetting": [276, -12609, -8462, 556, 12, 147, 24, -29],
  "SliceThickness": 2,
  "SliceTiming": [0, 0.5325, 0.0875, 0.6225, 0.1775, 0.7125, 0.265, 0.8, 0.355, 0.89, 0.445, 0, 0.5325, 0.0875, 0.6225, 0.1775, 0.7125, 0.265, 0.8, 0.355, 0.89, 0.445, 0, 0.5325, 0.0875, 0.6225, 0.1775, 0.7125, 0.265, 0.8, 0.355, 0.89, 0.445, 0, 0.5325, 0.0875, 0.6225, 0.1775, 0.7125, 0.265, 0.8, 0.355, 0.89, 0.445, 0, 0.5325, 0.0875, 0.6225, 0.1775, 0.7125, 0.265, 0.8, 0.355, 0.89, 0.445, 0, 0.5325, 0.0875, 0.6225, 0.1775, 0.7125, 0.265, 0.8, 0.355, 0.89, 0.445],
  "SoftwareVersions": "syngo_MR_E11",
  "SpacingBetweenSlices": 2,
  "StationName": "AWP166018",
  "TaskName": "prf",
  "TotalReadoutTime": 0.060771,
  "TxRefAmp": 210.784,
  "VendorReportedEchoSpacing": 0.00059,
  "WipMemBlock": "aa653d72-c920-413e-8a58-297189b94cd0||Sequence: R016 ve11c/master r/8780670; Nov 27 2017 15:05:12 by eja",
  "dcmmeta_affine": [
    [-1.996638298034668, -0.014287878759205341, 0.1150282472372055, 106.96871185302734],
    [-0.027336489409208298, 1.9868059158325195, -0.2277165651321411, -80.09649658203125],
    [0.11264261603355408, 0.22890605032444, 1.9836616516113281, -66.66742706298828],
    [0.0, 0.0, 0.0, 1.0]
],
  "dcmmeta_reorient_transform": [
    [0.0, -1.0, 0.0, 103.0],
    [1.0, 0.0, 0.0, 0.0],
    [0.0, 0.0, 1.0, 0.0],
    [0.0, 0.0, 0.0, 1.0]
],
  "dcmmeta_shape": [104, 104, 66, 192],
  "dcmmeta_slice_dim": 2,
  "dcmmeta_version": 0.6,
  "global": {
    "const": {
      "AccessionNumber": "k7gfkyn9",
      "AcquisitionMatrix": [104, 0, 0, 104],
      "AngioFlag": "N",
      "BitsAllocated": 16,
      "BitsStored": 16,
      "BodyPartExamined": "BRAIN",
      "Columns": 936,
      "EchoNumbers": 1,
      "EchoTime": 37.6,
      "EchoTrainLength": 104,
      "FlipAngle": 68.0,
      "HighBit": 15,
      "ImageOrientationPatient": [0.99831913210548, 0.01366824469194, 0.05632130644077, -0.0071439392315, 0.99340297458014, -0.1144530219242],
      "ImagePositionPatient": [-930.15482098988, -962.42776997279, 5.2754862845493],
      "ImageType": [
        "ORIGINAL",
        "PRIMARY",
        "M",
        "MB",
        "ND",
        "MOSAIC"
],
      "ImagedNucleus": "1H",
      "ImagingFrequency": 123.190741,
      "InPlanePhaseEncodingDirection": "COL",
      "MRAcquisitionType": "2D",
      "MagneticFieldStrength": 3.0,
      "Manufacturer": "SIEMENS",
      "ManufacturerModelName": "Prisma",
      "Modality": "MR",
      "NumberOfAverages": 1.0,
      "NumberOfPhaseEncodingSteps": 104,
      "PercentPhaseFieldOfView": 100.0,
      "PercentSampling": 100.0,
      "PerformedProcedureStepStartTime": "104151.005000",
      "PhotometricInterpretation": "MONOCHROME2",
      "PixelBandwidth": 2290.0,
      "PixelRepresentation": 0,
      "PixelSpacing": [2.0, 2.0],
      "ProtocolName": "cmrr_mbepi_s6_2mm_66sl_PA_task-prf",
      "RepetitionTime": 1000.0,
      "Rows": 936,
      "SAR": 0.06005889938346,
      "SamplesPerPixel": 1,
      "ScanOptions": "FS",
      "ScanningSequence": "EP",
      "SequenceName": "epfid2d1_104",
      "SequenceVariant": [
        "SK",
        "SS"
],
      "SeriesDescription": "cmrr_mbepi_s6_2mm_66sl_PA_task-prf",
      "SeriesNumber": 14,
      "SeriesTime": "111232.900000",
      "SliceLocation": -50.850944948111,
      "SliceThickness": 2.0,
      "SmallestImagePixelValue": 0,
      "SoftwareVersions": "syngo MR E11",
      "SpacingBetweenSlices": 1.9999999725694,
      "SpecificCharacterSet": "ISO_IR 100",
      "StudyID": "2",
      "StudyTime": "104150.948000",
      "TransmitCoilName": "Body",
      "VariableFlipAngleFlag": "N",
      "WindowCenterWidthExplanation": "Algo1",
      "dBdt": 0.0},
    "slices": {}
  },
  "time": {
    "samples": {
      "AcquisitionNumber": [1, 2, 3, 4, 5, 6, 7, 8, 9, 10, 11, 12, 13, 14, 15, 16, 17, 18, 19, 20, 21, 22, 23, 24, 25, 26, 27, 28, 29, 30, 31, 32, 33, 34, 35, 36, 37, 38, 39, 40, 41, 42, 43, 44, 45, 46, 47, 48, 49, 50, 51, 52, 53, 54, 55, 56, 57, 58, 59, 60, 61, 62, 63, 64, 65, 66, 67, 68, 69, 70, 71, 72, 73, 74, 75, 76, 77, 78, 79, 80, 81, 82, 83, 84, 85, 86, 87, 88, 89, 90, 91, 92, 93, 94, 95, 96, 97, 98, 99, 100, 101, 102, 103, 104, 105, 106, 107, 108, 109, 110, 111, 112, 113, 114, 115, 116, 117, 118, 119, 120, 121, 122, 123, 124, 125, 126, 127, 128, 129, 130, 131, 132, 133, 134, 135, 136, 137, 138, 139, 140, 141, 142, 143, 144, 145, 146, 147, 148, 149, 150, 151, 152, 153, 154, 155, 156, 157, 158, 159, 160, 161, 162, 163, 164, 165, 166, 167, 168, 169, 170, 171, 172, 173, 174, 175, 176, 177, 178, 179, 180, 181, 182, 183, 184, 185, 186, 187, 188, 189, 190, 191, 192],
      "AcquisitionTime": ["111139.447500", "111140.447500", "111141.447500", "111142.447500", "111143.447500", "111144.447500", "111145.447500", "111146.447500", "111147.447500", "111148.447500", "111149.447500", "111150.447500", "111151.447500", "111152.447500", "111153.447500", "111154.447500", "111155.447500", "111156.447500", "111157.447500", "111158.447500", "111159.447500", "111200.447500", "111201.447500", "111202.447500", "111203.447500", "111204.447500", "111205.447500", "111206.447500", "111207.447500", "111208.447500", "111209.447500", "111210.447500", "111211.447500", "111212.447500", "111213.447500", "111214.447500", "111215.447500", "111216.447500", "111217.447500", "111218.447500", "111219.447500", "111220.447500", "111221.447500", "111222.447500", "111223.447500", "111224.447500", "111225.447500", "111226.447500", "111227.447500", "111228.447500", "111229.447500", "111230.447500", "111231.447500", "111232.447500", "111233.447500", "111234.447500", "111235.447500", "111236.447500", "111237.447500", "111238.447500", "111239.447500", "111240.447500", "111241.447500", "111242.447500", "111243.447500", "111244.447500", "111245.447500", "111246.447500", "111247.447500", "111248.447500", "111249.447500", "111250.447500", "111251.447500", "111252.447500", "111253.447500", "111254.447500", "111255.447500", "111256.447500", "111257.447500", "111258.447500", "111259.447500", "111300.447500", "111301.447500", "111302.447500", "111303.447500", "111304.447500", "111305.447500", "111306.447500", "111307.447500", "111308.447500", "111309.447500", "111310.447500", "111311.447500", "111312.447500", "111313.447500", "111314.447500", "111315.447500", "111316.447500", "111317.447500", "111318.447500", "111319.447500", "111320.447500", "111321.447500", "111322.447500", "111323.447500", "111324.447500", "111325.447500", "111326.447500", "111327.447500", "111328.447500", "111329.447500", "111330.447500", "111331.447500", "111332.447500", "111333.447500", "111334.447500", "111335.447500", "111336.447500", "111337.447500", "111338.447500", "111339.447500", "111340.447500", "111341.447500", "111342.447500", "111343.447500", "111344.447500", "111345.447500", "111346.447500", "111347.447500", "111348.447500", "111349.447500", "111350.447500", "111351.447500", "111352.447500", "111353.447500", "111354.447500", "111355.447500", "111356.447500", "111357.447500", "111358.447500", "111359.447500", "111400.447500", "111401.447500", "111402.447500", "111403.447500", "111404.447500", "111405.447500", "111406.447500", "111407.447500", "111408.447500", "111409.447500", "111410.447500", "111411.447500", "111412.447500", "111413.447500", "111414.447500", "111415.447500", "111416.447500", "111417.447500", "111418.447500", "111419.447500", "111420.447500", "111421.447500", "111422.447500", "111423.447500", "111424.447500", "111425.447500", "111426.447500", "111427.447500", "111428.447500", "111429.447500", "111430.447500", "111431.447500", "111432.447500", "111433.447500", "111434.447500", "111435.447500", "111436.447500", "111437.447500", "111438.447500", "111439.447500", "111440.447500", "111441.447500", "111442.447500", "111443.447500", "111444.447500", "111445.447500", "111446.447500", "111447.447500", "111448.447500", "111449.447500", "111450.447500"],
      "ContentTime": ["111232.903000", "111232.906000", "111232.909000", "111232.912000", "111232.915000", "111232.918000", "111232.921000", "111232.924000", "111232.927000", "111232.930000", "111232.932000", "111232.935000", "111232.938000", "111232.941000", "111232.944000", "111232.947000", "111232.950000", "111232.952000", "111232.955000", "111232.964000", "111232.967000", "111232.969000", "111232.972000", "111232.975000", "111232.978000", "111232.981000", "111232.984000", "111232.987000", "111232.989000", "111232.992000", "111232.995000", "111232.998000", "111233.002000", "111233.005000", "111233.008000", "111252.873000", "111252.876000", "111252.879000", "111252.881000", "111252.884000", "111252.889000", "111252.892000", "111252.895000", "111252.897000", "111252.900000", "111252.903000", "111252.906000", "111252.909000", "111252.912000", "111252.915000", "111252.917000", "111252.920000", "111252.923000", "111252.926000", "111252.929000", "111252.932000", "111252.935000", "111252.937000", "111252.940000", "111252.943000", "111252.946000", "111252.949000", "111252.952000", "111252.954000", "111252.957000", "111252.960000", "111252.963000", "111252.966000", "111252.969000", "111252.972000", "111252.974000", "111252.977000", "111312.873000", "111312.876000", "111312.879000", "111312.882000", "111312.884000", "111312.898000", "111312.901000", "111312.904000", "111312.907000", "111312.909000", "111312.912000", "111312.915000", "111312.918000", "111312.921000", "111312.924000", "111312.927000", "111312.929000", "111312.932000", "111312.935000", "111312.938000", "111332.873000", "111332.876000", "111332.879000", "111332.881000", "111332.884000", "111332.892000", "111332.895000", "111332.898000", "111332.901000", "111332.904000", "111332.906000", "111332.909000", "111332.912000", "111332.915000", "111332.918000", "111332.921000", "111332.923000", "111332.926000", "111332.929000", "111332.932000", "111352.873000", "111352.876000", "111352.879000", "111352.882000", "111352.884000", "111352.887000", "111352.890000", "111352.893000", "111352.896000", "111352.899000", "111352.902000", "111352.905000", "111352.907000", "111352.910000", "111352.913000", "111352.931000", "111352.934000", "111352.937000", "111352.940000", "111352.943000", "111412.873000", "111412.876000", "111412.879000", "111412.882000", "111412.884000", "111412.887000", "111412.890000", "111412.893000", "111412.896000", "111412.899000", "111412.902000", "111412.905000", "111412.907000", "111412.910000", "111412.913000", "111412.916000", "111412.933000", "111412.937000", "111412.939000", "111412.942000", "111432.874000", "111432.877000", "111432.880000", "111432.883000", "111432.885000", "111432.888000", "111432.891000", "111432.894000", "111432.897000", "111432.900000", "111432.903000", "111432.906000", "111432.908000", "111432.911000", "111432.914000", "111432.917000", "111432.920000", "111432.923000", "111432.926000", "111432.928000", "111452.425000", "111452.429000", "111452.431000", "111452.434000", "111452.437000", "111452.440000", "111452.443000", "111452.446000", "111452.449000", "111452.452000", "111452.455000", "111452.457000", "111452.460000", "111452.463000", "111452.466000", "111452.469000", "111452.472000", "111452.475000", "111452.478000", "111452.481000"],
      "InstanceCreationTime": ["111232.903000", "111232.906000", "111232.909000", "111232.912000", "111232.915000", "111232.918000", "111232.921000", "111232.924000", "111232.927000", "111232.930000", "111232.932000", "111232.935000", "111232.938000", "111232.941000", "111232.944000", "111232.947000", "111232.950000", "111232.952000", "111232.955000", "111232.964000", "111232.967000", "111232.969000", "111232.972000", "111232.975000", "111232.978000", "111232.981000", "111232.984000", "111232.987000", "111232.989000", "111232.992000", "111232.995000", "111232.998000", "111233.002000", "111233.005000", "111233.008000", "111252.873000", "111252.876000", "111252.879000", "111252.881000", "111252.884000", "111252.889000", "111252.892000", "111252.895000", "111252.897000", "111252.900000", "111252.903000", "111252.906000", "111252.909000", "111252.912000", "111252.915000", "111252.917000", "111252.920000", "111252.923000", "111252.926000", "111252.929000", "111252.932000", "111252.935000", "111252.937000", "111252.940000", "111252.943000", "111252.946000", "111252.949000", "111252.952000", "111252.954000", "111252.957000", "111252.960000", "111252.963000", "111252.966000", "111252.969000", "111252.972000", "111252.974000", "111252.977000", "111312.873000", "111312.876000", "111312.879000", "111312.882000", "111312.884000", "111312.898000", "111312.901000", "111312.904000", "111312.907000", "111312.909000", "111312.912000", "111312.915000", "111312.918000", "111312.921000", "111312.924000", "111312.927000", "111312.929000", "111312.932000", "111312.935000", "111312.938000", "111332.873000", "111332.876000", "111332.879000", "111332.881000", "111332.884000", "111332.892000", "111332.895000", "111332.898000", "111332.901000", "111332.904000", "111332.906000", "111332.909000", "111332.912000", "111332.915000", "111332.918000", "111332.921000", "111332.923000", "111332.926000", "111332.929000", "111332.932000", "111352.873000", "111352.876000", "111352.879000", "111352.882000", "111352.884000", "111352.887000", "111352.890000", "111352.893000", "111352.896000", "111352.899000", "111352.902000", "111352.905000", "111352.907000", "111352.910000", "111352.913000", "111352.931000", "111352.934000", "111352.937000", "111352.940000", "111352.943000", "111412.873000", "111412.876000", "111412.879000", "111412.882000", "111412.884000", "111412.887000", "111412.890000", "111412.893000", "111412.896000", "111412.899000", "111412.902000", "111412.905000", "111412.907000", "111412.910000", "111412.913000", "111412.916000", "111412.933000", "111412.937000", "111412.939000", "111412.942000", "111432.874000", "111432.877000", "111432.880000", "111432.883000", "111432.885000", "111432.888000", "111432.891000", "111432.894000", "111432.897000", "111432.900000", "111432.903000", "111432.906000", "111432.908000", "111432.911000", "111432.914000", "111432.917000", "111432.920000", "111432.923000", "111432.926000", "111432.928000", "111452.425000", "111452.429000", "111452.431000", "111452.434000", "111452.437000", "111452.440000", "111452.443000", "111452.446000", "111452.449000", "111452.452000", "111452.455000", "111452.457000", "111452.460000", "111452.463000", "111452.466000", "111452.469000", "111452.472000", "111452.475000", "111452.478000", "111452.481000"],
      "InstanceNumber": [1, 2, 3, 4, 5, 6, 7, 8, 9, 10, 11, 12, 13, 14, 15, 16, 17, 18, 19, 20, 21, 22, 23, 24, 25, 26, 27, 28, 29, 30, 31, 32, 33, 34, 35, 36, 37, 38, 39, 40, 41, 42, 43, 44, 45, 46, 47, 48, 49, 50, 51, 52, 53, 54, 55, 56, 57, 58, 59, 60, 61, 62, 63, 64, 65, 66, 67, 68, 69, 70, 71, 72, 73, 74, 75, 76, 77, 78, 79, 80, 81, 82, 83, 84, 85, 86, 87, 88, 89, 90, 91, 92, 93, 94, 95, 96, 97, 98, 99, 100, 101, 102, 103, 104, 105, 106, 107, 108, 109, 110, 111, 112, 113, 114, 115, 116, 117, 118, 119, 120, 121, 122, 123, 124, 125, 126, 127, 128, 129, 130, 131, 132, 133, 134, 135, 136, 137, 138, 139, 140, 141, 142, 143, 144, 145, 146, 147, 148, 149, 150, 151, 152, 153, 154, 155, 156, 157, 158, 159, 160, 161, 162, 163, 164, 165, 166, 167, 168, 169, 170, 171, 172, 173, 174, 175, 176, 177, 178, 179, 180, 181, 182, 183, 184, 185, 186, 187, 188, 189, 190, 191, 192],
      "LargestImagePixelValue": [36957, 34580, 34388, 34662, 36657, 33922, 34026, 33936, 34255, 34465, 34192, 34363, 34499, 34526, 34150, 34028, 33940, 34336, 34266, 34230, 35873, 34289, 36177, 33774, 33899, 38301, 34056, 33943, 34462, 34525, 34424, 34408, 34901, 35106, 33917, 33835, 33910, 33718, 34115, 37390, 34121, 34359, 33632, 34214, 33988, 34044, 34109, 33816, 34008, 33630, 33910, 33692, 34080, 34128, 34529, 34501, 34130, 34223, 33878, 33641, 33813, 33852, 33723, 34294, 33874, 33657, 33539, 33760, 34156, 33547, 33901, 34151, 39387, 34224, 35631, 34524, 38055, 34024, 33957, 36073, 34043, 33637, 35568, 36938, 34056, 34200, 35445, 33824, 34328, 34394, 34244, 34031, 34090, 34005, 34218, 34062, 33944, 33911, 36389, 34022, 34694, 40150, 39151, 34949, 41669, 35051, 35589, 37393, 33932, 34068, 33908, 33875, 33843, 34149, 34051, 33914, 33764, 34013, 34313, 34442, 35949, 34886, 34992, 35320, 35012, 34216, 33675, 34142, 34134, 34394, 34332, 33710, 34416, 34195, 33879, 34299, 34770, 34041, 34511, 35211, 34808, 34502, 33959, 33739, 34030, 33915, 33945, 34056, 34519, 34324, 34217, 34267, 34411, 33983, 34011, 33989, 34146, 33874, 34177, 34435, 34371, 34409, 34135, 34374, 34955, 34578, 34649, 34378, 34343, 34448, 34615, 34602, 34557, 34140, 33889, 34099, 34595, 34428, 34355, 34515, 34372, 34741, 34425, 34265, 34215, 34541, 34820, 34267, 36825, 36416, 34446, 36749],
      "WindowCenter": [9424.0, 9372.0, 9354.0, 9334.0, 9354.0, 9329.0, 9335.0, 9331.0, 9332.0, 9344.0, 9352.0, 9353.0, 9350.0, 9333.0, 9301.0, 9275.0, 9284.0, 9298.0, 9316.0, 9342.0, 9362.0, 9354.0, 9370.0, 9325.0, 9315.0, 9356.0, 9313.0, 9328.0, 9337.0, 9335.0, 9328.0, 9326.0, 9323.0, 9322.0, 9295.0, 9304.0, 9318.0, 9314.0, 9311.0, 9338.0, 9303.0, 9304.0, 9280.0, 9307.0, 9303.0, 9313.0, 9319.0, 9293.0, 9327.0, 9318.0, 9332.0, 9309.0, 9295.0, 9279.0, 9275.0, 9267.0, 9268.0, 9290.0, 9312.0, 9331.0, 9337.0, 9315.0, 9299.0, 9306.0, 9290.0, 9290.0, 9299.0, 9310.0, 9325.0, 9328.0, 9345.0, 9360.0, 9412.0, 9360.0, 9365.0, 9367.0, 9411.0, 9354.0, 9360.0, 9382.0, 9353.0, 9336.0, 9342.0, 9351.0, 9310.0, 9304.0, 9306.0, 9297.0, 9304.0, 9303.0, 9304.0, 9299.0, 9307.0, 9306.0, 9314.0, 9331.0, 9323.0, 9326.0, 9368.0, 9347.0, 9362.0, 9428.0, 9417.0, 9368.0, 9424.0, 9347.0, 9344.0, 9354.0, 9310.0, 9297.0, 9298.0, 9305.0, 9294.0, 9292.0, 9288.0, 9291.0, 9296.0, 9305.0, 9322.0, 9337.0, 9354.0, 9344.0, 9337.0, 9334.0, 9317.0, 9303.0, 9304.0, 9302.0, 9308.0, 9318.0, 9321.0, 9308.0, 9327.0, 9323.0, 9324.0, 9321.0, 9335.0, 9332.0, 9329.0, 9332.0, 9329.0, 9327.0, 9303.0, 9289.0, 9296.0, 9280.0, 9264.0, 9270.0, 9286.0, 9287.0, 9286.0, 9303.0, 9314.0, 9301.0, 9298.0, 9301.0, 9307.0, 9293.0, 9309.0, 9327.0, 9329.0, 9320.0, 9322.0, 9335.0, 9332.0, 9306.0, 9272.0, 9239.0, 9207.0, 9194.0, 9199.0, 9216.0, 9234.0, 9254.0, 9276.0, 9299.0, 9320.0, 9344.0, 9332.0, 9337.0, 9331.0, 9336.0, 9320.0, 9337.0, 9346.0, 9373.0, 9372.0, 9365.0, 9379.0, 9366.0, 9323.0, 9319.0],
      "WindowWidth": [20298.0, 20175.0, 20124.0, 20072.0, 20098.0, 20056.0, 20069.0, 20056.0, 20060.0, 20085.0, 20105.0, 20105.0, 20095.0, 20055.0, 19985.0, 19928.0, 19951.0, 19980.0, 20023.0, 20083.0, 20121.0, 20114.0, 20136.0, 20046.0, 20025.0, 20085.0, 20018.0, 20048.0, 20069.0, 20064.0, 20052.0, 20042.0, 20034.0, 20030.0, 19976.0, 19996.0, 20029.0, 20022.0, 20014.0, 20056.0, 19994.0, 19995.0, 19944.0, 19993.0, 19988.0, 20012.0, 20024.0, 19973.0, 20049.0, 20032.0, 20058.0, 20007.0, 19969.0, 19933.0, 19919.0, 19905.0, 19907.0, 19956.0, 20010.0, 20053.0, 20066.0, 20021.0, 19985.0, 20001.0, 19967.0, 19970.0, 19990.0, 20014.0, 20046.0, 20054.0, 20094.0, 20125.0, 20214.0, 20123.0, 20132.0, 20139.0, 20220.0, 20113.0, 20124.0, 20161.0, 20107.0, 20070.0, 20074.0, 20084.0, 20014.0, 19994.0, 19992.0, 19983.0, 19994.0, 19989.0, 19991.0, 19982.0, 20001.0, 19997.0, 20015.0, 20052.0, 20035.0, 20045.0, 20123.0, 20091.0, 20125.0, 20245.0, 20223.0, 20136.0, 20221.0, 20082.0, 20070.0, 20081.0, 20005.0, 19980.0, 19984.0, 20000.0, 19974.0, 19967.0, 19962.0, 19971.0, 19979.0, 19997.0, 20035.0, 20068.0, 20097.0, 20085.0, 20068.0, 20059.0, 20018.0, 19989.0, 19992.0, 19984.0, 19998.0, 20023.0, 20030.0, 20009.0, 20043.0, 20040.0, 20043.0, 20032.0, 20064.0, 20063.0, 20050.0, 20052.0, 20044.0, 20039.0, 19986.0, 19959.0, 19970.0, 19934.0, 19902.0, 19914.0, 19948.0, 19954.0, 19952.0, 19991.0, 20017.0, 19992.0, 19987.0, 19991.0, 20003.0, 19976.0, 20011.0, 20051.0, 20057.0, 20026.0, 20032.0, 20059.0, 20044.0, 19985.0, 19910.0, 19838.0, 19772.0, 19739.0, 19746.0, 19786.0, 19829.0, 19876.0, 19932.0, 19982.0, 20032.0, 20083.0, 20061.0, 20071.0, 20059.0, 20065.0, 20033.0, 20069.0, 20094.0, 20152.0, 20149.0, 20135.0, 20149.0, 20123.0, 20029.0, 20003.0]
    },
    "slices": {}
  },
  "NumberOfVolumes": 192
}