{
  "AcquisitionMatrixPE": 104,
  "AcquisitionNumber": 1,
  "AcquisitionTime": "16:39:24.080000",
  "BandwidthPerPixelPhaseEncode": 16.297,
  "BaseResolution": 104,
  "BodyPartExamined": "BRAIN",
  "ConsistencyInfo": "N4_VE11C_LATEST_20160120",
  "ConversionSoftware": "dcm2niix",
  "ConversionSoftwareVersion": "v1.0.20210317",
  "DerivedVendorReportedEchoSpacing": 0.000590009,
  "DeviceSerialNumber": "166018",
  "DwellTime": 2.1e-06,
  "EchoTime": 0.0376,
  "EchoTrainLength": 104,
  "EffectiveEchoSpacing": 0.000590009,
  "FlipAngle": 68,
  "ImageComments": "Unaliased MB6/PE3/LB",
  "ImageOrientationPatientDICOM": [0.995433, 0.0954603, 0.00114202, -0.0940961, 0.983086, -0.157122],
  "ImageType": [
    "ORIGINAL",
    "PRIMARY",
    "M",
    "MB",
    "ND",
    "MOSAIC"
],
  "ImagingFrequency": 123.197,
  "InPlanePhaseEncodingDirectionDICOM": "COL",
  "InstitutionAddress": "Washington Place 6,NYC,NYC,US,10003",
  "InstitutionName": "NYU - CBI",
  "InstitutionalDepartmentName": "Department",
  "MRAcquisitionType": "2D",
  "MagneticFieldStrength": 3,
  "Manufacturer": "Siemens",
  "ManufacturersModelName": "Prisma",
  "Modality": "MR",
  "MultibandAccelerationFactor": 6,
  "PartialFourier": 1,
  "PatientPosition": "HFS",
  "PercentPhaseFOV": 100,
  "PercentSampling": 100,
  "PhaseEncodingDirection": "j",
  "PhaseEncodingSteps": 104,
  "PhaseResolution": 1,
  "PixelBandwidth": 2290,
  "ProcedureStepDescription": "Investigators^Winawer",
  "ProtocolName": "cmrr_mbepi_s6_2mm_66sl_PA_task-bar3",
  "PulseSequenceDetails": "%CustomerSeq%\\cmrr_mbep2d_bold",
  "ReceiveCoilActiveElements": "HC1-7",
  "ReceiveCoilName": "HeadNeck_64",
  "ReconMatrixPE": 104,
  "RepetitionTime": 1,
  "SAR": 0.0980414,
  "ScanOptions": "FS",
  "ScanningSequence": "EP",
  "SequenceName": "epfid2d1_104",
  "SequenceVariant": "SK\\SS",
  "SeriesDescription": "cmrr_mbepi_s6_2mm_66sl_PA_task-bar3",
  "SeriesNumber": 16,
  "ShimSetting": [325, -12623, -8419, 341, 82, -188, -22, 57],
  "SliceThickness": 2,
  "SliceTiming": [0, 0.535, 0.09, 0.6225, 0.1775, 0.7125, 0.2675, 0.8025, 0.355, 0.89, 0.445, 0, 0.535, 0.09, 0.6225, 0.1775, 0.7125, 0.2675, 0.8025, 0.355, 0.89, 0.445, 0, 0.535, 0.09, 0.6225, 0.1775, 0.7125, 0.2675, 0.8025, 0.355, 0.89, 0.445, 0, 0.535, 0.09, 0.6225, 0.1775, 0.7125, 0.2675, 0.8025, 0.355, 0.89, 0.445, 0, 0.535, 0.09, 0.6225, 0.1775, 0.7125, 0.2675, 0.8025, 0.355, 0.89, 0.445, 0, 0.535, 0.09, 0.6225, 0.1775, 0.7125, 0.2675, 0.8025, 0.355, 0.89, 0.445],
  "SoftwareVersions": "syngo MR E11",
  "SpacingBetweenSlices": 2,
  "StationName": "AWP166018",
  "TaskName": "bar3",
  "TotalReadoutTime": 0.060771,
  "TxRefAmp": 250.654,
  "VendorReportedEchoSpacing": 0.00059,
  "WipMemBlock": "b20dd853-d874-4ee6-b1b5-da9acb4a6c4b||Sequence: R016 ve11c/master r/8780670; Nov 27 2017 15:05:12 by eja",
  "dcmmeta_affine": [
    [-1.9908651113510132, -0.18819214403629303, 0.03224321827292442, 115.54850769042969],
    [-0.1909206360578537, 1.9661725759506226, -0.31259363889694214, -63.16032791137695],
    [0.0022840318270027637, 0.3142438530921936, 1.9751570224761963, -48.55057907104492],
    [0.0, 0.0, 0.0, 1.0]
],
  "dcmmeta_reorient_transform": [
    [0.0, -1.0, 0.0, 103.0],
    [1.0, 0.0, 0.0, 0.0],
    [0.0, 0.0, 1.0, 0.0],
    [0.0, 0.0, 0.0, 1.0]
],
  "dcmmeta_shape": [104, 104, 66, 300],
  "dcmmeta_slice_dim": 2,
  "dcmmeta_version": 0.6,
  "global": {
    "const": {
      "AccessionNumber": "Leq8op5o",
      "AcquisitionMatrix": [104, 0, 0, 104],
      "AngioFlag": "N",
      "BitsAllocated": 16,
      "BitsStored": 16,
      "BodyPartExamined": "BRAIN",
      "Columns": 936,
      "EchoNumbers": 1,
      "EchoTime": 37.6,
      "EchoTrainLength": 104,
      "FlipAngle": 68.0,
      "HighBit": 15,
      "ImageOrientationPatient": [0.99543258116613, 0.09546031716118, 0.00114201594585, -0.0940960683812, 0.98308627875645, -0.1571219222006],
      "ImagePositionPatient": [-846.07669379734, -1036.7062135103, 113.59181963479],
      "ImageType": [
        "ORIGINAL",
        "PRIMARY",
        "M",
        "MB",
        "ND",
        "MOSAIC"
],
      "ImagedNucleus": "1H",
      "ImagingFrequency": 123.196773,
      "InPlanePhaseEncodingDirection": "COL",
      "MRAcquisitionType": "2D",
      "MagneticFieldStrength": 3.0,
      "Manufacturer": "SIEMENS",
      "ManufacturerModelName": "Prisma",
      "Modality": "MR",
      "NumberOfAverages": 1.0,
      "NumberOfPhaseEncodingSteps": 104,
      "PercentPhaseFieldOfView": 100.0,
      "PercentSampling": 100.0,
      "PerformedProcedureStepStartTime": "155918.156000",
      "PhotometricInterpretation": "MONOCHROME2",
      "PixelBandwidth": 2290.0,
      "PixelRepresentation": 0,
      "PixelSpacing": [2.0, 2.0],
      "ProtocolName": "cmrr_mbepi_s6_2mm_66sl_PA_task-bar3",
      "RepetitionTime": 1000.0,
      "Rows": 936,
      "SAR": 0.09804142123823,
      "SamplesPerPixel": 1,
      "ScanOptions": "FS",
      "ScanningSequence": "EP",
      "SequenceName": "epfid2d1_104",
      "SequenceVariant": [
        "SK",
        "SS"
],
      "SeriesDescription": "cmrr_mbepi_s6_2mm_66sl_PA_task-bar3",
      "SeriesNumber": 16,
      "SeriesTime": "164020.648000",
      "SliceLocation": -36.212923632949,
      "SliceThickness": 2.0,
      "SmallestImagePixelValue": 0,
      "SoftwareVersions": "syngo MR E11",
      "SpacingBetweenSlices": 1.9999999453159,
      "SpecificCharacterSet": "ISO_IR 100",
      "StudyID": "1",
      "StudyTime": "155918.089000",
      "TransmitCoilName": "Body",
      "VariableFlipAngleFlag": "N",
      "WindowCenterWidthExplanation": "Algo1",
      "dBdt": 0.0},
    "slices": {}
  },
  "time": {
    "samples": {
      "AcquisitionNumber": [1, 2, 3, 4, 5, 6, 7, 8, 9, 10, 11, 12, 13, 14, 15, 16, 17, 18, 19, 20, 21, 22, 23, 24, 25, 26, 27, 28, 29, 30, 31, 32, 33, 34, 35, 36, 37, 38, 39, 40, 41, 42, 43, 44, 45, 46, 47, 48, 49, 50, 51, 52, 53, 54, 55, 56, 57, 58, 59, 60, 61, 62, 63, 64, 65, 66, 67, 68, 69, 70, 71, 72, 73, 74, 75, 76, 77, 78, 79, 80, 81, 82, 83, 84, 85, 86, 87, 88, 89, 90, 91, 92, 93, 94, 95, 96, 97, 98, 99, 100, 101, 102, 103, 104, 105, 106, 107, 108, 109, 110, 111, 112, 113, 114, 115, 116, 117, 118, 119, 120, 121, 122, 123, 124, 125, 126, 127, 128, 129, 130, 131, 132, 133, 134, 135, 136, 137, 138, 139, 140, 141, 142, 143, 144, 145, 146, 147, 148, 149, 150, 151, 152, 153, 154, 155, 156, 157, 158, 159, 160, 161, 162, 163, 164, 165, 166, 167, 168, 169, 170, 171, 172, 173, 174, 175, 176, 177, 178, 179, 180, 181, 182, 183, 184, 185, 186, 187, 188, 189, 190, 191, 192, 193, 194, 195, 196, 197, 198, 199, 200, 201, 202, 203, 204, 205, 206, 207, 208, 209, 210, 211, 212, 213, 214, 215, 216, 217, 218, 219, 220, 221, 222, 223, 224, 225, 226, 227, 228, 229, 230, 231, 232, 233, 234, 235, 236, 237, 238, 239, 240, 241, 242, 243, 244, 245, 246, 247, 248, 249, 250, 251, 252, 253, 254, 255, 256, 257, 258, 259, 260, 261, 262, 263, 264, 265, 266, 267, 268, 269, 270, 271, 272, 273, 274, 275, 276, 277, 278, 279, 280, 281, 282, 283, 284, 285, 286, 287, 288, 289, 290, 291, 292, 293, 294, 295, 296, 297, 298, 299, 300],
      "AcquisitionTime": ["163924.080000", "163925.080000", "163926.080000", "163927.080000", "163928.080000", "163929.080000", "163930.080000", "163931.080000", "163932.080000", "163933.080000", "163934.080000", "163935.080000", "163936.080000", "163937.080000", "163938.080000", "163939.080000", "163940.080000", "163941.080000", "163942.080000", "163943.080000", "163944.080000", "163945.080000", "163946.080000", "163947.080000", "163948.080000", "163949.080000", "163950.080000", "163951.080000", "163952.080000", "163953.080000", "163954.080000", "163955.080000", "163956.080000", "163957.080000", "163958.080000", "163959.080000", "164000.080000", "164001.080000", "164002.080000", "164003.080000", "164004.080000", "164005.080000", "164006.080000", "164007.080000", "164008.080000", "164009.080000", "164010.080000", "164011.080000", "164012.080000", "164013.080000", "164014.080000", "164015.080000", "164016.080000", "164017.080000", "164018.080000", "164019.080000", "164020.080000", "164021.080000", "164022.080000", "164023.080000", "164024.080000", "164025.080000", "164026.080000", "164027.080000", "164028.080000", "164029.080000", "164030.080000", "164031.080000", "164032.080000", "164033.080000", "164034.080000", "164035.080000", "164036.080000", "164037.080000", "164038.080000", "164039.080000", "164040.080000", "164041.080000", "164042.080000", "164043.080000", "164044.080000", "164045.080000", "164046.080000", "164047.080000", "164048.080000", "164049.080000", "164050.080000", "164051.080000", "164052.080000", "164053.080000", "164054.080000", "164055.080000", "164056.080000", "164057.080000", "164058.080000", "164059.080000", "164100.080000", "164101.080000", "164102.080000", "164103.080000", "164104.080000", "164105.080000", "164106.080000", "164107.080000", "164108.080000", "164109.080000", "164110.080000", "164111.080000", "164112.080000", "164113.080000", "164114.080000", "164115.080000", "164116.080000", "164117.080000", "164118.080000", "164119.080000", "164120.080000", "164121.080000", "164122.080000", "164123.080000", "164124.080000", "164125.080000", "164126.080000", "164127.080000", "164128.080000", "164129.080000", "164130.080000", "164131.080000", "164132.080000", "164133.080000", "164134.080000", "164135.080000", "164136.080000", "164137.080000", "164138.080000", "164139.080000", "164140.080000", "164141.080000", "164142.080000", "164143.080000", "164144.080000", "164145.080000", "164146.080000", "164147.080000", "164148.080000", "164149.080000", "164150.080000", "164151.080000", "164152.080000", "164153.080000", "164154.080000", "164155.080000", "164156.080000", "164157.080000", "164158.080000", "164159.080000", "164200.080000", "164201.080000", "164202.080000", "164203.080000", "164204.080000", "164205.080000", "164206.080000", "164207.080000", "164208.080000", "164209.080000", "164210.080000", "164211.080000", "164212.080000", "164213.080000", "164214.080000", "164215.080000", "164216.080000", "164217.080000", "164218.080000", "164219.080000", "164220.080000", "164221.080000", "164222.080000", "164223.080000", "164224.080000", "164225.080000", "164226.080000", "164227.080000", "164228.080000", "164229.080000", "164230.080000", "164231.080000", "164232.080000", "164233.080000", "164234.080000", "164235.080000", "164236.080000", "164237.080000", "164238.080000", "164239.080000", "164240.080000", "164241.080000", "164242.080000", "164243.080000", "164244.080000", "164245.080000", "164246.080000", "164247.080000", "164248.080000", "164249.080000", "164250.080000", "164251.080000", "164252.080000", "164253.080000", "164254.080000", "164255.080000", "164256.080000", "164257.080000", "164258.080000", "164259.080000", "164300.080000", "164301.080000", "164302.080000", "164303.080000", "164304.080000", "164305.080000", "164306.080000", "164307.080000", "164308.080000", "164309.080000", "164310.080000", "164311.080000", "164312.080000", "164313.080000", "164314.080000", "164315.080000", "164316.080000", "164317.080000", "164318.080000", "164319.080000", "164320.080000", "164321.080000", "164322.080000", "164323.080000", "164324.080000", "164325.080000", "164326.080000", "164327.080000", "164328.080000", "164329.080000", "164330.080000", "164331.080000", "164332.080000", "164333.080000", "164334.080000", "164335.080000", "164336.080000", "164337.080000", "164338.080000", "164339.080000", "164340.080000", "164341.080000", "164342.080000", "164343.080000", "164344.080000", "164345.080000", "164346.080000", "164347.080000", "164348.080000", "164349.080000", "164350.080000", "164351.080000", "164352.080000", "164353.080000", "164354.080000", "164355.080000", "164356.080000", "164357.080000", "164358.080000", "164359.080000", "164400.080000", "164401.080000", "164402.080000", "164403.080000", "164404.080000", "164405.080000", "164406.080000", "164407.080000", "164408.080000", "164409.080000", "164410.080000", "164411.080000", "164412.080000", "164413.080000", "164414.080000", "164415.080000", "164416.080000", "164417.080000", "164418.080000", "164419.080000", "164420.080000", "164421.080000", "164422.080000", "164423.080000"],
      "ContentTime": ["164020.651000", "164020.655000", "164020.658000", "164020.661000", "164020.664000", "164020.672000", "164020.675000", "164020.678000", "164020.681000", "164020.684000", "164040.595000", "164040.598000", "164040.601000", "164040.610000", "164040.612000", "164040.615000", "164040.618000", "164040.621000", "164040.624000", "164040.633000", "164040.636000", "164040.639000", "164040.642000", "164040.645000", "164040.648000", "164040.651000", "164040.654000", "164040.657000", "164040.660000", "164040.663000", "164040.666000", "164040.669000", "164040.671000", "164040.674000", "164040.677000", "164040.680000", "164040.683000", "164040.686000", "164100.594000", "164100.597000", "164100.600000", "164100.603000", "164100.606000", "164100.609000", "164100.612000", "164100.615000", "164100.618000", "164100.621000", "164100.624000", "164100.627000", "164100.630000", "164100.633000", "164100.636000", "164100.639000", "164100.642000", "164100.644000", "164100.647000", "164100.650000", "164100.653000", "164100.656000", "164100.659000", "164100.662000", "164100.665000", "164100.668000", "164100.671000", "164100.678000", "164120.594000", "164120.597000", "164120.600000", "164120.603000", "164120.606000", "164120.609000", "164120.612000", "164120.623000", "164120.626000", "164120.629000", "164120.632000", "164120.635000", "164120.638000", "164120.641000", "164120.644000", "164120.647000", "164120.650000", "164120.653000", "164120.656000", "164120.659000", "164120.662000", "164120.665000", "164120.668000", "164120.671000", "164120.674000", "164120.677000", "164120.680000", "164120.683000", "164120.686000", "164140.594000", "164140.597000", "164140.600000", "164140.603000", "164140.606000", "164140.609000", "164140.612000", "164140.615000", "164140.618000", "164140.621000", "164140.624000", "164140.627000", "164140.630000", "164140.633000", "164140.636000", "164140.639000", "164140.642000", "164140.645000", "164140.648000", "164140.651000", "164140.654000", "164140.657000", "164140.660000", "164140.663000", "164140.666000", "164140.683000", "164140.686000", "164140.688000", "164200.594000", "164200.597000", "164200.600000", "164200.603000", "164200.606000", "164200.609000", "164200.612000", "164200.615000", "164200.618000", "164200.621000", "164200.624000", "164200.627000", "164200.630000", "164200.633000", "164200.636000", "164200.639000", "164200.642000", "164200.645000", "164200.648000", "164200.651000", "164200.654000", "164200.657000", "164200.660000", "164200.663000", "164200.666000", "164200.668000", "164200.671000", "164200.674000", "164220.594000", "164220.597000", "164220.600000", "164220.603000", "164220.606000", "164220.609000", "164220.612000", "164220.615000", "164220.628000", "164220.631000", "164220.634000", "164220.637000", "164220.640000", "164220.643000", "164220.646000", "164220.649000", "164220.652000", "164220.655000", "164220.658000", "164220.661000", "164220.664000", "164220.667000", "164220.669000", "164220.672000", "164240.595000", "164240.598000", "164240.601000", "164240.604000", "164240.607000", "164240.610000", "164240.613000", "164240.616000", "164240.619000", "164240.622000", "164240.625000", "164240.628000", "164240.631000", "164240.634000", "164240.637000", "164240.640000", "164240.643000", "164240.646000", "164240.649000", "164240.652000", "164300.595000", "164300.598000", "164300.601000", "164300.604000", "164300.607000", "164300.610000", "164300.613000", "164300.616000", "164300.619000", "164300.622000", "164300.625000", "164300.628000", "164300.631000", "164300.634000", "164300.637000", "164300.640000", "164300.643000", "164300.646000", "164300.649000", "164300.652000", "164320.594000", "164320.597000", "164320.600000", "164320.603000", "164320.606000", "164320.609000", "164320.612000", "164320.615000", "164320.618000", "164320.621000", "164320.624000", "164320.627000", "164320.630000", "164320.633000", "164320.636000", "164320.639000", "164320.642000", "164320.645000", "164320.648000", "164320.651000", "164340.594000", "164340.597000", "164340.600000", "164340.603000", "164340.606000", "164340.609000", "164340.612000", "164340.615000", "164340.618000", "164340.621000", "164340.624000", "164340.627000", "164340.637000", "164340.640000", "164340.643000", "164340.646000", "164340.649000", "164340.652000", "164340.655000", "164340.658000", "164400.594000", "164400.597000", "164400.600000", "164400.603000", "164400.606000", "164400.609000", "164400.612000", "164400.615000", "164400.618000", "164400.621000", "164400.624000", "164400.627000", "164400.630000", "164400.633000", "164400.636000", "164400.639000", "164400.642000", "164400.645000", "164400.648000", "164400.651000", "164420.594000", "164420.597000", "164420.600000", "164420.603000", "164420.606000", "164420.609000", "164420.612000", "164420.615000", "164420.618000", "164420.621000", "164420.624000", "164420.627000", "164420.630000", "164420.633000", "164420.636000", "164420.639000", "164420.642000", "164420.645000", "164420.648000", "164420.651000", "164424.931000", "164424.934000", "164424.937000", "164424.940000", "164424.943000"],
      "InstanceCreationTime": ["164020.651000", "164020.655000", "164020.658000", "164020.661000", "164020.664000", "164020.672000", "164020.675000", "164020.678000", "164020.681000", "164020.684000", "164040.595000", "164040.598000", "164040.601000", "164040.610000", "164040.612000", "164040.615000", "164040.618000", "164040.621000", "164040.624000", "164040.633000", "164040.636000", "164040.639000", "164040.642000", "164040.645000", "164040.648000", "164040.651000", "164040.654000", "164040.657000", "164040.660000", "164040.663000", "164040.666000", "164040.669000", "164040.671000", "164040.674000", "164040.677000", "164040.680000", "164040.683000", "164040.686000", "164100.594000", "164100.597000", "164100.600000", "164100.603000", "164100.606000", "164100.609000", "164100.612000", "164100.615000", "164100.618000", "164100.621000", "164100.624000", "164100.627000", "164100.630000", "164100.633000", "164100.636000", "164100.639000", "164100.642000", "164100.644000", "164100.647000", "164100.650000", "164100.653000", "164100.656000", "164100.659000", "164100.662000", "164100.665000", "164100.668000", "164100.671000", "164100.678000", "164120.594000", "164120.597000", "164120.600000", "164120.603000", "164120.606000", "164120.609000", "164120.612000", "164120.623000", "164120.626000", "164120.629000", "164120.632000", "164120.635000", "164120.638000", "164120.641000", "164120.644000", "164120.647000", "164120.650000", "164120.653000", "164120.656000", "164120.659000", "164120.662000", "164120.665000", "164120.668000", "164120.671000", "164120.674000", "164120.677000", "164120.680000", "164120.683000", "164120.686000", "164140.594000", "164140.597000", "164140.600000", "164140.603000", "164140.606000", "164140.609000", "164140.612000", "164140.615000", "164140.618000", "164140.621000", "164140.624000", "164140.627000", "164140.630000", "164140.633000", "164140.636000", "164140.639000", "164140.642000", "164140.645000", "164140.648000", "164140.651000", "164140.654000", "164140.657000", "164140.660000", "164140.663000", "164140.666000", "164140.683000", "164140.686000", "164140.688000", "164200.594000", "164200.597000", "164200.600000", "164200.603000", "164200.606000", "164200.609000", "164200.612000", "164200.615000", "164200.618000", "164200.621000", "164200.624000", "164200.627000", "164200.630000", "164200.633000", "164200.636000", "164200.639000", "164200.642000", "164200.645000", "164200.648000", "164200.651000", "164200.654000", "164200.657000", "164200.660000", "164200.663000", "164200.666000", "164200.668000", "164200.671000", "164200.674000", "164220.594000", "164220.597000", "164220.600000", "164220.603000", "164220.606000", "164220.609000", "164220.612000", "164220.615000", "164220.628000", "164220.631000", "164220.634000", "164220.637000", "164220.640000", "164220.643000", "164220.646000", "164220.649000", "164220.652000", "164220.655000", "164220.658000", "164220.661000", "164220.664000", "164220.667000", "164220.669000", "164220.672000", "164240.595000", "164240.598000", "164240.601000", "164240.604000", "164240.607000", "164240.610000", "164240.613000", "164240.616000", "164240.619000", "164240.622000", "164240.625000", "164240.628000", "164240.631000", "164240.634000", "164240.637000", "164240.640000", "164240.643000", "164240.646000", "164240.649000", "164240.652000", "164300.595000", "164300.598000", "164300.601000", "164300.604000", "164300.607000", "164300.610000", "164300.613000", "164300.616000", "164300.619000", "164300.622000", "164300.625000", "164300.628000", "164300.631000", "164300.634000", "164300.637000", "164300.640000", "164300.643000", "164300.646000", "164300.649000", "164300.652000", "164320.594000", "164320.597000", "164320.600000", "164320.603000", "164320.606000", "164320.609000", "164320.612000", "164320.615000", "164320.618000", "164320.621000", "164320.624000", "164320.627000", "164320.630000", "164320.633000", "164320.636000", "164320.639000", "164320.642000", "164320.645000", "164320.648000", "164320.651000", "164340.594000", "164340.597000", "164340.600000", "164340.603000", "164340.606000", "164340.609000", "164340.612000", "164340.615000", "164340.618000", "164340.621000", "164340.624000", "164340.627000", "164340.637000", "164340.640000", "164340.643000", "164340.646000", "164340.649000", "164340.652000", "164340.655000", "164340.658000", "164400.594000", "164400.597000", "164400.600000", "164400.603000", "164400.606000", "164400.609000", "164400.612000", "164400.615000", "164400.618000", "164400.621000", "164400.624000", "164400.627000", "164400.630000", "164400.633000", "164400.636000", "164400.639000", "164400.642000", "164400.645000", "164400.648000", "164400.651000", "164420.594000", "164420.597000", "164420.600000", "164420.603000", "164420.606000", "164420.609000", "164420.612000", "164420.615000", "164420.618000", "164420.621000", "164420.624000", "164420.627000", "164420.630000", "164420.633000", "164420.636000", "164420.639000", "164420.642000", "164420.645000", "164420.648000", "164420.651000", "164424.931000", "164424.934000", "164424.937000", "164424.940000", "164424.943000"],
      "InstanceNumber": [1, 2, 3, 4, 5, 6, 7, 8, 9, 10, 11, 12, 13, 14, 15, 16, 17, 18, 19, 20, 21, 22, 23, 24, 25, 26, 27, 28, 29, 30, 31, 32, 33, 34, 35, 36, 37, 38, 39, 40, 41, 42, 43, 44, 45, 46, 47, 48, 49, 50, 51, 52, 53, 54, 55, 56, 57, 58, 59, 60, 61, 62, 63, 64, 65, 66, 67, 68, 69, 70, 71, 72, 73, 74, 75, 76, 77, 78, 79, 80, 81, 82, 83, 84, 85, 86, 87, 88, 89, 90, 91, 92, 93, 94, 95, 96, 97, 98, 99, 100, 101, 102, 103, 104, 105, 106, 107, 108, 109, 110, 111, 112, 113, 114, 115, 116, 117, 118, 119, 120, 121, 122, 123, 124, 125, 126, 127, 128, 129, 130, 131, 132, 133, 134, 135, 136, 137, 138, 139, 140, 141, 142, 143, 144, 145, 146, 147, 148, 149, 150, 151, 152, 153, 154, 155, 156, 157, 158, 159, 160, 161, 162, 163, 164, 165, 166, 167, 168, 169, 170, 171, 172, 173, 174, 175, 176, 177, 178, 179, 180, 181, 182, 183, 184, 185, 186, 187, 188, 189, 190, 191, 192, 193, 194, 195, 196, 197, 198, 199, 200, 201, 202, 203, 204, 205, 206, 207, 208, 209, 210, 211, 212, 213, 214, 215, 216, 217, 218, 219, 220, 221, 222, 223, 224, 225, 226, 227, 228, 229, 230, 231, 232, 233, 234, 235, 236, 237, 238, 239, 240, 241, 242, 243, 244, 245, 246, 247, 248, 249, 250, 251, 252, 253, 254, 255, 256, 257, 258, 259, 260, 261, 262, 263, 264, 265, 266, 267, 268, 269, 270, 271, 272, 273, 274, 275, 276, 277, 278, 279, 280, 281, 282, 283, 284, 285, 286, 287, 288, 289, 290, 291, 292, 293, 294, 295, 296, 297, 298, 299, 300],
      "LargestImagePixelValue": [45428, 43713, 43015, 42260, 42149, 41637, 40918, 41369, 40986, 40463, 40504, 40107, 40375, 39966, 39932, 39777, 40182, 39861, 39727, 40390, 39729, 40073, 39975, 39450, 39880, 39747, 39729, 40045, 39779, 39535, 40332, 39650, 39996, 41654, 39753, 39439, 39546, 40114, 39952, 39984, 39231, 39814, 39987, 39271, 39820, 39369, 40072, 39944, 39658, 39796, 39989, 39238, 39689, 39591, 40042, 40154, 40295, 40644, 40873, 40100, 40324, 39932, 40289, 40467, 39944, 40189, 40403, 40554, 40722, 40678, 40780, 40697, 40197, 40166, 40370, 39996, 40448, 40550, 40093, 40455, 41168, 40655, 40369, 40887, 40264, 40309, 40280, 40814, 40630, 40485, 40712, 40865, 40135, 40733, 40796, 40499, 40478, 40748, 40532, 40226, 40620, 40373, 40570, 40388, 40225, 40911, 40354, 40991, 40272, 40686, 40400, 40393, 40566, 40332, 40647, 40421, 40112, 40189, 40039, 39999, 39911, 40138, 39848, 39509, 41054, 40670, 40444, 40206, 40206, 40193, 40286, 40108, 39867, 40011, 40126, 40609, 40095, 40447, 41038, 40111, 40190, 40807, 40206, 40183, 39810, 39990, 40490, 40368, 40246, 40359, 39867, 39773, 40274, 40164, 40254, 40194, 39898, 40707, 40015, 40477, 40288, 39831, 40355, 41097, 40530, 40173, 40029, 40055, 40576, 40494, 40121, 40690, 39590, 40126, 40375, 39663, 40153, 40345, 39613, 40369, 39837, 40062, 39902, 39912, 39919, 39530, 40407, 39629, 39840, 40188, 39335, 39843, 39930, 39684, 40413, 39422, 39721, 40068, 39632, 39936, 40341, 39642, 40845, 40178, 39722, 39790, 40237, 40691, 39480, 40135, 39916, 39411, 39693, 39493, 39908, 39933, 39283, 39306, 39350, 38983, 39937, 38995, 39199, 39474, 40740, 40560, 39792, 39454, 39433, 39359, 39069, 40215, 39501, 39843, 39887, 39620, 40788, 39914, 40190, 39901, 39330, 39469, 39227, 39070, 39756, 39523, 38727, 39703, 38983, 38906, 39474, 38912, 39502, 39242, 39114, 39657, 38761, 39451, 39759, 39374, 39947, 39206, 39751, 39627, 39811, 39935, 39215, 39670, 40111, 39259, 39900, 40324, 39485, 39585, 40080, 39751, 39991, 39096, 39509, 39843, 39249, 39884, 39614, 39833, 39718, 39476, 39815, 39510, 39806, 39964, 39490, 40025, 39790, 39145, 39749, 39514, 39186, 39667, 39582, 39462],
      "WindowCenter": [10216.0, 10176.0, 10154.0, 10149.0, 10152.0, 10135.0, 10130.0, 10119.0, 10119.0, 10116.0, 10121.0, 10126.0, 10137.0, 10126.0, 10133.0, 10127.0, 10130.0, 10123.0, 10110.0, 10127.0, 10122.0, 10121.0, 10130.0, 10133.0, 10136.0, 10132.0, 10119.0, 10115.0, 10115.0, 10115.0, 10127.0, 10118.0, 10128.0, 10151.0, 10123.0, 10107.0, 10113.0, 10118.0, 10106.0, 10113.0, 10109.0, 10118.0, 10132.0, 10129.0, 10144.0, 10137.0, 10133.0, 10118.0, 10102.0, 10099.0, 10097.0, 10091.0, 10099.0, 10115.0, 10125.0, 10130.0, 10127.0, 10117.0, 10113.0, 10102.0, 10106.0, 10093.0, 10082.0, 10073.0, 10068.0, 10088.0, 10091.0, 10096.0, 10096.0, 10102.0, 10111.0, 10118.0, 10112.0, 10108.0, 10106.0, 10098.0, 10096.0, 10095.0, 10089.0, 10111.0, 10131.0, 10129.0, 10125.0, 10138.0, 10125.0, 10126.0, 10118.0, 10124.0, 10124.0, 10122.0, 10124.0, 10123.0, 10112.0, 10124.0, 10118.0, 10124.0, 10117.0, 10117.0, 10117.0, 10109.0, 10108.0, 10110.0, 10115.0, 10102.0, 10109.0, 10118.0, 10116.0, 10122.0, 10110.0, 10109.0, 10108.0, 10114.0, 10122.0, 10117.0, 10107.0, 10100.0, 10092.0, 10097.0, 10114.0, 10117.0, 10119.0, 10124.0, 10109.0, 10099.0, 10120.0, 10123.0, 10123.0, 10126.0, 10129.0, 10116.0, 10103.0, 10086.0, 10085.0, 10081.0, 10076.0, 10095.0, 10090.0, 10098.0, 10103.0, 10084.0, 10091.0, 10104.0, 10098.0, 10098.0, 10078.0, 10075.0, 10093.0, 10097.0, 10115.0, 10123.0, 10109.0, 10102.0, 10096.0, 10088.0, 10096.0, 10104.0, 10105.0, 10119.0, 10116.0, 10116.0, 10114.0, 10094.0, 10098.0, 10109.0, 10101.0, 10088.0, 10091.0, 10081.0, 10094.0, 10109.0, 10103.0, 10113.0, 10096.0, 10093.0, 10091.0, 10087.0, 10108.0, 10122.0, 10112.0, 10125.0, 10098.0, 10104.0, 10094.0, 10095.0, 10101.0, 10089.0, 10102.0, 10090.0, 10091.0, 10108.0, 10091.0, 10101.0, 10094.0, 10088.0, 10098.0, 10081.0, 10090.0, 10102.0, 10096.0, 10103.0, 10107.0, 10095.0, 10120.0, 10123.0, 10118.0, 10118.0, 10132.0, 10136.0, 10121.0, 10134.0, 10126.0, 10107.0, 10111.0, 10105.0, 10125.0, 10126.0, 10107.0, 10105.0, 10089.0, 10090.0, 10098.0, 10072.0, 10056.0, 10077.0, 10105.0, 10105.0, 10094.0, 10092.0, 10090.0, 10097.0, 10091.0, 10099.0, 10072.0, 10075.0, 10073.0, 10067.0, 10094.0, 10096.0, 10111.0, 10108.0, 10096.0, 10105.0, 10118.0, 10123.0, 10130.0, 10126.0, 10109.0, 10134.0, 10118.0, 10116.0, 10108.0, 10092.0, 10089.0, 10080.0, 10076.0, 10086.0, 10075.0, 10094.0, 10093.0, 10095.0, 10107.0, 10097.0, 10102.0, 10093.0, 10099.0, 10106.0, 10095.0, 10115.0, 10122.0, 10111.0, 10130.0, 10130.0, 10112.0, 10125.0, 10131.0, 10135.0, 10137.0, 10115.0, 10110.0, 10111.0, 10089.0, 10092.0, 10076.0, 10070.0, 10069.0, 10071.0, 10087.0, 10087.0, 10093.0, 10093.0, 10081.0, 10092.0, 10092.0, 10089.0, 10114.0, 10115.0, 10109.0, 10107.0, 10089.0, 10081.0],
