{
  "AcquisitionMatrixPE": 104,
  "AcquisitionNumber": 1,
  "AcquisitionTime": "16:26:47.400000",
  "BandwidthPerPixelPhaseEncode": 16.297,
  "BaseResolution": 104,
  "BodyPartExamined": "BRAIN",
  "ConsistencyInfo": "N4_VE11C_LATEST_20160120",
  "ConversionSoftware": "dcm2niix",
  "ConversionSoftwareVersion": "v1.0.20210317",
  "DerivedVendorReportedEchoSpacing": 0.000590009,
  "DeviceSerialNumber": "166018",
  "DwellTime": 2.1e-06,
  "EchoTime": 0.0376,
  "EchoTrainLength": 104,
  "EffectiveEchoSpacing": 0.000590009,
  "FlipAngle": 68,
  "ImageComments": "Unaliased MB6/PE3/LB",
  "ImageOrientationPatientDICOM": [0.995433, 0.0954603, 0.00114202, -0.0940961, 0.983086, -0.157122],
  "ImageType": [
    "ORIGINAL",
    "PRIMARY",
    "M",
    "MB",
    "ND",
    "MOSAIC"
],
  "ImagingFrequency": 123.197,
  "InPlanePhaseEncodingDirectionDICOM": "COL",
  "InstitutionAddress": "Washington Place 6,NYC,NYC,US,10003",
  "InstitutionName": "NYU - CBI",
  "InstitutionalDepartmentName": "Department",
  "MRAcquisitionType": "2D",
  "MagneticFieldStrength": 3,
  "Manufacturer": "Siemens",
  "ManufacturersModelName": "Prisma",
  "Modality": "MR",
  "MultibandAccelerationFactor": 6,
  "PartialFourier": 1,
  "PatientPosition": "HFS",
  "PercentPhaseFOV": 100,
  "PercentSampling": 100,
  "PhaseEncodingDirection": "j",
  "PhaseEncodingSteps": 104,
  "PhaseResolution": 1,
  "PixelBandwidth": 2290,
  "ProcedureStepDescription": "Investigators^Winawer",
  "ProtocolName": "cmrr_mbepi_s6_2mm_66sl_PA_task-bar2",
  "PulseSequenceDetails": "%CustomerSeq%\\cmrr_mbep2d_bold",
  "ReceiveCoilActiveElements": "HC1-7",
  "ReceiveCoilName": "HeadNeck_64",
  "ReconMatrixPE": 104,
  "RepetitionTime": 1,
  "SAR": 0.0980414,
  "ScanOptions": "FS",
  "ScanningSequence": "EP",
  "SequenceName": "epfid2d1_104",
  "SequenceVariant": "SK\\SS",
  "SeriesDescription": "cmrr_mbepi_s6_2mm_66sl_PA_task-bar2",
  "SeriesNumber": 12,
  "ShimSetting": [325, -12623, -8419, 341, 82, -188, -22, 57],
  "SliceThickness": 2,
  "SliceTiming": [0, 0.5325, 0.0875, 0.6225, 0.1775, 0.7125, 0.265, 0.8, 0.355, 0.89, 0.445, 0, 0.5325, 0.0875, 0.6225, 0.1775, 0.7125, 0.265, 0.8, 0.355, 0.89, 0.445, 0, 0.5325, 0.0875, 0.6225, 0.1775, 0.7125, 0.265, 0.8, 0.355, 0.89, 0.445, 0, 0.5325, 0.0875, 0.6225, 0.1775, 0.7125, 0.265, 0.8, 0.355, 0.89, 0.445, 0, 0.5325, 0.0875, 0.6225, 0.1775, 0.7125, 0.265, 0.8, 0.355, 0.89, 0.445, 0, 0.5325, 0.0875, 0.6225, 0.1775, 0.7125, 0.265, 0.8, 0.355, 0.89, 0.445],
  "SoftwareVersions": "syngo MR E11",
  "SpacingBetweenSlices": 2,
  "StationName": "AWP166018",
  "TaskName": "bar2",
  "TotalReadoutTime": 0.060771,
  "TxRefAmp": 250.654,
  "VendorReportedEchoSpacing": 0.00059,
  "WipMemBlock": "6a02d2d4-1d64-4a65-84ff-60e94333d340||Sequence: R016 ve11c/master r/8780670; Nov 27 2017 15:05:12 by eja",
  "dcmmeta_affine": [
    [-1.9908651113510132, -0.18819214403629303, 0.03224321827292442, 115.54850769042969],
    [-0.1909206360578537, 1.9661725759506226, -0.31259363889694214, -63.16032791137695],
    [0.0022840318270027637, 0.3142438530921936, 1.9751570224761963, -48.55057907104492],
    [0.0, 0.0, 0.0, 1.0]
],
  "dcmmeta_reorient_transform": [
    [0.0, -1.0, 0.0, 103.0],
    [1.0, 0.0, 0.0, 0.0],
    [0.0, 0.0, 1.0, 0.0],
    [0.0, 0.0, 0.0, 1.0]
],
  "dcmmeta_shape": [104, 104, 66, 300],
  "dcmmeta_slice_dim": 2,
  "dcmmeta_version": 0.6,
  "global": {
    "const": {
      "AccessionNumber": "Leq8op5o",
      "AcquisitionMatrix": [104, 0, 0, 104],
      "AngioFlag": "N",
      "BitsAllocated": 16,
      "BitsStored": 16,
      "BodyPartExamined": "BRAIN",
      "Columns": 936,
      "EchoNumbers": 1,
      "EchoTime": 37.6,
      "EchoTrainLength": 104,
      "FlipAngle": 68.0,
      "HighBit": 15,
      "ImageOrientationPatient": [0.99543258116613, 0.09546031716118, 0.00114201594585, -0.0940960683812, 0.98308627875645, -0.1571219222006],
      "ImagePositionPatient": [-846.07669379734, -1036.7062135103, 113.59181963479],
      "ImageType": [
        "ORIGINAL",
        "PRIMARY",
        "M",
        "MB",
        "ND",
        "MOSAIC"
],
      "ImagedNucleus": "1H",
      "ImagingFrequency": 123.196767,
      "InPlanePhaseEncodingDirection": "COL",
      "MRAcquisitionType": "2D",
      "MagneticFieldStrength": 3.0,
      "Manufacturer": "SIEMENS",
      "ManufacturerModelName": "Prisma",
      "Modality": "MR",
      "NumberOfAverages": 1.0,
      "NumberOfPhaseEncodingSteps": 104,
      "PercentPhaseFieldOfView": 100.0,
      "PercentSampling": 100.0,
      "PerformedProcedureStepStartTime": "155918.156000",
      "PhotometricInterpretation": "MONOCHROME2",
      "PixelBandwidth": 2290.0,
      "PixelRepresentation": 0,
      "PixelSpacing": [2.0, 2.0],
      "ProtocolName": "cmrr_mbepi_s6_2mm_66sl_PA_task-bar2",
      "RepetitionTime": 1000.0,
      "Rows": 936,
      "SAR": 0.09804142123823,
      "SamplesPerPixel": 1,
      "ScanOptions": "FS",
      "ScanningSequence": "EP",
      "SequenceName": "epfid2d1_104",
      "SequenceVariant": [
        "SK",
        "SS"
],
      "SeriesDescription": "cmrr_mbepi_s6_2mm_66sl_PA_task-bar2",
      "SeriesNumber": 12,
      "SeriesTime": "162806.161000",
      "SliceLocation": -36.212923632949,
      "SliceThickness": 2.0,
      "SmallestImagePixelValue": 0,
      "SoftwareVersions": "syngo MR E11",
      "SpacingBetweenSlices": 1.9999999453159,
      "SpecificCharacterSet": "ISO_IR 100",
      "StudyID": "1",
      "StudyTime": "155918.089000",
      "TransmitCoilName": "Body",
      "VariableFlipAngleFlag": "N",
      "WindowCenterWidthExplanation": "Algo1",
      "dBdt": 0.0},
    "slices": {}
  },
  "time": {
    "samples": {
      "AcquisitionNumber": [1, 2, 3, 4, 5, 6, 7, 8, 9, 10, 11, 12, 13, 14, 15, 16, 17, 18, 19, 20, 21, 22, 23, 24, 25, 26, 27, 28, 29, 30, 31, 32, 33, 34, 35, 36, 37, 38, 39, 40, 41, 42, 43, 44, 45, 46, 47, 48, 49, 50, 51, 52, 53, 54, 55, 56, 57, 58, 59, 60, 61, 62, 63, 64, 65, 66, 67, 68, 69, 70, 71, 72, 73, 74, 75, 76, 77, 78, 79, 80, 81, 82, 83, 84, 85, 86, 87, 88, 89, 90, 91, 92, 93, 94, 95, 96, 97, 98, 99, 100, 101, 102, 103, 104, 105, 106, 107, 108, 109, 110, 111, 112, 113, 114, 115, 116, 117, 118, 119, 120, 121, 122, 123, 124, 125, 126, 127, 128, 129, 130, 131, 132, 133, 134, 135, 136, 137, 138, 139, 140, 141, 142, 143, 144, 145, 146, 147, 148, 149, 150, 151, 152, 153, 154, 155, 156, 157, 158, 159, 160, 161, 162, 163, 164, 165, 166, 167, 168, 169, 170, 171, 172, 173, 174, 175, 176, 177, 178, 179, 180, 181, 182, 183, 184, 185, 186, 187, 188, 189, 190, 191, 192, 193, 194, 195, 196, 197, 198, 199, 200, 201, 202, 203, 204, 205, 206, 207, 208, 209, 210, 211, 212, 213, 214, 215, 216, 217, 218, 219, 220, 221, 222, 223, 224, 225, 226, 227, 228, 229, 230, 231, 232, 233, 234, 235, 236, 237, 238, 239, 240, 241, 242, 243, 244, 245, 246, 247, 248, 249, 250, 251, 252, 253, 254, 255, 256, 257, 258, 259, 260, 261, 262, 263, 264, 265, 266, 267, 268, 269, 270, 271, 272, 273, 274, 275, 276, 277, 278, 279, 280, 281, 282, 283, 284, 285, 286, 287, 288, 289, 290, 291, 292, 293, 294, 295, 296, 297, 298, 299, 300],
      "AcquisitionTime": ["162647.400000", "162648.400000", "162649.400000", "162650.400000", "162651.400000", "162652.400000", "162653.400000", "162654.400000", "162655.400000", "162656.400000", "162657.400000", "162658.400000", "162659.400000", "162700.400000", "162701.400000", "162702.400000", "162703.400000", "162704.400000", "162705.400000", "162706.400000", "162707.400000", "162708.400000", "162709.400000", "162710.400000", "162711.400000", "162712.400000", "162713.400000", "162714.400000", "162715.400000", "162716.400000", "162717.400000", "162718.400000", "162719.400000", "162720.400000", "162721.400000", "162722.400000", "162723.400000", "162724.400000", "162725.400000", "162726.400000", "162727.400000", "162728.400000", "162729.400000", "162730.400000", "162731.400000", "162732.400000", "162733.400000", "162734.400000", "162735.400000", "162736.400000", "162737.400000", "162738.400000", "162739.400000", "162740.400000", "162741.400000", "162742.400000", "162743.400000", "162744.400000", "162745.400000", "162746.400000", "162747.400000", "162748.400000", "162749.400000", "162750.400000", "162751.400000", "162752.400000", "162753.400000", "162754.400000", "162755.400000", "162756.400000", "162757.400000", "162758.400000", "162759.400000", "162800.400000", "162801.400000", "162802.400000", "162803.400000", "162804.400000", "162805.400000", "162806.400000", "162807.400000", "162808.400000", "162809.400000", "162810.400000", "162811.400000", "162812.400000", "162813.400000", "162814.400000", "162815.400000", "162816.400000", "162817.400000", "162818.400000", "162819.400000", "162820.400000", "162821.400000", "162822.400000", "162823.400000", "162824.400000", "162825.400000", "162826.400000", "162827.400000", "162828.400000", "162829.400000", "162830.400000", "162831.400000", "162832.400000", "162833.400000", "162834.400000", "162835.400000", "162836.400000", "162837.400000", "162838.400000", "162839.400000", "162840.400000", "162841.400000", "162842.400000", "162843.400000", "162844.400000", "162845.400000", "162846.400000", "162847.400000", "162848.400000", "162849.400000", "162850.400000", "162851.400000", "162852.400000", "162853.400000", "162854.400000", "162855.400000", "162856.400000", "162857.400000", "162858.400000", "162859.400000", "162900.400000", "162901.400000", "162902.400000", "162903.400000", "162904.400000", "162905.400000", "162906.400000", "162907.400000", "162908.400000", "162909.400000", "162910.400000", "162911.400000", "162912.400000", "162913.400000", "162914.400000", "162915.400000", "162916.400000", "162917.400000", "162918.400000", "162919.400000", "162920.400000", "162921.400000", "162922.400000", "162923.400000", "162924.400000", "162925.400000", "162926.400000", "162927.400000", "162928.400000", "162929.400000", "162930.400000", "162931.400000", "162932.400000", "162933.400000", "162934.400000", "162935.400000", "162936.400000", "162937.400000", "162938.400000", "162939.400000", "162940.400000", "162941.400000", "162942.400000", "162943.400000", "162944.400000", "162945.400000", "162946.400000", "162947.400000", "162948.400000", "162949.400000", "162950.400000", "162951.400000", "162952.400000", "162953.400000", "162954.400000", "162955.400000", "162956.400000", "162957.400000", "162958.400000", "162959.400000", "163000.400000", "163001.400000", "163002.400000", "163003.400000", "163004.400000", "163005.400000", "163006.400000", "163007.400000", "163008.400000", "163009.400000", "163010.400000", "163011.400000", "163012.400000", "163013.400000", "163014.400000", "163015.400000", "163016.400000", "163017.400000", "163018.400000", "163019.400000", "163020.400000", "163021.400000", "163022.400000", "163023.400000", "163024.400000", "163025.400000", "163026.400000", "163027.400000", "163028.400000", "163029.400000", "163030.400000", "163031.400000", "163032.400000", "163033.400000", "163034.400000", "163035.400000", "163036.400000", "163037.400000", "163038.400000", "163039.400000", "163040.400000", "163041.400000", "163042.400000", "163043.400000", "163044.400000", "163045.400000", "163046.400000", "163047.400000", "163048.400000", "163049.400000", "163050.400000", "163051.400000", "163052.400000", "163053.400000", "163054.400000", "163055.400000", "163056.400000", "163057.400000", "163058.400000", "163059.400000", "163100.400000", "163101.400000", "163102.400000", "163103.400000", "163104.400000", "163105.400000", "163106.400000", "163107.400000", "163108.400000", "163109.400000", "163110.400000", "163111.400000", "163112.400000", "163113.400000", "163114.400000", "163115.400000", "163116.400000", "163117.400000", "163118.400000", "163119.400000", "163120.400000", "163121.400000", "163122.400000", "163123.400000", "163124.400000", "163125.400000", "163126.400000", "163127.400000", "163128.400000", "163129.400000", "163130.400000", "163131.400000", "163132.400000", "163133.400000", "163134.400000", "163135.400000", "163136.400000", "163137.400000", "163138.400000", "163139.400000", "163140.400000", "163141.400000", "163142.400000", "163143.400000", "163144.400000", "163145.400000", "163146.400000"],
      "ContentTime": ["162806.163000", "162806.174000", "162806.177000", "162806.179000", "162806.182000", "162806.185000", "162806.188000", "162806.191000", "162806.194000", "162806.197000", "162806.200000", "162806.203000", "162806.213000", "162806.216000", "162806.219000", "162806.222000", "162806.225000", "162806.228000", "162806.231000", "162806.234000", "162806.237000", "162806.240000", "162806.243000", "162806.246000", "162806.249000", "162806.252000", "162806.255000", "162806.258000", "162806.261000", "162806.264000", "162806.267000", "162806.270000", "162826.131000", "162826.134000", "162826.137000", "162826.140000", "162826.143000", "162826.146000", "162826.149000", "162826.152000", "162826.155000", "162826.158000", "162826.174000", "162826.177000", "162826.180000", "162826.183000", "162826.186000", "162826.207000", "162826.210000", "162826.213000", "162826.216000", "162826.219000", "162826.222000", "162826.225000", "162826.228000", "162826.231000", "162826.234000", "162826.237000", "162826.240000", "162826.246000", "162846.130000", "162846.133000", "162846.136000", "162846.139000", "162846.142000", "162846.145000", "162846.148000", "162846.162000", "162846.165000", "162846.168000", "162846.170000", "162846.174000", "162846.177000", "162846.180000", "162846.183000", "162846.186000", "162846.189000", "162846.192000", "162846.195000", "162846.198000", "162846.201000", "162846.204000", "162846.206000", "162846.209000", "162846.213000", "162846.215000", "162846.218000", "162846.221000", "162906.130000", "162906.133000", "162906.136000", "162906.139000", "162906.142000", "162906.145000", "162906.156000", "162906.159000", "162906.162000", "162906.165000", "162906.168000", "162906.171000", "162906.174000", "162906.177000", "162906.180000", "162906.183000", "162906.186000", "162906.189000", "162906.192000", "162906.195000", "162906.198000", "162906.201000", "162906.204000", "162906.206000", "162906.210000", "162906.212000", "162906.215000", "162906.218000", "162906.221000", "162926.130000", "162926.133000", "162926.136000", "162926.139000", "162926.142000", "162926.145000", "162926.148000", "162926.151000", "162926.154000", "162926.157000", "162926.160000", "162926.163000", "162926.166000", "162926.169000", "162926.172000", "162926.175000", "162926.178000", "162926.181000", "162926.184000", "162926.187000", "162926.190000", "162926.193000", "162926.196000", "162926.199000", "162926.202000", "162926.205000", "162926.208000", "162926.211000", "162946.130000", "162946.133000", "162946.136000", "162946.139000", "162946.142000", "162946.145000", "162946.148000", "162946.152000", "162946.154000", "162946.158000", "162946.160000", "162946.163000", "162946.167000", "162946.170000", "162946.172000", "162946.175000", "162946.178000", "162946.182000", "162946.185000", "162946.188000", "162946.191000", "162946.194000", "162946.198000", "162946.201000", "162946.204000", "162946.207000", "162946.210000", "162946.213000", "163006.130000", "163006.133000", "163006.136000", "163006.139000", "163006.142000", "163006.145000", "163006.149000", "163006.152000", "163006.155000", "163006.158000", "163006.161000", "163006.164000", "163006.166000", "163006.169000", "163006.172000", "163006.175000", "163006.178000", "163006.181000", "163006.184000", "163006.187000", "163006.190000", "163006.193000", "163006.196000", "163006.199000", "163026.131000", "163026.134000", "163026.137000", "163026.140000", "163026.143000", "163026.146000", "163026.149000", "163026.152000", "163026.156000", "163026.159000", "163026.162000", "163026.165000", "163026.168000", "163026.171000", "163026.173000", "163026.176000", "163026.179000", "163026.183000", "163026.186000", "163026.189000", "163046.131000", "163046.134000", "163046.137000", "163046.140000", "163046.143000", "163046.146000", "163046.149000", "163046.152000", "163046.155000", "163046.158000", "163046.161000", "163046.164000", "163046.167000", "163046.187000", "163046.190000", "163046.193000", "163046.196000", "163046.198000", "163046.201000", "163046.204000", "163106.130000", "163106.133000", "163106.136000", "163106.139000", "163106.142000", "163106.145000", "163106.160000", "163106.163000", "163106.166000", "163106.169000", "163106.172000", "163106.175000", "163106.178000", "163106.181000", "163106.184000", "163106.187000", "163106.190000", "163106.193000", "163106.196000", "163106.199000", "163126.130000", "163126.133000", "163126.136000", "163126.139000", "163126.142000", "163126.145000", "163126.148000", "163126.151000", "163126.155000", "163126.158000", "163126.161000", "163126.164000", "163126.167000", "163126.170000", "163126.173000", "163126.176000", "163126.179000", "163126.182000", "163126.185000", "163126.187000", "163146.130000", "163146.133000", "163146.136000", "163146.139000", "163146.142000", "163146.145000", "163146.148000", "163146.151000", "163146.154000", "163146.157000", "163146.160000", "163146.163000", "163146.166000", "163146.169000", "163146.172000", "163146.175000", "163146.178000", "163146.181000", "163146.184000", "163146.187000", "163148.288000", "163148.291000", "163148.294000"],
      "InstanceCreationTime": ["162806.163000", "162806.174000", "162806.177000", "162806.179000", "162806.182000", "162806.185000", "162806.188000", "162806.191000", "162806.194000", "162806.197000", "162806.200000", "162806.203000", "162806.213000", "162806.216000", "162806.219000", "162806.222000", "162806.225000", "162806.228000", "162806.231000", "162806.234000", "162806.237000", "162806.240000", "162806.243000", "162806.246000", "162806.249000", "162806.252000", "162806.255000", "162806.258000", "162806.261000", "162806.264000", "162806.267000", "162806.270000", "162826.131000", "162826.134000", "162826.137000", "162826.140000", "162826.143000", "162826.146000", "162826.149000", "162826.152000", "162826.155000", "162826.158000", "162826.174000", "162826.177000", "162826.180000", "162826.183000", "162826.186000", "162826.207000", "162826.210000", "162826.213000", "162826.216000", "162826.219000", "162826.222000", "162826.225000", "162826.228000", "162826.231000", "162826.234000", "162826.237000", "162826.240000", "162826.246000", "162846.130000", "162846.133000", "162846.136000", "162846.139000", "162846.142000", "162846.145000", "162846.148000", "162846.162000", "162846.165000", "162846.168000", "162846.170000", "162846.174000", "162846.177000", "162846.180000", "162846.183000", "162846.186000", "162846.189000", "162846.192000", "162846.195000", "162846.198000", "162846.201000", "162846.204000", "162846.206000", "162846.209000", "162846.213000", "162846.215000", "162846.218000", "162846.221000", "162906.130000", "162906.133000", "162906.136000", "162906.139000", "162906.142000", "162906.145000", "162906.156000", "162906.159000", "162906.162000", "162906.165000", "162906.168000", "162906.171000", "162906.174000", "162906.177000", "162906.180000", "162906.183000", "162906.186000", "162906.189000", "162906.192000", "162906.195000", "162906.198000", "162906.201000", "162906.204000", "162906.206000", "162906.210000", "162906.212000", "162906.215000", "162906.218000", "162906.221000", "162926.130000", "162926.133000", "162926.136000", "162926.139000", "162926.142000", "162926.145000", "162926.148000", "162926.151000", "162926.154000", "162926.157000", "162926.160000", "162926.163000", "162926.166000", "162926.169000", "162926.172000", "162926.175000", "162926.178000", "162926.181000", "162926.184000", "162926.187000", "162926.190000", "162926.193000", "162926.196000", "162926.199000", "162926.202000", "162926.205000", "162926.208000", "162926.211000", "162946.130000", "162946.133000", "162946.136000", "162946.139000", "162946.142000", "162946.145000", "162946.148000", "162946.152000", "162946.154000", "162946.158000", "162946.160000", "162946.163000", "162946.167000", "162946.170000", "162946.172000", "162946.175000", "162946.178000", "162946.182000", "162946.185000", "162946.188000", "162946.191000", "162946.194000", "162946.198000", "162946.201000", "162946.204000", "162946.207000", "162946.210000", "162946.213000", "163006.130000", "163006.133000", "163006.136000", "163006.139000", "163006.142000", "163006.145000", "163006.149000", "163006.152000", "163006.155000", "163006.158000", "163006.161000", "163006.164000", "163006.166000", "163006.169000", "163006.172000", "163006.175000", "163006.178000", "163006.181000", "163006.184000", "163006.187000", "163006.190000", "163006.193000", "163006.196000", "163006.199000", "163026.131000", "163026.134000", "163026.137000", "163026.140000", "163026.143000", "163026.146000", "163026.149000", "163026.152000", "163026.156000", "163026.159000", "163026.162000", "163026.165000", "163026.168000", "163026.171000", "163026.173000", "163026.176000", "163026.179000", "163026.183000", "163026.186000", "163026.189000", "163046.131000", "163046.134000", "163046.137000", "163046.140000", "163046.143000", "163046.146000", "163046.149000", "163046.152000", "163046.155000", "163046.158000", "163046.161000", "163046.164000", "163046.167000", "163046.187000", "163046.190000", "163046.193000", "163046.196000", "163046.198000", "163046.201000", "163046.204000", "163106.130000", "163106.133000", "163106.136000", "163106.139000", "163106.142000", "163106.145000", "163106.160000", "163106.163000", "163106.166000", "163106.169000", "163106.172000", "163106.175000", "163106.178000", "163106.181000", "163106.184000", "163106.187000", "163106.190000", "163106.193000", "163106.196000", "163106.199000", "163126.130000", "163126.133000", "163126.136000", "163126.139000", "163126.142000", "163126.145000", "163126.148000", "163126.151000", "163126.155000", "163126.158000", "163126.161000", "163126.164000", "163126.167000", "163126.170000", "163126.173000", "163126.176000", "163126.179000", "163126.182000", "163126.185000", "163126.187000", "163146.130000", "163146.133000", "163146.136000", "163146.139000", "163146.142000", "163146.145000", "163146.148000", "163146.151000", "163146.154000", "163146.157000", "163146.160000", "163146.163000", "163146.166000", "163146.169000", "163146.172000", "163146.175000", "163146.178000", "163146.181000", "163146.184000", "163146.187000", "163148.288000", "163148.291000", "163148.294000"],
      "InstanceNumber": [1, 2, 3, 4, 5, 6, 7, 8, 9, 10, 11, 12, 13, 14, 15, 16, 17, 18, 19, 20, 21, 22, 23, 24, 25, 26, 27, 28, 29, 30, 31, 32, 33, 34, 35, 36, 37, 38, 39, 40, 41, 42, 43, 44, 45, 46, 47, 48, 49, 50, 51, 52, 53, 54, 55, 56, 57, 58, 59, 60, 61, 62, 63, 64, 65, 66, 67, 68, 69, 70, 71, 72, 73, 74, 75, 76, 77, 78, 79, 80, 81, 82, 83, 84, 85, 86, 87, 88, 89, 90, 91, 92, 93, 94, 95, 96, 97, 98, 99, 100, 101, 102, 103, 104, 105, 106, 107, 108, 109, 110, 111, 112, 113, 114, 115, 116, 117, 118, 119, 120, 121, 122, 123, 124, 125, 126, 127, 128, 129, 130, 131, 132, 133, 134, 135, 136, 137, 138, 139, 140, 141, 142, 143, 144, 145, 146, 147, 148, 149, 150, 151, 152, 153, 154, 155, 156, 157, 158, 159, 160, 161, 162, 163, 164, 165, 166, 167, 168, 169, 170, 171, 172, 173, 174, 175, 176, 177, 178, 179, 180, 181, 182, 183, 184, 185, 186, 187, 188, 189, 190, 191, 192, 193, 194, 195, 196, 197, 198, 199, 200, 201, 202, 203, 204, 205, 206, 207, 208, 209, 210, 211, 212, 213, 214, 215, 216, 217, 218, 219, 220, 221, 222, 223, 224, 225, 226, 227, 228, 229, 230, 231, 232, 233, 234, 235, 236, 237, 238, 239, 240, 241, 242, 243, 244, 245, 246, 247, 248, 249, 250, 251, 252, 253, 254, 255, 256, 257, 258, 259, 260, 261, 262, 263, 264, 265, 266, 267, 268, 269, 270, 271, 272, 273, 274, 275, 276, 277, 278, 279, 280, 281, 282, 283, 284, 285, 286, 287, 288, 289, 290, 291, 292, 293, 294, 295, 296, 297, 298, 299, 300],
      "LargestImagePixelValue": [42823, 41900, 41101, 40438, 40269, 39441, 40110, 39798, 39246, 39885, 39224, 39291, 39426, 39203, 39549, 39729, 39539, 39555, 39707, 39119, 39835, 39247, 39528, 40041, 39088, 39173, 39001, 39289, 39565, 38985, 39139, 38784, 38973, 38902, 38796, 39135, 38977, 39229, 38924, 38811, 38951, 38931, 38837, 38701, 38941, 39003, 38878, 38763, 38427, 38497, 38908, 38643, 38780, 38750, 38954, 37959, 37844, 38294, 38083, 38693, 38220, 38325, 38964, 38661, 38715, 39006, 38949, 39038, 39276, 39124, 39338, 39055, 38981, 39082, 39010, 38980, 39200, 39263, 39085, 38897, 39229, 39070, 38844, 38745, 38839, 38973, 38795, 38909, 39215, 38812, 39060, 39238, 38703, 38864, 38848, 38912, 38968, 39055, 38859, 39528, 38946, 39149, 38981, 38769, 38611, 38782, 38618, 39055, 39105, 38538, 38559, 38530, 38481, 39046, 38697, 37757, 38044, 38630, 38669, 38795, 38630, 38677, 38634, 38958, 38600, 38547, 38673, 38725, 38643, 38741, 38883, 38490, 38332, 38765, 38604, 38591, 38881, 38815, 38749, 38894, 38996, 39090, 38715, 38947, 38923, 38962, 39102, 39319, 39249, 39038, 39473, 39173, 38833, 39113, 39216, 39012, 39075, 38825, 39366, 39720, 39076, 39530, 38966, 39268, 39033, 39129, 38996, 39437, 39378, 39380, 39062, 39298, 39026, 39664, 39045, 39408, 38851, 38990, 39210, 39042, 39241, 39088, 39110, 39685, 39586, 39191, 39165, 39225, 39108, 39476, 39250, 39312, 39374, 39062, 39079, 39333, 39211, 39264, 39638, 38901, 38933, 39331, 38918, 39446, 38922, 38962, 39401, 39139, 39269, 39400, 38478, 38966, 39265, 39408, 39701, 39238, 39006, 39220, 39354, 39132, 39116, 39400, 39160, 39229, 39400, 39646, 39660, 39094, 39594, 39545, 39939, 39311, 39598, 39688, 39477, 39889, 39436, 39639, 39362, 39099, 39905, 39410, 39493, 39933, 39879, 39942, 39718, 39256, 39598, 39392, 39553, 40181, 39831, 39556, 39225, 39568, 39582, 39021, 39369, 39097, 39473, 39680, 39188, 39729, 39214, 39393, 39759, 39001, 39897, 39943, 39815, 39654, 39447, 40090, 39161, 39568, 39845, 39272, 39976, 39388, 39297, 39239, 38900, 39558, 38958, 39048, 39851, 39120, 39733, 39466, 39330, 39616, 39653, 39358, 39729, 39614, 39377, 39927, 39816, 39814],
      "WindowCenter": [10149.0, 10101.0, 10069.0, 10056.0, 10067.0, 10068.0, 10096.0, 10100.0, 10101.0, 10107.0, 10088.0, 10080.0, 10063.0, 10054.0, 10063.0, 10064.0, 10066.0, 10074.0, 10068.0, 10061.0, 10066.0, 10066.0, 10074.0, 10081.0, 10064.0, 10062.0, 10055.0, 10068.0, 10077.0, 10078.0, 10080.0, 10075.0, 10078.0, 10071.0, 10059.0, 10068.0, 10069.0, 10081.0, 10081.0, 10083.0, 10081.0, 10067.0, 10051.0, 10041.0, 10052.0, 10063.0, 10074.0, 10075.0, 10061.0, 10050.0, 10037.0, 10019.0, 10018.0, 10018.0, 10031.0, 10024.0, 10034.0, 10045.0, 10041.0, 10048.0, 10050.0, 10057.0, 10055.0, 10048.0, 10041.0, 10045.0, 10047.0, 10046.0, 10056.0, 10058.0, 10057.0, 10059.0, 10058.0, 10052.0, 10050.0, 10042.0, 10041.0, 10040.0, 10032.0, 10046.0, 10049.0, 10064.0, 10068.0, 10062.0, 10059.0, 10049.0, 10040.0, 10054.0, 10062.0, 10067.0, 10075.0, 10078.0, 10064.0, 10057.0, 10055.0, 10062.0, 10076.0, 10087.0, 10091.0, 10103.0, 10089.0, 10088.0, 10082.0, 10072.0, 10064.0, 10066.0, 10079.0, 10080.0, 10074.0, 10056.0, 10052.0, 10035.0, 10027.0, 10036.0, 10038.0, 10028.0, 10033.0, 10038.0, 10046.0, 10047.0, 10049.0, 10056.0, 10050.0, 10048.0, 10042.0, 10028.0, 10035.0, 10034.0, 10041.0, 10057.0, 10063.0, 10048.0, 10045.0, 10036.0, 10034.0, 10034.0, 10039.0, 10044.0, 10058.0, 10074.0, 10083.0, 10069.0, 10062.0, 10053.0, 10043.0, 10028.0, 10026.0, 10037.0, 10038.0, 10032.0, 10046.0, 10041.0, 10043.0, 10051.0, 10057.0, 10057.0, 10049.0, 10042.0, 10062.0, 10072.0, 10075.0, 10081.0, 10063.0, 10060.0, 10051.0, 10048.0, 10054.0, 10064.0, 10073.0, 10080.0, 10074.0, 10081.0, 10082.0, 10094.0, 10085.0, 10089.0, 10071.0, 10076.0, 10068.0, 10053.0, 10050.0, 10034.0, 10035.0, 10053.0, 10062.0, 10055.0, 10051.0, 10056.0, 10051.0, 10049.0, 10046.0, 10038.0, 10030.0, 10032.0, 10039.0, 10056.0, 10065.0, 10079.0, 10087.0, 10077.0, 10069.0, 10065.0, 10060.0, 10071.0, 10076.0, 10083.0, 10083.0, 10072.0, 10066.0, 10043.0, 10027.0, 10030.0, 10036.0, 10044.0, 10068.0, 10074.0, 10070.0, 10068.0, 10054.0, 10052.0, 10043.0, 10041.0, 10036.0, 10040.0, 10042.0, 10048.0, 10051.0, 10054.0, 10066.0, 10067.0, 10073.0, 10071.0, 10082.0, 10077.0, 10085.0, 10091.0, 10087.0, 10085.0, 10077.0, 10072.0, 10078.0, 10061.0, 10068.0, 10080.0, 10081.0, 10088.0, 10082.0, 10082.0, 10079.0, 10065.0, 10072.0, 10083.0, 10088.0, 10093.0, 10095.0, 10109.0, 10104.0, 10098.0, 10089.0, 10074.0, 10071.0, 10067.0, 10062.0, 10068.0, 10067.0, 10068.0, 10072.0, 10075.0, 10094.0, 10103.0, 10100.0, 10094.0, 10085.0, 10081.0, 10062.0, 10067.0, 10064.0, 10066.0, 10079.0, 10073.0, 10075.0, 10061.0, 10055.0, 10046.0, 10032.0, 10038.0, 10047.0, 10037.0, 10050.0, 10050.0, 10045.0, 10059.0, 10061.0, 10062.0, 10069.0, 10069.0, 10070.0, 10090.0, 10088.0, 10089.0],
