{
  "AcquisitionMatrixPE": 104,
  "AcquisitionNumber": 1,
  "AcquisitionTime": "12:43:4.510000",
  "BandwidthPerPixelPhaseEncode": 16.297,
  "BaseResolution": 104,
  "BodyPartExamined": "BRAIN",
  "ConsistencyInfo": "N4_VE11C_LATEST_20160120",
  "ConversionSoftware": "dcm2niix",
  "ConversionSoftwareVersion": "v1.0.20190902",
  "DerivedVendorReportedEchoSpacing": 0.000590009,
  "DeviceSerialNumber": "166018",
  "DwellTime": 2.1e-06,
  "EchoTime": 0.0376,
  "EchoTrainLength": 104,
  "EffectiveEchoSpacing": 0.000590009,
  "FlipAngle": 68,
  "ImageComments": "Unaliased_MB6_PE3_LB",
  "ImageOrientationPatientDICOM": [0.997485, 0.0708704, 0.000940899, -0.069576, 0.981626, -0.177681],
  "ImageType": [
    "ORIGINAL",
    "PRIMARY",
    "M",
    "MB",
    "ND",
    "MOSAIC"
],
  "ImagingFrequency": 123.191,
  "InPlanePhaseEncodingDirectionDICOM": "COL",
  "InstitutionAddress": "Washington_Place_6_NYC_NYC_US_10003",
  "InstitutionName": "NYU_-_CBI",
  "InstitutionalDepartmentName": "Department",
  "MRAcquisitionType": "2D",
  "MagneticFieldStrength": 3,
  "Manufacturer": "Siemens",
  "ManufacturersModelName": "Prisma",
  "Modality": "MR",
  "MultibandAccelerationFactor": 6,
  "PartialFourier": 1,
  "PatientPosition": "HFS",
  "PercentPhaseFOV": 100,
  "PhaseEncodingDirection": "j",
  "PhaseEncodingSteps": 104,
  "PhaseResolution": 1,
  "PixelBandwidth": 2290,
  "ProcedureStepDescription": "Investigators_Blessing",
  "ProtocolName": "cmrr_mbepi_s6_2mm_66sl_PA_task-prf",
  "PulseSequenceDetails": "%CustomerSeq%_cmrr_mbep2d_bold",
  "ReceiveCoilActiveElements": "HC1-7",
  "ReceiveCoilName": "HeadNeck_64",
  "ReconMatrixPE": 104,
  "RepetitionTime": 1,
  "SAR": 0.068826,
  "ScanOptions": "FS",
  "ScanningSequence": "EP",
  "SequenceName": "epfid2d1_104",
  "SequenceVariant": "SK_SS",
  "SeriesDescription": "cmrr_mbepi_s6_2mm_66sl_PA_task-prf",
  "SeriesNumber": 20,
  "ShimSetting": [230, -12530, -8417, 659, -123, 53, -236, 65],
  "SliceThickness": 2,
  "SliceTiming": [0, 0.535, 0.09, 0.6225, 0.1775, 0.7125, 0.2675, 0.8025, 0.3575, 0.89, 0.445, 0, 0.535, 0.09, 0.6225, 0.1775, 0.7125, 0.2675, 0.8025, 0.3575, 0.89, 0.445, 0, 0.535, 0.09, 0.6225, 0.1775, 0.7125, 0.2675, 0.8025, 0.3575, 0.89, 0.445, 0, 0.535, 0.09, 0.6225, 0.1775, 0.7125, 0.2675, 0.8025, 0.3575, 0.89, 0.445, 0, 0.535, 0.09, 0.6225, 0.1775, 0.7125, 0.2675, 0.8025, 0.3575, 0.89, 0.445, 0, 0.535, 0.09, 0.6225, 0.1775, 0.7125, 0.2675, 0.8025, 0.3575, 0.89, 0.445],
  "SoftwareVersions": "syngo_MR_E11",
  "SpacingBetweenSlices": 2,
  "StationName": "AWP166018",
  "TaskName": "prf",
  "TotalReadoutTime": 0.060771,
  "TxRefAmp": 230.194,
  "VendorReportedEchoSpacing": 0.00059,
  "WipMemBlock": "91898721-a113-4cf2-8671-a18f4da0d760||Sequence: R016 ve11c/master r/8780670; Nov 27 2017 15:05:12 by eja",
  "dcmmeta_affine": [
    [-1.9949702024459839, -0.13915205001831055, 0.02703181467950344, 113.21038055419922],
    [-0.1417408585548401, 1.9632512331008911, -0.3543364703655243, -62.96363830566406],
    [0.0018817979143932462, 0.35536107420921326, 1.9681755304336548, -66.46185302734375],
    [0.0, 0.0, 0.0, 1.0]
],
  "dcmmeta_reorient_transform": [
    [0.0, -1.0, 0.0, 103.0],
    [1.0, 0.0, 0.0, 0.0],
    [0.0, 0.0, 1.0, 0.0],
    [0.0, 0.0, 0.0, 1.0]
],
  "dcmmeta_shape": [104, 104, 66, 192],
  "dcmmeta_slice_dim": 2,
  "dcmmeta_version": 0.6,
  "global": {
    "const": {
      "AccessionNumber": "kqL6z354",
      "AcquisitionMatrix": [104, 0, 0, 104],
      "AngioFlag": "N",
      "BitsAllocated": 16,
      "BitsStored": 16,
      "BodyPartExamined": "BRAIN",
      "Columns": 936,
      "EchoNumbers": 1,
      "EchoTime": 37.6,
      "EchoTrainLength": 104,
      "FlipAngle": 68.0,
      "HighBit": 15,
      "ImageOrientationPatient": [0.99748508601541, 0.07087043026506, 0.00094089897092, -0.0695760262753, 0.9816255910177, -0.1776805437489],
      "ImagePositionPatient": [-870.89805348545, -1014.9279228781, 117.18772218501],
      "ImageType": [
        "ORIGINAL",
        "PRIMARY",
        "M",
        "MB",
        "ND",
        "MOSAIC"
],
      "ImagedNucleus": "1H",
      "ImagingFrequency": 123.190654,
      "InPlanePhaseEncodingDirection": "COL",
      "MRAcquisitionType": "2D",
      "MagneticFieldStrength": 3.0,
      "Manufacturer": "SIEMENS",
      "ManufacturerModelName": "Prisma",
      "Modality": "MR",
      "NumberOfAverages": 1.0,
      "NumberOfPhaseEncodingSteps": 104,
      "PercentPhaseFieldOfView": 100.0,
      "PercentSampling": 100.0,
      "PerformedProcedureStepStartTime": "120139.460000",
      "PhotometricInterpretation": "MONOCHROME2",
      "PixelBandwidth": 2290.0,
      "PixelRepresentation": 0,
      "PixelSpacing": [2.0, 2.0],
      "ProtocolName": "cmrr_mbepi_s6_2mm_66sl_PA_task-prf",
      "RepetitionTime": 1000.0,
      "Rows": 936,
      "SAR": 0.06882603948902,
      "SamplesPerPixel": 1,
      "ScanOptions": "FS",
      "ScanningSequence": "EP",
      "SequenceName": "epfid2d1_104",
      "SequenceVariant": [
        "SK",
        "SS"
],
      "SeriesDescription": "cmrr_mbepi_s6_2mm_66sl_PA_task-prf",
      "SeriesNumber": 20,
      "SeriesTime": "124422.224000",
      "SliceLocation": -52.719000727401,
      "SliceThickness": 2.0,
      "SmallestImagePixelValue": 0,
      "SoftwareVersions": "syngo MR E11",
      "SpacingBetweenSlices": 2.0000000280231,
      "SpecificCharacterSet": "ISO_IR 100",
      "StudyID": "1",
      "StudyTime": "120139.397000",
      "TransmitCoilName": "Body",
      "VariableFlipAngleFlag": "N",
      "WindowCenterWidthExplanation": "Algo1",
      "dBdt": 0.0},
    "slices": {}
  },
  "time": {
    "samples": {
      "AcquisitionNumber": [1, 2, 3, 4, 5, 6, 7, 8, 9, 10, 11, 12, 13, 14, 15, 16, 17, 18, 19, 20, 21, 22, 23, 24, 25, 26, 27, 28, 29, 30, 31, 32, 33, 34, 35, 36, 37, 38, 39, 40, 41, 42, 43, 44, 45, 46, 47, 48, 49, 50, 51, 52, 53, 54, 55, 56, 57, 58, 59, 60, 61, 62, 63, 64, 65, 66, 67, 68, 69, 70, 71, 72, 73, 74, 75, 76, 77, 78, 79, 80, 81, 82, 83, 84, 85, 86, 87, 88, 89, 90, 91, 92, 93, 94, 95, 96, 97, 98, 99, 100, 101, 102, 103, 104, 105, 106, 107, 108, 109, 110, 111, 112, 113, 114, 115, 116, 117, 118, 119, 120, 121, 122, 123, 124, 125, 126, 127, 128, 129, 130, 131, 132, 133, 134, 135, 136, 137, 138, 139, 140, 141, 142, 143, 144, 145, 146, 147, 148, 149, 150, 151, 152, 153, 154, 155, 156, 157, 158, 159, 160, 161, 162, 163, 164, 165, 166, 167, 168, 169, 170, 171, 172, 173, 174, 175, 176, 177, 178, 179, 180, 181, 182, 183, 184, 185, 186, 187, 188, 189, 190, 191, 192],
      "AcquisitionTime": ["124304.510000", "124305.510000", "124306.510000", "124307.510000", "124308.510000", "124309.510000", "124310.510000", "124311.510000", "124312.510000", "124313.510000", "124314.510000", "124315.510000", "124316.510000", "124317.510000", "124318.510000", "124319.510000", "124320.510000", "124321.510000", "124322.510000", "124323.510000", "124324.510000", "124325.510000", "124326.510000", "124327.510000", "124328.510000", "124329.510000", "124330.510000", "124331.510000", "124332.510000", "124333.510000", "124334.510000", "124335.510000", "124336.510000", "124337.510000", "124338.510000", "124339.510000", "124340.510000", "124341.510000", "124342.510000", "124343.510000", "124344.510000", "124345.510000", "124346.510000", "124347.510000", "124348.510000", "124349.510000", "124350.510000", "124351.510000", "124352.510000", "124353.510000", "124354.510000", "124355.510000", "124356.510000", "124357.510000", "124358.510000", "124359.510000", "124400.510000", "124401.510000", "124402.510000", "124403.510000", "124404.510000", "124405.510000", "124406.510000", "124407.510000", "124408.510000", "124409.510000", "124410.510000", "124411.510000", "124412.510000", "124413.510000", "124414.510000", "124415.510000", "124416.510000", "124417.510000", "124418.510000", "124419.510000", "124420.510000", "124421.510000", "124422.510000", "124423.510000", "124424.510000", "124425.510000", "124426.510000", "124427.510000", "124428.510000", "124429.510000", "124430.510000", "124431.510000", "124432.510000", "124433.510000", "124434.510000", "124435.510000", "124436.510000", "124437.510000", "124438.510000", "124439.510000", "124440.510000", "124441.510000", "124442.510000", "124443.510000", "124444.510000", "124445.510000", "124446.510000", "124447.510000", "124448.510000", "124449.510000", "124450.510000", "124451.510000", "124452.510000", "124453.510000", "124454.510000", "124455.510000", "124456.510000", "124457.510000", "124458.510000", "124459.510000", "124500.510000", "124501.510000", "124502.510000", "124503.510000", "124504.510000", "124505.510000", "124506.510000", "124507.510000", "124508.510000", "124509.510000", "124510.510000", "124511.510000", "124512.510000", "124513.510000", "124514.510000", "124515.510000", "124516.510000", "124517.510000", "124518.510000", "124519.510000", "124520.510000", "124521.510000", "124522.510000", "124523.510000", "124524.510000", "124525.510000", "124526.510000", "124527.510000", "124528.510000", "124529.510000", "124530.510000", "124531.510000", "124532.510000", "124533.510000", "124534.510000", "124535.510000", "124536.510000", "124537.510000", "124538.510000", "124539.510000", "124540.510000", "124541.510000", "124542.510000", "124543.510000", "124544.510000", "124545.510000", "124546.510000", "124547.510000", "124548.510000", "124549.510000", "124550.510000", "124551.510000", "124552.510000", "124553.510000", "124554.510000", "124555.510000", "124556.510000", "124557.510000", "124558.510000", "124559.510000", "124600.510000", "124601.510000", "124602.510000", "124603.510000", "124604.510000", "124605.510000", "124606.510000", "124607.510000", "124608.510000", "124609.510000", "124610.510000", "124611.510000", "124612.510000", "124613.510000", "124614.510000", "124615.510000"],
      "ContentTime": ["124422.227000", "124422.230000", "124422.233000", "124422.239000", "124422.242000", "124422.245000", "124422.248000", "124422.251000", "124422.254000", "124422.257000", "124422.260000", "124422.263000", "124422.267000", "124422.269000", "124422.272000", "124422.275000", "124422.279000", "124422.281000", "124422.284000", "124422.287000", "124422.290000", "124422.294000", "124422.296000", "124422.300000", "124422.304000", "124422.307000", "124422.310000", "124422.313000", "124422.316000", "124422.319000", "124422.322000", "124422.327000", "124442.200000", "124442.203000", "124442.206000", "124442.209000", "124442.212000", "124442.215000", "124442.218000", "124442.221000", "124442.225000", "124442.228000", "124442.231000", "124442.235000", "124442.238000", "124442.240000", "124442.243000", "124442.247000", "124442.250000", "124442.253000", "124442.256000", "124442.259000", "124442.262000", "124442.265000", "124442.267000", "124442.271000", "124442.274000", "124442.276000", "124442.279000", "124442.282000", "124502.200000", "124502.203000", "124502.206000", "124502.217000", "124502.220000", "124502.223000", "124502.226000", "124502.229000", "124502.232000", "124502.235000", "124502.238000", "124502.241000", "124502.244000", "124502.247000", "124502.250000", "124502.253000", "124502.256000", "124502.259000", "124502.262000", "124502.265000", "124502.268000", "124502.271000", "124502.274000", "124502.277000", "124502.280000", "124502.283000", "124502.286000", "124502.289000", "124522.200000", "124522.203000", "124522.206000", "124522.209000", "124522.214000", "124522.217000", "124522.220000", "124522.223000", "124522.226000", "124522.229000", "124522.232000", "124522.235000", "124522.238000", "124522.241000", "124522.244000", "124522.247000", "124522.250000", "124522.253000", "124522.256000", "124522.259000", "124522.262000", "124522.265000", "124522.268000", "124522.271000", "124522.274000", "124522.277000", "124522.280000", "124522.283000", "124522.286000", "124542.199000", "124542.202000", "124542.205000", "124542.208000", "124542.211000", "124542.214000", "124542.226000", "124542.229000", "124542.232000", "124542.235000", "124542.238000", "124542.241000", "124542.244000", "124542.247000", "124542.250000", "124542.253000", "124542.256000", "124542.259000", "124542.262000", "124542.265000", "124542.268000", "124542.271000", "124542.274000", "124542.277000", "124542.280000", "124542.283000", "124542.286000", "124542.289000", "124602.199000", "124602.202000", "124602.205000", "124602.208000", "124602.211000", "124602.214000", "124602.217000", "124602.220000", "124602.223000", "124602.226000", "124602.229000", "124602.232000", "124602.235000", "124602.238000", "124602.241000", "124602.244000", "124602.247000", "124602.250000", "124602.253000", "124602.256000", "124602.259000", "124602.262000", "124602.265000", "124602.268000", "124602.271000", "124602.274000", "124602.277000", "124602.280000", "124617.062000", "124617.065000", "124617.069000", "124617.072000", "124617.075000", "124617.078000", "124617.081000", "124617.084000", "124617.087000", "124617.090000", "124617.093000", "124617.096000", "124617.099000", "124617.102000", "124617.105000", "124617.108000", "124617.111000", "124617.114000", "124617.118000"],
      "InstanceCreationTime": ["124422.227000", "124422.230000", "124422.233000", "124422.239000", "124422.242000", "124422.245000", "124422.248000", "124422.251000", "124422.254000", "124422.257000", "124422.260000", "124422.263000", "124422.267000", "124422.269000", "124422.272000", "124422.275000", "124422.279000", "124422.281000", "124422.284000", "124422.287000", "124422.290000", "124422.294000", "124422.296000", "124422.300000", "124422.304000", "124422.307000", "124422.310000", "124422.313000", "124422.316000", "124422.319000", "124422.322000", "124422.327000", "124442.200000", "124442.203000", "124442.206000", "124442.209000", "124442.212000", "124442.215000", "124442.218000", "124442.221000", "124442.225000", "124442.228000", "124442.231000", "124442.235000", "124442.238000", "124442.240000", "124442.243000", "124442.247000", "124442.250000", "124442.253000", "124442.256000", "124442.259000", "124442.262000", "124442.265000", "124442.267000", "124442.271000", "124442.274000", "124442.276000", "124442.279000", "124442.282000", "124502.200000", "124502.203000", "124502.206000", "124502.217000", "124502.220000", "124502.223000", "124502.226000", "124502.229000", "124502.232000", "124502.235000", "124502.238000", "124502.241000", "124502.244000", "124502.247000", "124502.250000", "124502.253000", "124502.256000", "124502.259000", "124502.262000", "124502.265000", "124502.268000", "124502.271000", "124502.274000", "124502.277000", "124502.280000", "124502.283000", "124502.286000", "124502.289000", "124522.200000", "124522.203000", "124522.206000", "124522.209000", "124522.214000", "124522.217000", "124522.220000", "124522.223000", "124522.226000", "124522.229000", "124522.232000", "124522.235000", "124522.238000", "124522.241000", "124522.244000", "124522.247000", "124522.250000", "124522.253000", "124522.256000", "124522.259000", "124522.262000", "124522.265000", "124522.268000", "124522.271000", "124522.274000", "124522.277000", "124522.280000", "124522.283000", "124522.286000", "124542.199000", "124542.202000", "124542.205000", "124542.208000", "124542.211000", "124542.214000", "124542.226000", "124542.229000", "124542.232000", "124542.235000", "124542.238000", "124542.241000", "124542.244000", "124542.247000", "124542.250000", "124542.253000", "124542.256000", "124542.259000", "124542.262000", "124542.265000", "124542.268000", "124542.271000", "124542.274000", "124542.277000", "124542.280000", "124542.283000", "124542.286000", "124542.289000", "124602.199000", "124602.202000", "124602.205000", "124602.208000", "124602.211000", "124602.214000", "124602.217000", "124602.220000", "124602.223000", "124602.226000", "124602.229000", "124602.232000", "124602.235000", "124602.238000", "124602.241000", "124602.244000", "124602.247000", "124602.250000", "124602.253000", "124602.256000", "124602.259000", "124602.262000", "124602.265000", "124602.268000", "124602.271000", "124602.274000", "124602.277000", "124602.280000", "124617.062000", "124617.065000", "124617.069000", "124617.072000", "124617.075000", "124617.078000", "124617.081000", "124617.084000", "124617.087000", "124617.090000", "124617.093000", "124617.096000", "124617.099000", "124617.102000", "124617.105000", "124617.108000", "124617.111000", "124617.114000", "124617.118000"],
      "InstanceNumber": [1, 2, 3, 4, 5, 6, 7, 8, 9, 10, 11, 12, 13, 14, 15, 16, 17, 18, 19, 20, 21, 22, 23, 24, 25, 26, 27, 28, 29, 30, 31, 32, 33, 34, 35, 36, 37, 38, 39, 40, 41, 42, 43, 44, 45, 46, 47, 48, 49, 50, 51, 52, 53, 54, 55, 56, 57, 58, 59, 60, 61, 62, 63, 64, 65, 66, 67, 68, 69, 70, 71, 72, 73, 74, 75, 76, 77, 78, 79, 80, 81, 82, 83, 84, 85, 86, 87, 88, 89, 90, 91, 92, 93, 94, 95, 96, 97, 98, 99, 100, 101, 102, 103, 104, 105, 106, 107, 108, 109, 110, 111, 112, 113, 114, 115, 116, 117, 118, 119, 120, 121, 122, 123, 124, 125, 126, 127, 128, 129, 130, 131, 132, 133, 134, 135, 136, 137, 138, 139, 140, 141, 142, 143, 144, 145, 146, 147, 148, 149, 150, 151, 152, 153, 154, 155, 156, 157, 158, 159, 160, 161, 162, 163, 164, 165, 166, 167, 168, 169, 170, 171, 172, 173, 174, 175, 176, 177, 178, 179, 180, 181, 182, 183, 184, 185, 186, 187, 188, 189, 190, 191, 192],
      "LargestImagePixelValue": [35064, 33775, 33829, 33034, 33113, 33435, 32369, 32632, 33062, 32986, 32520, 32972, 33038, 32830, 32226, 32875, 32288, 32449, 32986, 32457, 32804, 33107, 32761, 32737, 32800, 32222, 32431, 33393, 32668, 32990, 32447, 32356, 32105, 32037, 32054, 31963, 32153, 32215, 31912, 32575, 32305, 31952, 32390, 32901, 32194, 32226, 32450, 32335, 32425, 32713, 32350, 32676, 32972, 32528, 32214, 32715, 32189, 32897, 33113, 32392, 32592, 32670, 33005, 32836, 32752, 32658, 32031, 32819, 32904, 33071, 32631, 33036, 32497, 32697, 32899, 33187, 32223, 32939, 32707, 32696, 32843, 32785, 32533, 32672, 32085, 32435, 32646, 32229, 32496, 32421, 32583, 32668, 32128, 33195, 32471, 32705, 32219, 32556, 32938, 32602, 32555, 33044, 32974, 32009, 32281, 32515, 32587, 32254, 32118, 31964, 32528, 32172, 32465, 32720, 32492, 32310, 32145, 32118, 32713, 32581, 32595, 33019, 32556, 32266, 32129, 32262, 32892, 32114, 32075, 32867, 32409, 32629, 32552, 32901, 32558, 32760, 32906, 32404, 32871, 32686, 32946, 33115, 32705, 32965, 32615, 32703, 32797, 32659, 32627, 32504, 32500, 32455, 32052, 32147, 32443, 33371, 32788, 32044, 33171, 32631, 32431, 32748, 32821, 32777, 33224, 32844, 32926, 32388, 32825, 32448, 32562, 32509, 32621, 32467, 31920, 32001, 32324, 33070, 32282, 32281, 32844, 32079, 32330, 32681, 32350, 32712, 32745, 32614, 32501, 32388, 32904, 32583],
      "WindowCenter": [9959.0, 9920.0, 9904.0, 9890.0, 9883.0, 9869.0, 9855.0, 9853.0, 9852.0, 9848.0, 9843.0, 9843.0, 9843.0, 9857.0, 9840.0, 9841.0, 9835.0, 9830.0, 9834.0, 9822.0, 9832.0, 9839.0, 9842.0, 9843.0, 9843.0, 9827.0, 9837.0, 9861.0, 9839.0, 9811.0, 9784.0, 9773.0, 9774.0, 9796.0, 9807.0, 9818.0, 9822.0, 9839.0, 9830.0, 9826.0, 9821.0, 9804.0, 9811.0, 9819.0, 9807.0, 9815.0, 9817.0, 9833.0, 9833.0, 9840.0, 9824.0, 9822.0, 9819.0, 9804.0, 9799.0, 9803.0, 9805.0, 9819.0, 9823.0, 9806.0, 9792.0, 9805.0, 9805.0, 9812.0, 9822.0, 9825.0, 9814.0, 9817.0, 9807.0, 9796.0, 9788.0, 9795.0, 9794.0, 9795.0, 9805.0, 9800.0, 9787.0, 9787.0, 9783.0, 9781.0, 9787.0, 9786.0, 9787.0, 9794.0, 9775.0, 9774.0, 9781.0, 9776.0, 9788.0, 9790.0, 9786.0, 9777.0, 9766.0, 9768.0, 9761.0, 9759.0, 9760.0, 9767.0, 9784.0, 9784.0, 9789.0, 9814.0, 9802.0, 9791.0, 9793.0, 9792.0, 9794.0, 9790.0, 9789.0, 9789.0, 9805.0, 9805.0, 9806.0, 9805.0, 9797.0, 9788.0, 9773.0, 9773.0, 9779.0, 9779.0, 9783.0, 9778.0, 9779.0, 9763.0, 9765.0, 9770.0, 9777.0, 9766.0, 9774.0, 9809.0, 9806.0, 9812.0, 9805.0, 9798.0, 9796.0, 9788.0, 9793.0, 9783.0, 9785.0, 9787.0, 9791.0, 9783.0, 9778.0, 9784.0, 9777.0, 9779.0, 9780.0, 9774.0, 9788.0, 9804.0, 9813.0, 9816.0, 9813.0, 9808.0, 9802.0, 9802.0, 9791.0, 9784.0, 9802.0, 9798.0, 9791.0, 9799.0, 9803.0, 9795.0, 9817.0, 9810.0, 9799.0, 9753.0, 9825.0, 9809.0, 9798.0, 9797.0, 9800.0, 9794.0, 9785.0, 9794.0, 9808.0, 9813.0, 9800.0, 9784.0, 9788.0, 9776.0, 9779.0, 9786.0, 9783.0, 9792.0, 9791.0, 9790.0, 9782.0, 9783.0, 9799.0, 9789.0],
      "WindowWidth": [21186.0, 21092.0, 21050.0, 21019.0, 20999.0, 20966.0, 20935.0, 20931.0, 20923.0, 20912.0, 20905.0, 20904.0, 20905.0, 20935.0, 20900.0, 20898.0, 20887.0, 20876.0, 20882.0, 20860.0, 20878.0, 20889.0, 20899.0, 20900.0, 20898.0, 20862.0, 20890.0, 20945.0, 20894.0, 20824.0, 20764.0, 20734.0, 20742.0, 20789.0, 20818.0, 20843.0, 20858.0, 20895.0, 20876.0, 20865.0, 20851.0, 20814.0, 20829.0, 20840.0, 20819.0, 20837.0, 20844.0, 20880.0, 20880.0, 20891.0, 20856.0, 20849.0, 20837.0, 20806.0, 20800.0, 20807.0, 20812.0, 20841.0, 20852.0, 20812.0, 20782.0, 20808.0, 20811.0, 20826.0, 20851.0, 20861.0, 20839.0, 20840.0, 20818.0, 20790.0, 20774.0, 20786.0, 20784.0, 20787.0, 20805.0, 20793.0, 20769.0, 20768.0, 20762.0, 20759.0, 20769.0, 20765.0, 20771.0, 20788.0, 20745.0, 20743.0, 20756.0, 20748.0, 20775.0, 20779.0, 20765.0, 20744.0, 20723.0, 20720.0, 20708.0, 20700.0, 20704.0, 20721.0, 20757.0, 20761.0, 20775.0, 20829.0, 20804.0, 20780.0, 20785.0, 20778.0, 20784.0, 20777.0, 20777.0, 20779.0, 20811.0, 20815.0, 20820.0, 20815.0, 20795.0, 20777.0, 20744.0, 20740.0, 20752.0, 20752.0, 20759.0, 20751.0, 20749.0, 20717.0, 20723.0, 20728.0, 20744.0, 20724.0, 20745.0, 20820.0, 20817.0, 20830.0, 20812.0, 20796.0, 20789.0, 20773.0, 20783.0, 20764.0, 20766.0, 20770.0, 20774.0, 20756.0, 20747.0, 20761.0, 20747.0, 20753.0, 20754.0, 20740.0, 20773.0, 20809.0, 20828.0, 20839.0, 20836.0, 20821.0, 20808.0, 20802.0, 20783.0, 20769.0, 20804.0, 20798.0, 20785.0, 20805.0, 20805.0, 20790.0, 20836.0, 20821.0, 20792.0, 20687.0, 20854.0, 20817.0, 20794.0, 20790.0, 20801.0, 20789.0, 20769.0, 20794.0, 20824.0, 20832.0, 20807.0, 20772.0, 20774.0, 20751.0, 20755.0, 20770.0, 20768.0, 20790.0, 20786.0, 20783.0, 20765.0, 20769.0, 20802.0, 20779.0]
    },
    "slices": {}
  },
  "NumberOfVolumes": 192
}