{
  "AcquisitionMatrixPE": 104,
  "AcquisitionNumber": 1,
  "AcquisitionTime": "12:27:2.445000",
  "BandwidthPerPixelPhaseEncode": 16.297,
  "BaseResolution": 104,
  "BodyPartExamined": "BRAIN",
  "ConsistencyInfo": "N4_VE11C_LATEST_20160120",
  "ConversionSoftware": "dcm2niix",
  "ConversionSoftwareVersion": "v1.0.20190902",
  "DerivedVendorReportedEchoSpacing": 0.000590009,
  "DeviceSerialNumber": "166018",
  "DwellTime": 2.1e-06,
  "EchoTime": 0.0376,
  "EchoTrainLength": 104,
  "EffectiveEchoSpacing": 0.000590009,
  "FlipAngle": 68,
  "ImageComments": "Unaliased_MB6_PE3_LB",
  "ImageOrientationPatientDICOM": [0.997485, 0.0708704, 0.000940899, -0.069576, 0.981626, -0.177681],
  "ImageType": [
    "ORIGINAL",
    "PRIMARY",
    "M",
    "MB",
    "ND",
    "MOSAIC"
],
  "ImagingFrequency": 123.191,
  "InPlanePhaseEncodingDirectionDICOM": "COL",
  "InstitutionAddress": "Washington_Place_6_NYC_NYC_US_10003",
  "InstitutionName": "NYU_-_CBI",
  "InstitutionalDepartmentName": "Department",
  "MRAcquisitionType": "2D",
  "MagneticFieldStrength": 3,
  "Manufacturer": "Siemens",
  "ManufacturersModelName": "Prisma",
  "Modality": "MR",
  "MultibandAccelerationFactor": 6,
  "PartialFourier": 1,
  "PatientPosition": "HFS",
  "PercentPhaseFOV": 100,
  "PhaseEncodingDirection": "j",
  "PhaseEncodingSteps": 104,
  "PhaseResolution": 1,
  "PixelBandwidth": 2290,
  "ProcedureStepDescription": "Investigators_Blessing",
  "ProtocolName": "cmrr_mbepi_s6_2mm_66sl_PA_task-prf",
  "PulseSequenceDetails": "%CustomerSeq%_cmrr_mbep2d_bold",
  "ReceiveCoilActiveElements": "HC1-7",
  "ReceiveCoilName": "HeadNeck_64",
  "ReconMatrixPE": 104,
  "RepetitionTime": 1,
  "SAR": 0.068826,
  "ScanOptions": "FS",
  "ScanningSequence": "EP",
  "SequenceName": "epfid2d1_104",
  "SequenceVariant": "SK_SS",
  "SeriesDescription": "cmrr_mbepi_s6_2mm_66sl_PA_task-prf",
  "SeriesNumber": 12,
  "ShimSetting": [230, -12530, -8417, 659, -123, 53, -236, 65],
  "SliceThickness": 2,
  "SliceTiming": [0, 0.535, 0.09, 0.625, 0.1775, 0.7125, 0.2675, 0.8025, 0.3575, 0.89, 0.445, 0, 0.535, 0.09, 0.625, 0.1775, 0.7125, 0.2675, 0.8025, 0.3575, 0.89, 0.445, 0, 0.535, 0.09, 0.625, 0.1775, 0.7125, 0.2675, 0.8025, 0.3575, 0.89, 0.445, 0, 0.535, 0.09, 0.625, 0.1775, 0.7125, 0.2675, 0.8025, 0.3575, 0.89, 0.445, 0, 0.535, 0.09, 0.625, 0.1775, 0.7125, 0.2675, 0.8025, 0.3575, 0.89, 0.445, 0, 0.535, 0.09, 0.625, 0.1775, 0.7125, 0.2675, 0.8025, 0.3575, 0.89, 0.445],
  "SoftwareVersions": "syngo_MR_E11",
  "SpacingBetweenSlices": 2,
  "StationName": "AWP166018",
  "TaskName": "prf",
  "TotalReadoutTime": 0.060771,
  "TxRefAmp": 230.194,
  "VendorReportedEchoSpacing": 0.00059,
  "WipMemBlock": "91898721-a113-4cf2-8671-a18f4da0d760||Sequence: R016 ve11c/master r/8780670; Nov 27 2017 15:05:12 by eja",
  "dcmmeta_affine": [
    [-1.9949702024459839, -0.13915205001831055, 0.02703181467950344, 113.21038055419922],
    [-0.1417408585548401, 1.9632512331008911, -0.3543364703655243, -62.96363830566406],
    [0.0018817979143932462, 0.35536107420921326, 1.9681755304336548, -66.46185302734375],
    [0.0, 0.0, 0.0, 1.0]
],
  "dcmmeta_reorient_transform": [
    [0.0, -1.0, 0.0, 103.0],
    [1.0, 0.0, 0.0, 0.0],
    [0.0, 0.0, 1.0, 0.0],
    [0.0, 0.0, 0.0, 1.0]
],
  "dcmmeta_shape": [104, 104, 66, 192],
  "dcmmeta_slice_dim": 2,
  "dcmmeta_version": 0.6,
  "global": {
    "const": {
      "AccessionNumber": "kqL6z354",
      "AcquisitionMatrix": [104, 0, 0, 104],
      "AngioFlag": "N",
      "BitsAllocated": 16,
      "BitsStored": 16,
      "BodyPartExamined": "BRAIN",
      "Columns": 936,
      "EchoNumbers": 1,
      "EchoTime": 37.6,
      "EchoTrainLength": 104,
      "FlipAngle": 68.0,
      "HighBit": 15,
      "ImageOrientationPatient": [0.99748508601541, 0.07087043026506, 0.00094089897092, -0.0695760262753, 0.9816255910177, -0.1776805437489],
      "ImagePositionPatient": [-870.89805348545, -1014.9279228781, 117.18772218501],
      "ImageType": [
        "ORIGINAL",
        "PRIMARY",
        "M",
        "MB",
        "ND",
        "MOSAIC"
],
      "ImagedNucleus": "1H",
      "ImagingFrequency": 123.190654,
      "InPlanePhaseEncodingDirection": "COL",
      "MRAcquisitionType": "2D",
      "MagneticFieldStrength": 3.0,
      "Manufacturer": "SIEMENS",
      "ManufacturerModelName": "Prisma",
      "Modality": "MR",
      "NumberOfAverages": 1.0,
      "NumberOfPhaseEncodingSteps": 104,
      "PercentPhaseFieldOfView": 100.0,
      "PercentSampling": 100.0,
      "PerformedProcedureStepStartTime": "120139.460000",
      "PhotometricInterpretation": "MONOCHROME2",
      "PixelBandwidth": 2290.0,
      "PixelRepresentation": 0,
      "PixelSpacing": [2.0, 2.0],
      "ProtocolName": "cmrr_mbepi_s6_2mm_66sl_PA_task-prf",
      "RepetitionTime": 1000.0,
      "Rows": 936,
      "SAR": 0.06882603948902,
      "SamplesPerPixel": 1,
      "ScanOptions": "FS",
      "ScanningSequence": "EP",
      "SequenceName": "epfid2d1_104",
      "SequenceVariant": [
        "SK",
        "SS"
],
      "SeriesDescription": "cmrr_mbepi_s6_2mm_66sl_PA_task-prf",
      "SeriesNumber": 12,
      "SeriesTime": "122822.200000",
      "SliceLocation": -52.719000727401,
      "SliceThickness": 2.0,
      "SmallestImagePixelValue": 0,
      "SoftwareVersions": "syngo MR E11",
      "SpacingBetweenSlices": 2.0000000280231,
      "SpecificCharacterSet": "ISO_IR 100",
      "StudyID": "1",
      "StudyTime": "120139.397000",
      "TransmitCoilName": "Body",
      "VariableFlipAngleFlag": "N",
      "WindowCenterWidthExplanation": "Algo1",
      "dBdt": 0.0},
    "slices": {}
  },
  "time": {
    "samples": {
      "AcquisitionNumber": [1, 2, 3, 4, 5, 6, 7, 8, 9, 10, 11, 12, 13, 14, 15, 16, 17, 18, 19, 20, 21, 22, 23, 24, 25, 26, 27, 28, 29, 30, 31, 32, 33, 34, 35, 36, 37, 38, 39, 40, 41, 42, 43, 44, 45, 46, 47, 48, 49, 50, 51, 52, 53, 54, 55, 56, 57, 58, 59, 60, 61, 62, 63, 64, 65, 66, 67, 68, 69, 70, 71, 72, 73, 74, 75, 76, 77, 78, 79, 80, 81, 82, 83, 84, 85, 86, 87, 88, 89, 90, 91, 92, 93, 94, 95, 96, 97, 98, 99, 100, 101, 102, 103, 104, 105, 106, 107, 108, 109, 110, 111, 112, 113, 114, 115, 116, 117, 118, 119, 120, 121, 122, 123, 124, 125, 126, 127, 128, 129, 130, 131, 132, 133, 134, 135, 136, 137, 138, 139, 140, 141, 142, 143, 144, 145, 146, 147, 148, 149, 150, 151, 152, 153, 154, 155, 156, 157, 158, 159, 160, 161, 162, 163, 164, 165, 166, 167, 168, 169, 170, 171, 172, 173, 174, 175, 176, 177, 178, 179, 180, 181, 182, 183, 184, 185, 186, 187, 188, 189, 190, 191, 192],
      "AcquisitionTime": ["122702.445000", "122703.445000", "122704.445000", "122705.445000", "122706.445000", "122707.445000", "122708.445000", "122709.445000", "122710.445000", "122711.445000", "122712.445000", "122713.445000", "122714.445000", "122715.445000", "122716.445000", "122717.445000", "122718.445000", "122719.445000", "122720.445000", "122721.445000", "122722.445000", "122723.445000", "122724.445000", "122725.445000", "122726.445000", "122727.445000", "122728.445000", "122729.445000", "122730.445000", "122731.445000", "122732.445000", "122733.445000", "122734.445000", "122735.445000", "122736.445000", "122737.445000", "122738.445000", "122739.445000", "122740.445000", "122741.445000", "122742.445000", "122743.445000", "122744.445000", "122745.445000", "122746.445000", "122747.445000", "122748.445000", "122749.445000", "122750.445000", "122751.445000", "122752.445000", "122753.445000", "122754.445000", "122755.445000", "122756.445000", "122757.445000", "122758.445000", "122759.445000", "122800.445000", "122801.445000", "122802.445000", "122803.445000", "122804.445000", "122805.445000", "122806.445000", "122807.445000", "122808.445000", "122809.445000", "122810.445000", "122811.445000", "122812.445000", "122813.445000", "122814.445000", "122815.445000", "122816.445000", "122817.445000", "122818.445000", "122819.445000", "122820.445000", "122821.445000", "122822.445000", "122823.445000", "122824.445000", "122825.445000", "122826.445000", "122827.445000", "122828.445000", "122829.445000", "122830.445000", "122831.445000", "122832.445000", "122833.445000", "122834.445000", "122835.445000", "122836.445000", "122837.445000", "122838.445000", "122839.445000", "122840.445000", "122841.445000", "122842.445000", "122843.445000", "122844.445000", "122845.445000", "122846.445000", "122847.445000", "122848.445000", "122849.445000", "122850.445000", "122851.445000", "122852.445000", "122853.445000", "122854.445000", "122855.445000", "122856.445000", "122857.445000", "122858.445000", "122859.445000", "122900.445000", "122901.445000", "122902.445000", "122903.445000", "122904.445000", "122905.445000", "122906.445000", "122907.445000", "122908.445000", "122909.445000", "122910.445000", "122911.445000", "122912.445000", "122913.445000", "122914.445000", "122915.445000", "122916.445000", "122917.445000", "122918.445000", "122919.445000", "122920.445000", "122921.445000", "122922.445000", "122923.445000", "122924.445000", "122925.445000", "122926.445000", "122927.445000", "122928.445000", "122929.445000", "122930.445000", "122931.445000", "122932.445000", "122933.445000", "122934.445000", "122935.445000", "122936.445000", "122937.445000", "122938.445000", "122939.445000", "122940.445000", "122941.445000", "122942.445000", "122943.445000", "122944.445000", "122945.445000", "122946.445000", "122947.445000", "122948.445000", "122949.445000", "122950.445000", "122951.445000", "122952.445000", "122953.445000", "122954.445000", "122955.445000", "122956.445000", "122957.445000", "122958.445000", "122959.445000", "123000.445000", "123001.445000", "123002.445000", "123003.445000", "123004.445000", "123005.445000", "123006.445000", "123007.445000", "123008.445000", "123009.445000", "123010.445000", "123011.445000", "123012.445000", "123013.445000"],
      "ContentTime": ["122822.203000", "122822.214000", "122822.217000", "122822.220000", "122822.223000", "122822.226000", "122822.240000", "122822.243000", "122822.246000", "122822.248000", "122822.252000", "122822.282000", "122822.285000", "122822.288000", "122822.291000", "122822.294000", "122822.297000", "122822.300000", "122822.303000", "122822.306000", "122822.309000", "122822.312000", "122822.315000", "122822.318000", "122822.321000", "122822.324000", "122822.327000", "122822.330000", "122822.333000", "122822.336000", "122822.339000", "122822.342000", "122822.345000", "122822.348000", "122822.351000", "122822.354000", "122822.357000", "122822.360000", "122822.364000", "122822.366000", "122822.369000", "122822.372000", "122842.127000", "122842.130000", "122842.133000", "122842.136000", "122842.139000", "122842.142000", "122842.145000", "122842.148000", "122842.151000", "122842.154000", "122842.157000", "122842.160000", "122842.163000", "122842.166000", "122842.169000", "122842.172000", "122842.175000", "122842.178000", "122842.181000", "122842.184000", "122842.187000", "122842.193000", "122842.196000", "122842.199000", "122842.202000", "122842.205000", "122842.208000", "122842.211000", "122842.214000", "122902.126000", "122902.129000", "122902.132000", "122902.135000", "122902.138000", "122902.141000", "122902.145000", "122902.148000", "122902.151000", "122902.154000", "122902.157000", "122902.160000", "122902.163000", "122902.166000", "122902.169000", "122902.172000", "122902.175000", "122902.178000", "122902.181000", "122902.184000", "122902.187000", "122902.190000", "122902.193000", "122902.196000", "122902.199000", "122902.202000", "122902.205000", "122902.208000", "122922.126000", "122922.129000", "122922.132000", "122922.135000", "122922.138000", "122922.141000", "122922.149000", "122922.152000", "122922.155000", "122922.158000", "122922.161000", "122922.164000", "122922.167000", "122922.170000", "122922.174000", "122922.177000", "122922.179000", "122922.182000", "122922.186000", "122922.189000", "122922.191000", "122922.194000", "122922.198000", "122922.200000", "122922.203000", "122922.206000", "122922.210000", "122922.212000", "122942.125000", "122942.128000", "122942.131000", "122942.134000", "122942.137000", "122942.140000", "122942.143000", "122942.146000", "122942.149000", "122942.152000", "122942.155000", "122942.158000", "122942.161000", "122942.164000", "122942.167000", "122942.170000", "122942.173000", "122942.176000", "122942.179000", "122942.182000", "122942.185000", "122942.188000", "122942.191000", "122942.194000", "122942.197000", "122942.200000", "122942.203000", "122942.206000", "123002.125000", "123002.128000", "123002.131000", "123002.134000", "123002.137000", "123002.140000", "123002.149000", "123002.152000", "123002.155000", "123002.157000", "123002.161000", "123002.164000", "123002.167000", "123002.170000", "123002.173000", "123002.176000", "123002.179000", "123002.182000", "123002.185000", "123002.188000", "123002.191000", "123002.194000", "123002.197000", "123002.200000", "123014.664000", "123014.668000", "123014.672000", "123014.675000", "123014.679000", "123014.683000", "123014.687000", "123014.690000", "123014.693000", "123014.697000", "123014.700000", "123014.703000", "123014.706000"],
      "InstanceCreationTime": ["122822.203000", "122822.214000", "122822.217000", "122822.220000", "122822.223000", "122822.226000", "122822.240000", "122822.243000", "122822.246000", "122822.248000", "122822.252000", "122822.282000", "122822.285000", "122822.288000", "122822.291000", "122822.294000", "122822.297000", "122822.300000", "122822.303000", "122822.306000", "122822.309000", "122822.312000", "122822.315000", "122822.318000", "122822.321000", "122822.324000", "122822.327000", "122822.330000", "122822.333000", "122822.336000", "122822.339000", "122822.342000", "122822.345000", "122822.348000", "122822.351000", "122822.354000", "122822.357000", "122822.360000", "122822.364000", "122822.366000", "122822.369000", "122822.372000", "122842.127000", "122842.130000", "122842.133000", "122842.136000", "122842.139000", "122842.142000", "122842.145000", "122842.148000", "122842.151000", "122842.154000", "122842.157000", "122842.160000", "122842.163000", "122842.166000", "122842.169000", "122842.172000", "122842.175000", "122842.178000", "122842.181000", "122842.184000", "122842.187000", "122842.193000", "122842.196000", "122842.199000", "122842.202000", "122842.205000", "122842.208000", "122842.211000", "122842.214000", "122902.126000", "122902.129000", "122902.132000", "122902.135000", "122902.138000", "122902.141000", "122902.145000", "122902.148000", "122902.151000", "122902.154000", "122902.157000", "122902.160000", "122902.163000", "122902.166000", "122902.169000", "122902.172000", "122902.175000", "122902.178000", "122902.181000", "122902.184000", "122902.187000", "122902.190000", "122902.193000", "122902.196000", "122902.199000", "122902.202000", "122902.205000", "122902.208000", "122922.126000", "122922.129000", "122922.132000", "122922.135000", "122922.138000", "122922.141000", "122922.149000", "122922.152000", "122922.155000", "122922.158000", "122922.161000", "122922.164000", "122922.167000", "122922.170000", "122922.174000", "122922.177000", "122922.179000", "122922.182000", "122922.186000", "122922.189000", "122922.191000", "122922.194000", "122922.198000", "122922.200000", "122922.203000", "122922.206000", "122922.210000", "122922.212000", "122942.125000", "122942.128000", "122942.131000", "122942.134000", "122942.137000", "122942.140000", "122942.143000", "122942.146000", "122942.149000", "122942.152000", "122942.155000", "122942.158000", "122942.161000", "122942.164000", "122942.167000", "122942.170000", "122942.173000", "122942.176000", "122942.179000", "122942.182000", "122942.185000", "122942.188000", "122942.191000", "122942.194000", "122942.197000", "122942.200000", "122942.203000", "122942.206000", "123002.125000", "123002.128000", "123002.131000", "123002.134000", "123002.137000", "123002.140000", "123002.149000", "123002.152000", "123002.155000", "123002.157000", "123002.161000", "123002.164000", "123002.167000", "123002.170000", "123002.173000", "123002.176000", "123002.179000", "123002.182000", "123002.185000", "123002.188000", "123002.191000", "123002.194000", "123002.197000", "123002.200000", "123014.664000", "123014.668000", "123014.672000", "123014.675000", "123014.679000", "123014.683000", "123014.687000", "123014.690000", "123014.693000", "123014.697000", "123014.700000", "123014.703000", "123014.706000"],
      "InstanceNumber": [1, 2, 3, 4, 5, 6, 7, 8, 9, 10, 11, 12, 13, 14, 15, 16, 17, 18, 19, 20, 21, 22, 23, 24, 25, 26, 27, 28, 29, 30, 31, 32, 33, 34, 35, 36, 37, 38, 39, 40, 41, 42, 43, 44, 45, 46, 47, 48, 49, 50, 51, 52, 53, 54, 55, 56, 57, 58, 59, 60, 61, 62, 63, 64, 65, 66, 67, 68, 69, 70, 71, 72, 73, 74, 75, 76, 77, 78, 79, 80, 81, 82, 83, 84, 85, 86, 87, 88, 89, 90, 91, 92, 93, 94, 95, 96, 97, 98, 99, 100, 101, 102, 103, 104, 105, 106, 107, 108, 109, 110, 111, 112, 113, 114, 115, 116, 117, 118, 119, 120, 121, 122, 123, 124, 125, 126, 127, 128, 129, 130, 131, 132, 133, 134, 135, 136, 137, 138, 139, 140, 141, 142, 143, 144, 145, 146, 147, 148, 149, 150, 151, 152, 153, 154, 155, 156, 157, 158, 159, 160, 161, 162, 163, 164, 165, 166, 167, 168, 169, 170, 171, 172, 173, 174, 175, 176, 177, 178, 179, 180, 181, 182, 183, 184, 185, 186, 187, 188, 189, 190, 191, 192],
      "LargestImagePixelValue": [34670, 34134, 33719, 33279, 32083, 32759, 32186, 32093, 32579, 32193, 32136, 32622, 31739, 33163, 32161, 32057, 33321, 32391, 31817, 32719, 32267, 32447, 32880, 32570, 32494, 33019, 31900, 32277, 32473, 31640, 32145, 32511, 31600, 31529, 32320, 32249, 31750, 33263, 32203, 32214, 32595, 32113, 32146, 32171, 33348, 32385, 32184, 32569, 32892, 32165, 32195, 32940, 33245, 32405, 32501, 32253, 32707, 32963, 32156, 32330, 33107, 31905, 32453, 33018, 32006, 32557, 33323, 32186, 32118, 33823, 32570, 32200, 33327, 32685, 32727, 32833, 32834, 32594, 33302, 33902, 31887, 31922, 32881, 31899, 31905, 32776, 32210, 32100, 32440, 32213, 33138, 32497, 31877, 32411, 31691, 32685, 32852, 32083, 32563, 32938, 32206, 32051, 32672, 32029, 31732, 32314, 32179, 32599, 33959, 31949, 32749, 33267, 32355, 32735, 32460, 32065, 32861, 32618, 32614, 32235, 32834, 32342, 32347, 33405, 32503, 32389, 34031, 32260, 32253, 33166, 32495, 32757, 33027, 32646, 32352, 32681, 32664, 33829, 31929, 34083, 33232, 32281, 33274, 32722, 32407, 33788, 32838, 32539, 32201, 33879, 33862, 33799, 32661, 33496, 34395, 32716, 33755, 34443, 32532, 33865, 34580, 32108, 33717, 32139, 33421, 34264, 32323, 33949, 34628, 33234, 34256, 33966, 32964, 34644, 32573, 32705, 33980, 33273, 32677, 33704, 33056, 33582, 33805, 33376, 33012, 34264, 33220, 33211, 33653, 32032, 34252, 33565],
      "WindowCenter": [10004.0, 9973.0, 9950.0, 9950.0, 9924.0, 9929.0, 9927.0, 9916.0, 9919.0, 9905.0, 9912.0, 9919.0, 9909.0, 9931.0, 9915.0, 9914.0, 9936.0, 9936.0, 9933.0, 9955.0, 9957.0, 9962.0, 9960.0, 9945.0, 9929.0, 9927.0, 9905.0, 9905.0, 9896.0, 9889.0, 9894.0, 9902.0, 9897.0, 9899.0, 9912.0, 9911.0, 9900.0, 9922.0, 9912.0, 9912.0, 9920.0, 9914.0, 9907.0, 9926.0, 9931.0, 9927.0, 9931.0, 9934.0, 9933.0, 9915.0, 9913.0, 9914.0, 9913.0, 9905.0, 9917.0, 9909.0, 9927.0, 9933.0, 9923.0, 9929.0, 9934.0, 9915.0, 9919.0, 9925.0, 9901.0, 9903.0, 9909.0, 9906.0, 9907.0, 9931.0, 9910.0, 9904.0, 9915.0, 9904.0, 9906.0, 9906.0, 9891.0, 9891.0, 9905.0, 9922.0, 9907.0, 9915.0, 9933.0, 9915.0, 9906.0, 9910.0, 9904.0, 9897.0, 9909.0, 9920.0, 9920.0, 9910.0, 9905.0, 9904.0, 9891.0, 9902.0, 9916.0, 9905.0, 9917.0, 9933.0, 9893.0, 9893.0, 9901.0, 9895.0, 9898.0, 9921.0, 9935.0, 9935.0, 9950.0, 9916.0, 9912.0, 9908.0, 9901.0, 9908.0, 9905.0, 9909.0, 9919.0, 9916.0, 9911.0, 9903.0, 9906.0, 9895.0, 9894.0, 9905.0, 9893.0, 9887.0, 9906.0, 9893.0, 9895.0, 9902.0, 9900.0, 9902.0, 9906.0, 9911.0, 9911.0, 9925.0, 9940.0, 9943.0, 9917.0, 9935.0, 9914.0, 9897.0, 9896.0, 9882.0, 9883.0, 9913.0, 9905.0, 9905.0, 9905.0, 9925.0, 9933.0, 9929.0, 9912.0, 9921.0, 9934.0, 9902.0, 9906.0, 9915.0, 9891.0, 9915.0, 9932.0, 9914.0, 9938.0, 9922.0, 9933.0, 9940.0, 9912.0, 9932.0, 9932.0, 9913.0, 9915.0, 9894.0, 9875.0, 9888.0, 9864.0, 9864.0, 9874.0, 9874.0, 9874.0, 9885.0, 9894.0, 9906.0, 9907.0, 9898.0, 9890.0, 9897.0, 9887.0, 9873.0, 9870.0, 9861.0, 9891.0, 9889.0],
      "WindowWidth": [21303.0, 21214.0, 21159.0, 21155.0, 21102.0, 21107.0, 21103.0, 21080.0, 21082.0, 21053.0, 21068.0, 21083.0, 21068.0, 21107.0, 21077.0, 21076.0, 21120.0, 21124.0, 21124.0, 21171.0, 21179.0, 21191.0, 21182.0, 21147.0, 21111.0, 21101.0, 21054.0, 21055.0, 21031.0, 21015.0, 21026.0, 21043.0, 21035.0, 21044.0, 21068.0, 21065.0, 21047.0, 21088.0, 21069.0, 21072.0, 21087.0, 21077.0, 21062.0, 21101.0, 21105.0, 21102.0, 21113.0, 21116.0, 21114.0, 21077.0, 21071.0, 21068.0, 21068.0, 21054.0, 21075.0, 21064.0, 21104.0, 21115.0, 21102.0, 21111.0, 21119.0, 21084.0, 21087.0, 21097.0, 21048.0, 21049.0, 21059.0, 21058.0, 21062.0, 21107.0, 21065.0, 21052.0, 21070.0, 21050.0, 21050.0, 21047.0, 21016.0, 21017.0, 21048.0, 21078.0, 21059.0, 21076.0, 21115.0, 21077.0, 21055.0, 21062.0, 21052.0, 21038.0, 21064.0, 21089.0, 21083.0, 21063.0, 21055.0, 21050.0, 21025.0, 21046.0, 21075.0, 21058.0, 21080.0, 21116.0, 21026.0, 21026.0, 21040.0, 21029.0, 21042.0, 21091.0, 21123.0, 21123.0, 21150.0, 21082.0, 21070.0, 21057.0, 21046.0, 21060.0, 21057.0, 21072.0, 21088.0, 21079.0, 21067.0, 21048.0, 21053.0, 21032.0, 21027.0, 21048.0, 21026.0, 21010.0, 21045.0, 21026.0, 21029.0, 21041.0, 21042.0, 21047.0, 21054.0, 21069.0, 21072.0, 21101.0, 21136.0, 21138.0, 21090.0, 21116.0, 21074.0, 21039.0, 21028.0, 20998.0, 21003.0, 21061.0, 21049.0, 21052.0, 21056.0, 21093.0, 21112.0, 21103.0, 21071.0, 21086.0, 21114.0, 21050.0, 21053.0, 21067.0, 21024.0, 21071.0, 21108.0, 21084.0, 21127.0, 21100.0, 21120.0, 21125.0, 21072.0, 21108.0, 21107.0, 21067.0, 21066.0, 21019.0, 20981.0, 20997.0, 20951.0, 20951.0, 20968.0, 20970.0, 20979.0, 21001.0, 21024.0, 21050.0, 21051.0, 21035.0, 21017.0, 21027.0, 21008.0, 20976.0, 20969.0, 20954.0, 21011.0, 21008.0]
    },
    "slices": {}
  },
  "NumberOfVolumes": 192
}