{
  "AcquisitionMatrixPE": 104,
  "AcquisitionNumber": 1,
  "AcquisitionTime": "12:47:57.527500",
  "BandwidthPerPixelPhaseEncode": 16.297,
  "BaseResolution": 104,
  "BodyPartExamined": "BRAIN",
  "ConsistencyInfo": "N4_VE11C_LATEST_20160120",
  "ConversionSoftware": "dcm2niix",
  "ConversionSoftwareVersion": "v1.0.20190902",
  "DerivedVendorReportedEchoSpacing": 0.000590009,
  "DeviceSerialNumber": "166018",
  "DwellTime": 2.1e-06,
  "EchoTime": 0.0376,
  "EchoTrainLength": 104,
  "EffectiveEchoSpacing": 0.000590009,
  "FlipAngle": 68,
  "ImageComments": "Unaliased_MB6_PE3_LB",
  "ImageOrientationPatientDICOM": [0.997485, 0.0708704, 0.000940899, -0.069576, 0.981626, -0.177681],
  "ImageType": [
    "ORIGINAL",
    "PRIMARY",
    "M",
    "MB",
    "ND",
    "MOSAIC"
],
  "ImagingFrequency": 123.191,
  "InPlanePhaseEncodingDirectionDICOM": "COL",
  "InstitutionAddress": "Washington_Place_6_NYC_NYC_US_10003",
  "InstitutionName": "NYU_-_CBI",
  "InstitutionalDepartmentName": "Department",
  "MRAcquisitionType": "2D",
  "MagneticFieldStrength": 3,
  "Manufacturer": "Siemens",
  "ManufacturersModelName": "Prisma",
  "Modality": "MR",
  "MultibandAccelerationFactor": 6,
  "PartialFourier": 1,
  "PatientPosition": "HFS",
  "PercentPhaseFOV": 100,
  "PhaseEncodingDirection": "j",
  "PhaseEncodingSteps": 104,
  "PhaseResolution": 1,
  "PixelBandwidth": 2290,
  "ProcedureStepDescription": "Investigators_Blessing",
  "ProtocolName": "cmrr_mbepi_s6_2mm_66sl_PA_task-prf",
  "PulseSequenceDetails": "%CustomerSeq%_cmrr_mbep2d_bold",
  "ReceiveCoilActiveElements": "HC1-7",
  "ReceiveCoilName": "HeadNeck_64",
  "ReconMatrixPE": 104,
  "RepetitionTime": 1,
  "SAR": 0.068826,
  "ScanOptions": "FS",
  "ScanningSequence": "EP",
  "SequenceName": "epfid2d1_104",
  "SequenceVariant": "SK_SS",
  "SeriesDescription": "cmrr_mbepi_s6_2mm_66sl_PA_task-prf",
  "SeriesNumber": 22,
  "ShimSetting": [230, -12530, -8417, 659, -123, 53, -236, 65],
  "SliceThickness": 2,
  "SliceTiming": [0, 0.5325, 0.0875, 0.6225, 0.1775, 0.7125, 0.2675, 0.8, 0.355, 0.89, 0.445, 0, 0.5325, 0.0875, 0.6225, 0.1775, 0.7125, 0.2675, 0.8, 0.355, 0.89, 0.445, 0, 0.5325, 0.0875, 0.6225, 0.1775, 0.7125, 0.2675, 0.8, 0.355, 0.89, 0.445, 0, 0.5325, 0.0875, 0.6225, 0.1775, 0.7125, 0.2675, 0.8, 0.355, 0.89, 0.445, 0, 0.5325, 0.0875, 0.6225, 0.1775, 0.7125, 0.2675, 0.8, 0.355, 0.89, 0.445, 0, 0.5325, 0.0875, 0.6225, 0.1775, 0.7125, 0.2675, 0.8, 0.355, 0.89, 0.445],
  "SoftwareVersions": "syngo_MR_E11",
  "SpacingBetweenSlices": 2,
  "StationName": "AWP166018",
  "TaskName": "prf",
  "TotalReadoutTime": 0.060771,
  "TxRefAmp": 230.194,
  "VendorReportedEchoSpacing": 0.00059,
  "WipMemBlock": "91898721-a113-4cf2-8671-a18f4da0d760||Sequence: R016 ve11c/master r/8780670; Nov 27 2017 15:05:12 by eja",
  "dcmmeta_affine": [
    [-1.9949702024459839, -0.13915205001831055, 0.02703181467950344, 113.21038055419922],
    [-0.1417408585548401, 1.9632512331008911, -0.3543364703655243, -62.96363830566406],
    [0.0018817979143932462, 0.35536107420921326, 1.9681755304336548, -66.46185302734375],
    [0.0, 0.0, 0.0, 1.0]
],
  "dcmmeta_reorient_transform": [
    [0.0, -1.0, 0.0, 103.0],
    [1.0, 0.0, 0.0, 0.0],
    [0.0, 0.0, 1.0, 0.0],
    [0.0, 0.0, 0.0, 1.0]
],
  "dcmmeta_shape": [104, 104, 66, 192],
  "dcmmeta_slice_dim": 2,
  "dcmmeta_version": 0.6,
  "global": {
    "const": {
      "AccessionNumber": "kqL6z354",
      "AcquisitionMatrix": [104, 0, 0, 104],
      "AngioFlag": "N",
      "BitsAllocated": 16,
      "BitsStored": 16,
      "BodyPartExamined": "BRAIN",
      "Columns": 936,
      "EchoNumbers": 1,
      "EchoTime": 37.6,
      "EchoTrainLength": 104,
      "FlipAngle": 68.0,
      "HighBit": 15,
      "ImageOrientationPatient": [0.99748508601541, 0.07087043026506, 0.00094089897092, -0.0695760262753, 0.9816255910177, -0.1776805437489],
      "ImagePositionPatient": [-870.89805348545, -1014.9279228781, 117.18772218501],
      "ImageType": [
        "ORIGINAL",
        "PRIMARY",
        "M",
        "MB",
        "ND",
        "MOSAIC"
],
      "ImagedNucleus": "1H",
      "ImagingFrequency": 123.190654,
      "InPlanePhaseEncodingDirection": "COL",
      "MRAcquisitionType": "2D",
      "MagneticFieldStrength": 3.0,
      "Manufacturer": "SIEMENS",
      "ManufacturerModelName": "Prisma",
      "Modality": "MR",
      "NumberOfAverages": 1.0,
      "NumberOfPhaseEncodingSteps": 104,
      "PercentPhaseFieldOfView": 100.0,
      "PercentSampling": 100.0,
      "PerformedProcedureStepStartTime": "120139.460000",
      "PhotometricInterpretation": "MONOCHROME2",
      "PixelBandwidth": 2290.0,
      "PixelRepresentation": 0,
      "PixelSpacing": [2.0, 2.0],
      "ProtocolName": "cmrr_mbepi_s6_2mm_66sl_PA_task-prf",
      "RepetitionTime": 1000.0,
      "Rows": 936,
      "SAR": 0.06882603948902,
      "SamplesPerPixel": 1,
      "ScanOptions": "FS",
      "ScanningSequence": "EP",
      "SequenceName": "epfid2d1_104",
      "SequenceVariant": [
        "SK",
        "SS"
],
      "SeriesDescription": "cmrr_mbepi_s6_2mm_66sl_PA_task-prf",
      "SeriesNumber": 22,
      "SeriesTime": "124902.306000",
      "SliceLocation": -52.719000727401,
      "SliceThickness": 2.0,
      "SmallestImagePixelValue": 0,
      "SoftwareVersions": "syngo MR E11",
      "SpacingBetweenSlices": 2.0000000280231,
      "SpecificCharacterSet": "ISO_IR 100",
      "StudyID": "1",
      "StudyTime": "120139.397000",
      "TransmitCoilName": "Body",
      "VariableFlipAngleFlag": "N",
      "WindowCenterWidthExplanation": "Algo1",
      "dBdt": 0.0},
    "slices": {}
  },
  "time": {
    "samples": {
      "AcquisitionNumber": [1, 2, 3, 4, 5, 6, 7, 8, 9, 10, 11, 12, 13, 14, 15, 16, 17, 18, 19, 20, 21, 22, 23, 24, 25, 26, 27, 28, 29, 30, 31, 32, 33, 34, 35, 36, 37, 38, 39, 40, 41, 42, 43, 44, 45, 46, 47, 48, 49, 50, 51, 52, 53, 54, 55, 56, 57, 58, 59, 60, 61, 62, 63, 64, 65, 66, 67, 68, 69, 70, 71, 72, 73, 74, 75, 76, 77, 78, 79, 80, 81, 82, 83, 84, 85, 86, 87, 88, 89, 90, 91, 92, 93, 94, 95, 96, 97, 98, 99, 100, 101, 102, 103, 104, 105, 106, 107, 108, 109, 110, 111, 112, 113, 114, 115, 116, 117, 118, 119, 120, 121, 122, 123, 124, 125, 126, 127, 128, 129, 130, 131, 132, 133, 134, 135, 136, 137, 138, 139, 140, 141, 142, 143, 144, 145, 146, 147, 148, 149, 150, 151, 152, 153, 154, 155, 156, 157, 158, 159, 160, 161, 162, 163, 164, 165, 166, 167, 168, 169, 170, 171, 172, 173, 174, 175, 176, 177, 178, 179, 180, 181, 182, 183, 184, 185, 186, 187, 188, 189, 190, 191, 192],
      "AcquisitionTime": ["124757.527500", "124758.527500", "124759.527500", "124800.527500", "124801.527500", "124802.527500", "124803.527500", "124804.527500", "124805.527500", "124806.527500", "124807.527500", "124808.527500", "124809.527500", "124810.527500", "124811.527500", "124812.527500", "124813.527500", "124814.527500", "124815.527500", "124816.527500", "124817.527500", "124818.527500", "124819.527500", "124820.527500", "124821.527500", "124822.527500", "124823.527500", "124824.527500", "124825.527500", "124826.527500", "124827.527500", "124828.527500", "124829.527500", "124830.527500", "124831.527500", "124832.527500", "124833.527500", "124834.527500", "124835.527500", "124836.527500", "124837.527500", "124838.527500", "124839.527500", "124840.527500", "124841.527500", "124842.527500", "124843.527500", "124844.527500", "124845.527500", "124846.527500", "124847.527500", "124848.527500", "124849.527500", "124850.527500", "124851.527500", "124852.527500", "124853.527500", "124854.527500", "124855.527500", "124856.527500", "124857.527500", "124858.527500", "124859.527500", "124900.527500", "124901.527500", "124902.527500", "124903.527500", "124904.527500", "124905.527500", "124906.527500", "124907.527500", "124908.527500", "124909.527500", "124910.527500", "124911.527500", "124912.527500", "124913.527500", "124914.527500", "124915.527500", "124916.527500", "124917.527500", "124918.527500", "124919.527500", "124920.527500", "124921.527500", "124922.527500", "124923.527500", "124924.527500", "124925.527500", "124926.527500", "124927.527500", "124928.527500", "124929.527500", "124930.527500", "124931.527500", "124932.527500", "124933.527500", "124934.527500", "124935.527500", "124936.527500", "124937.527500", "124938.527500", "124939.527500", "124940.527500", "124941.527500", "124942.527500", "124943.527500", "124944.527500", "124945.527500", "124946.527500", "124947.527500", "124948.527500", "124949.527500", "124950.527500", "124951.527500", "124952.527500", "124953.527500", "124954.527500", "124955.527500", "124956.527500", "124957.527500", "124958.527500", "124959.527500", "125000.527500", "125001.527500", "125002.527500", "125003.527500", "125004.527500", "125005.527500", "125006.527500", "125007.527500", "125008.527500", "125009.527500", "125010.527500", "125011.527500", "125012.527500", "125013.527500", "125014.527500", "125015.527500", "125016.527500", "125017.527500", "125018.527500", "125019.527500", "125020.527500", "125021.527500", "125022.527500", "125023.527500", "125024.527500", "125025.527500", "125026.527500", "125027.527500", "125028.527500", "125029.527500", "125030.527500", "125031.527500", "125032.527500", "125033.527500", "125034.527500", "125035.527500", "125036.527500", "125037.527500", "125038.527500", "125039.527500", "125040.527500", "125041.527500", "125042.527500", "125043.527500", "125044.527500", "125045.527500", "125046.527500", "125047.527500", "125048.527500", "125049.527500", "125050.527500", "125051.527500", "125052.527500", "125053.527500", "125054.527500", "125055.527500", "125056.527500", "125057.527500", "125058.527500", "125059.527500", "125100.527500", "125101.527500", "125102.527500", "125103.527500", "125104.527500", "125105.527500", "125106.527500", "125107.527500", "125108.527500"],
      "ContentTime": ["124902.309000", "124902.313000", "124902.316000", "124902.319000", "124902.322000", "124902.325000", "124902.328000", "124902.331000", "124902.334000", "124902.337000", "124902.340000", "124902.343000", "124902.346000", "124902.349000", "124902.356000", "124902.359000", "124902.362000", "124902.365000", "124902.368000", "124902.371000", "124902.382000", "124902.385000", "124922.273000", "124922.277000", "124922.279000", "124922.283000", "124922.286000", "124922.289000", "124922.292000", "124922.295000", "124922.298000", "124922.301000", "124922.304000", "124922.307000", "124922.310000", "124922.313000", "124922.321000", "124922.324000", "124922.327000", "124922.330000", "124922.333000", "124922.336000", "124922.339000", "124922.342000", "124922.345000", "124922.348000", "124922.351000", "124922.354000", "124922.357000", "124922.360000", "124942.273000", "124942.276000", "124942.279000", "124942.282000", "124942.285000", "124942.288000", "124942.291000", "124942.294000", "124942.297000", "124942.300000", "124942.303000", "124942.306000", "124942.309000", "124942.312000", "124942.315000", "124942.318000", "124942.321000", "124942.324000", "124942.327000", "124942.330000", "124942.333000", "124942.336000", "124942.339000", "124942.342000", "124942.345000", "124942.348000", "124942.351000", "124942.354000", "124942.357000", "125002.273000", "125002.276000", "125002.279000", "125002.282000", "125002.285000", "125002.288000", "125002.291000", "125002.294000", "125002.298000", "125002.300000", "125002.303000", "125002.306000", "125002.309000", "125002.312000", "125002.315000", "125002.318000", "125002.321000", "125002.324000", "125002.327000", "125002.330000", "125002.334000", "125002.337000", "125002.340000", "125002.343000", "125002.346000", "125002.349000", "125002.352000", "125002.355000", "125022.272000", "125022.275000", "125022.278000", "125022.289000", "125022.293000", "125022.296000", "125022.299000", "125022.302000", "125022.305000", "125022.308000", "125022.311000", "125022.313000", "125022.317000", "125022.327000", "125022.330000", "125022.333000", "125022.336000", "125022.339000", "125022.342000", "125022.345000", "125022.348000", "125022.351000", "125022.354000", "125022.357000", "125022.360000", "125022.363000", "125022.366000", "125022.369000", "125042.272000", "125042.275000", "125042.278000", "125042.281000", "125042.284000", "125042.287000", "125042.290000", "125042.293000", "125042.296000", "125042.299000", "125042.302000", "125042.305000", "125042.308000", "125042.311000", "125042.314000", "125042.317000", "125042.320000", "125042.323000", "125042.326000", "125042.329000", "125042.332000", "125042.335000", "125042.338000", "125042.341000", "125042.345000", "125042.348000", "125042.351000", "125042.354000", "125102.272000", "125102.275000", "125102.278000", "125102.281000", "125102.284000", "125102.287000", "125102.290000", "125102.293000", "125102.296000", "125102.299000", "125102.303000", "125102.305000", "125102.308000", "125102.311000", "125102.315000", "125102.317000", "125102.320000", "125102.323000", "125102.326000", "125102.329000", "125102.332000", "125109.778000", "125109.781000", "125109.785000", "125109.788000", "125109.791000", "125109.795000", "125109.798000", "125109.801000"],
      "InstanceCreationTime": ["124902.309000", "124902.313000", "124902.316000", "124902.319000", "124902.322000", "124902.325000", "124902.328000", "124902.331000", "124902.334000", "124902.337000", "124902.340000", "124902.343000", "124902.346000", "124902.349000", "124902.356000", "124902.359000", "124902.362000", "124902.365000", "124902.368000", "124902.371000", "124902.382000", "124902.385000", "124922.273000", "124922.277000", "124922.279000", "124922.283000", "124922.286000", "124922.289000", "124922.292000", "124922.295000", "124922.298000", "124922.301000", "124922.304000", "124922.307000", "124922.310000", "124922.313000", "124922.321000", "124922.324000", "124922.327000", "124922.330000", "124922.333000", "124922.336000", "124922.339000", "124922.342000", "124922.345000", "124922.348000", "124922.351000", "124922.354000", "124922.357000", "124922.360000", "124942.273000", "124942.276000", "124942.279000", "124942.282000", "124942.285000", "124942.288000", "124942.291000", "124942.294000", "124942.297000", "124942.300000", "124942.303000", "124942.306000", "124942.309000", "124942.312000", "124942.315000", "124942.318000", "124942.321000", "124942.324000", "124942.327000", "124942.330000", "124942.333000", "124942.336000", "124942.339000", "124942.342000", "124942.345000", "124942.348000", "124942.351000", "124942.354000", "124942.357000", "125002.273000", "125002.276000", "125002.279000", "125002.282000", "125002.285000", "125002.288000", "125002.291000", "125002.294000", "125002.298000", "125002.300000", "125002.303000", "125002.306000", "125002.309000", "125002.312000", "125002.315000", "125002.318000", "125002.321000", "125002.324000", "125002.327000", "125002.330000", "125002.334000", "125002.337000", "125002.340000", "125002.343000", "125002.346000", "125002.349000", "125002.352000", "125002.355000", "125022.272000", "125022.275000", "125022.278000", "125022.289000", "125022.293000", "125022.296000", "125022.299000", "125022.302000", "125022.305000", "125022.308000", "125022.311000", "125022.313000", "125022.317000", "125022.327000", "125022.330000", "125022.333000", "125022.336000", "125022.339000", "125022.342000", "125022.345000", "125022.348000", "125022.351000", "125022.354000", "125022.357000", "125022.360000", "125022.363000", "125022.366000", "125022.369000", "125042.272000", "125042.275000", "125042.278000", "125042.281000", "125042.284000", "125042.287000", "125042.290000", "125042.293000", "125042.296000", "125042.299000", "125042.302000", "125042.305000", "125042.308000", "125042.311000", "125042.314000", "125042.317000", "125042.320000", "125042.323000", "125042.326000", "125042.329000", "125042.332000", "125042.335000", "125042.338000", "125042.341000", "125042.345000", "125042.348000", "125042.351000", "125042.354000", "125102.272000", "125102.275000", "125102.278000", "125102.281000", "125102.284000", "125102.287000", "125102.290000", "125102.293000", "125102.296000", "125102.299000", "125102.303000", "125102.305000", "125102.308000", "125102.311000", "125102.315000", "125102.317000", "125102.320000", "125102.323000", "125102.326000", "125102.329000", "125102.332000", "125109.778000", "125109.781000", "125109.785000", "125109.788000", "125109.791000", "125109.795000", "125109.798000", "125109.801000"],
      "InstanceNumber": [1, 2, 3, 4, 5, 6, 7, 8, 9, 10, 11, 12, 13, 14, 15, 16, 17, 18, 19, 20, 21, 22, 23, 24, 25, 26, 27, 28, 29, 30, 31, 32, 33, 34, 35, 36, 37, 38, 39, 40, 41, 42, 43, 44, 45, 46, 47, 48, 49, 50, 51, 52, 53, 54, 55, 56, 57, 58, 59, 60, 61, 62, 63, 64, 65, 66, 67, 68, 69, 70, 71, 72, 73, 74, 75, 76, 77, 78, 79, 80, 81, 82, 83, 84, 85, 86, 87, 88, 89, 90, 91, 92, 93, 94, 95, 96, 97, 98, 99, 100, 101, 102, 103, 104, 105, 106, 107, 108, 109, 110, 111, 112, 113, 114, 115, 116, 117, 118, 119, 120, 121, 122, 123, 124, 125, 126, 127, 128, 129, 130, 131, 132, 133, 134, 135, 136, 137, 138, 139, 140, 141, 142, 143, 144, 145, 146, 147, 148, 149, 150, 151, 152, 153, 154, 155, 156, 157, 158, 159, 160, 161, 162, 163, 164, 165, 166, 167, 168, 169, 170, 171, 172, 173, 174, 175, 176, 177, 178, 179, 180, 181, 182, 183, 184, 185, 186, 187, 188, 189, 190, 191, 192],
      "LargestImagePixelValue": [35246, 34221, 34256, 33485, 33523, 33867, 33648, 33457, 33341, 33538, 33477, 33177, 33204, 33150, 33410, 33363, 33433, 33390, 33470, 33587, 33925, 33871, 33924, 33991, 33020, 33080, 33000, 33422, 33764, 33704, 33441, 33509, 33650, 33392, 33458, 33820, 33258, 34156, 33910, 33286, 33469, 33474, 33428, 33947, 33581, 34148, 33941, 33495, 33884, 34171, 34189, 33698, 34298, 33615, 33846, 33885, 33735, 33584, 33646, 33681, 33795, 34016, 33550, 33808, 33569, 33560, 33335, 33455, 33371, 33363, 33269, 33248, 33775, 33530, 33693, 33868, 33866, 33685, 33646, 33994, 33932, 33651, 33793, 33521, 33627, 33586, 33264, 33910, 33471, 33571, 33285, 33216, 33027, 33089, 33122, 33422, 33384, 33227, 33473, 33545, 33183, 33928, 33561, 33293, 33515, 33592, 33383, 34340, 33446, 33815, 33302, 33201, 33250, 33589, 32618, 32664, 33569, 32988, 33129, 33193, 33194, 33831, 33368, 33174, 33666, 33236, 33081, 33765, 33436, 33228, 34018, 33549, 33336, 33196, 33315, 33487, 32735, 32969, 33932, 33048, 32852, 32849, 32231, 31893, 32426, 33227, 32720, 32765, 33412, 32855, 32379, 33372, 32681, 32916, 33163, 33998, 33196, 33006, 33729, 33080, 32911, 33482, 33500, 32974, 33926, 33487, 33230, 33831, 33510, 33321, 33571, 33743, 33339, 33803, 33508, 33053, 33792, 33607, 33545, 33976, 32939, 33527, 33635, 33687, 33624, 33786, 33229, 32942, 32802, 33433, 33582, 32540],
      "WindowCenter": [9895.0, 9874.0, 9872.0, 9864.0, 9859.0, 9851.0, 9841.0, 9835.0, 9819.0, 9822.0, 9821.0, 9815.0, 9822.0, 9817.0, 9818.0, 9825.0, 9832.0, 9830.0, 9837.0, 9845.0, 9845.0, 9850.0, 9847.0, 9847.0, 9836.0, 9843.0, 9846.0, 9848.0, 9849.0, 9846.0, 9848.0, 9830.0, 9821.0, 9817.0, 9821.0, 9828.0, 9830.0, 9851.0, 9860.0, 9857.0, 9864.0, 9858.0, 9851.0, 9850.0, 9832.0, 9834.0, 9822.0, 9813.0, 9819.0, 9822.0, 9816.0, 9813.0, 9809.0, 9794.0, 9801.0, 9812.0, 9813.0, 9819.0, 9826.0, 9821.0, 9826.0, 9823.0, 9813.0, 9817.0, 9816.0, 9812.0, 9806.0, 9816.0, 9816.0, 9822.0, 9824.0, 9828.0, 9826.0, 9821.0, 9822.0, 9820.0, 9825.0, 9813.0, 9818.0, 9830.0, 9838.0, 9839.0, 9837.0, 9823.0, 9807.0, 9803.0, 9789.0, 9795.0, 9792.0, 9796.0, 9803.0, 9811.0, 9810.0, 9825.0, 9820.0, 9815.0, 9808.0, 9798.0, 9807.0, 9807.0, 9806.0, 9817.0, 9812.0, 9806.0, 9803.0, 9803.0, 9797.0, 9816.0, 9806.0, 9812.0, 9808.0, 9806.0, 9809.0, 9805.0, 9789.0, 9785.0, 9803.0, 9791.0, 9804.0, 9813.0, 9812.0, 9821.0, 9813.0, 9813.0, 9814.0, 9797.0, 9793.0, 9809.0, 9807.0, 9817.0, 9820.0, 9817.0, 9801.0, 9799.0, 9791.0, 9811.0, 9802.0, 9818.0, 9827.0, 9810.0, 9807.0, 9782.0, 9776.0, 9787.0, 9805.0, 9808.0, 9811.0, 9803.0, 9818.0, 9801.0, 9797.0, 9809.0, 9811.0, 9816.0, 9812.0, 9819.0, 9816.0, 9811.0, 9816.0, 9807.0, 9801.0, 9815.0, 9822.0, 9818.0, 9844.0, 9840.0, 9827.0, 9832.0, 9825.0, 9823.0, 9830.0, 9825.0, 9817.0, 9830.0, 9822.0, 9812.0, 9830.0, 9825.0, 9825.0, 9829.0, 9819.0, 9822.0, 9821.0, 9815.0, 9807.0, 9814.0, 9808.0, 9823.0, 9827.0, 9833.0, 9839.0, 9829.0],
      "WindowWidth": [21031.0, 20977.0, 20965.0, 20946.0, 20934.0, 20911.0, 20890.0, 20878.0, 20843.0, 20844.0, 20841.0, 20835.0, 20847.0, 20838.0, 20841.0, 20856.0, 20872.0, 20868.0, 20884.0, 20899.0, 20899.0, 20913.0, 20906.0, 20906.0, 20883.0, 20901.0, 20905.0, 20907.0, 20905.0, 20899.0, 20905.0, 20862.0, 20843.0, 20835.0, 20844.0, 20860.0, 20867.0, 20913.0, 20932.0, 20932.0, 20948.0, 20934.0, 20920.0, 20915.0, 20873.0, 20872.0, 20845.0, 20827.0, 20836.0, 20843.0, 20830.0, 20825.0, 20811.0, 20781.0, 20797.0, 20821.0, 20825.0, 20838.0, 20857.0, 20844.0, 20851.0, 20849.0, 20827.0, 20834.0, 20833.0, 20821.0, 20814.0, 20837.0, 20839.0, 20850.0, 20856.0, 20864.0, 20853.0, 20846.0, 20845.0, 20838.0, 20848.0, 20822.0, 20833.0, 20864.0, 20883.0, 20888.0, 20882.0, 20850.0, 20815.0, 20803.0, 20774.0, 20781.0, 20778.0, 20788.0, 20802.0, 20819.0, 20821.0, 20853.0, 20842.0, 20830.0, 20814.0, 20792.0, 20813.0, 20813.0, 20812.0, 20834.0, 20827.0, 20814.0, 20807.0, 20807.0, 20794.0, 20831.0, 20816.0, 20827.0, 20819.0, 20814.0, 20821.0, 20809.0, 20777.0, 20769.0, 20802.0, 20782.0, 20808.0, 20826.0, 20826.0, 20844.0, 20827.0, 20826.0, 20827.0, 20794.0, 20788.0, 20814.0, 20817.0, 20839.0, 20842.0, 20841.0, 20805.0, 20795.0, 20780.0, 20824.0, 20811.0, 20843.0, 20858.0, 20826.0, 20817.0, 20759.0, 20745.0, 20774.0, 20814.0, 20814.0, 20827.0, 20807.0, 20839.0, 20803.0, 20799.0, 20822.0, 20829.0, 20842.0, 20833.0, 20847.0, 20840.0, 20831.0, 20839.0, 20818.0, 20806.0, 20836.0, 20852.0, 20849.0, 20898.0, 20892.0, 20866.0, 20874.0, 20858.0, 20853.0, 20866.0, 20856.0, 20843.0, 20871.0, 20853.0, 20837.0, 20868.0, 20861.0, 20860.0, 20865.0, 20848.0, 20849.0, 20847.0, 20835.0, 20818.0, 20833.0, 20820.0, 20856.0, 20865.0, 20878.0, 20886.0, 20872.0]
    },
    "slices": {}
  },
  "NumberOfVolumes": 192
}