{
  "AcquisitionMatrixPE": 104,
  "AcquisitionNumber": 1,
  "AcquisitionTime": "12:22:48.450000",
  "BandwidthPerPixelPhaseEncode": 16.297,
  "BaseResolution": 104,
  "BodyPartExamined": "BRAIN",
  "ConsistencyInfo": "N4_VE11C_LATEST_20160120",
  "ConversionSoftware": "dcm2niix",
  "ConversionSoftwareVersion": "v1.0.20190902",
  "DerivedVendorReportedEchoSpacing": 0.000590009,
  "DeviceSerialNumber": "166018",
  "DwellTime": 2.1e-06,
  "EchoTime": 0.0376,
  "EchoTrainLength": 104,
  "EffectiveEchoSpacing": 0.000590009,
  "FlipAngle": 68,
  "ImageComments": "Unaliased_MB6_PE3_LB",
  "ImageOrientationPatientDICOM": [0.997485, 0.0708704, 0.000940899, -0.069576, 0.981626, -0.177681],
  "ImageType": [
    "ORIGINAL",
    "PRIMARY",
    "M",
    "MB",
    "ND",
    "MOSAIC"
],
  "ImagingFrequency": 123.191,
  "InPlanePhaseEncodingDirectionDICOM": "COL",
  "InstitutionAddress": "Washington_Place_6_NYC_NYC_US_10003",
  "InstitutionName": "NYU_-_CBI",
  "InstitutionalDepartmentName": "Department",
  "MRAcquisitionType": "2D",
  "MagneticFieldStrength": 3,
  "Manufacturer": "Siemens",
  "ManufacturersModelName": "Prisma",
  "Modality": "MR",
  "MultibandAccelerationFactor": 6,
  "PartialFourier": 1,
  "PatientPosition": "HFS",
  "PercentPhaseFOV": 100,
  "PhaseEncodingDirection": "j",
  "PhaseEncodingSteps": 104,
  "PhaseResolution": 1,
  "PixelBandwidth": 2290,
  "ProcedureStepDescription": "Investigators_Blessing",
  "ProtocolName": "cmrr_mbepi_s6_2mm_66sl_PA_task-prf",
  "PulseSequenceDetails": "%CustomerSeq%_cmrr_mbep2d_bold",
  "ReceiveCoilActiveElements": "HC1-7",
  "ReceiveCoilName": "HeadNeck_64",
  "ReconMatrixPE": 104,
  "RepetitionTime": 1,
  "SAR": 0.068826,
  "ScanOptions": "FS",
  "ScanningSequence": "EP",
  "SequenceName": "epfid2d1_104",
  "SequenceVariant": "SK_SS",
  "SeriesDescription": "cmrr_mbepi_s6_2mm_66sl_PA_task-prf",
  "SeriesNumber": 10,
  "ShimSetting": [230, -12530, -8417, 659, -123, 53, -236, 65],
  "SliceThickness": 2,
  "SliceTiming": [0, 0.535, 0.0875, 0.6225, 0.1775, 0.7125, 0.2675, 0.8025, 0.355, 0.89, 0.445, 0, 0.535, 0.0875, 0.6225, 0.1775, 0.7125, 0.2675, 0.8025, 0.355, 0.89, 0.445, 0, 0.535, 0.0875, 0.6225, 0.1775, 0.7125, 0.2675, 0.8025, 0.355, 0.89, 0.445, 0, 0.535, 0.0875, 0.6225, 0.1775, 0.7125, 0.2675, 0.8025, 0.355, 0.89, 0.445, 0, 0.535, 0.0875, 0.6225, 0.1775, 0.7125, 0.2675, 0.8025, 0.355, 0.89, 0.445, 0, 0.535, 0.0875, 0.6225, 0.1775, 0.7125, 0.2675, 0.8025, 0.355, 0.89, 0.445],
  "SoftwareVersions": "syngo_MR_E11",
  "SpacingBetweenSlices": 2,
  "StationName": "AWP166018",
  "TaskName": "prf",
  "TotalReadoutTime": 0.060771,
  "TxRefAmp": 230.194,
  "VendorReportedEchoSpacing": 0.00059,
  "WipMemBlock": "91898721-a113-4cf2-8671-a18f4da0d760||Sequence: R016 ve11c/master r/8780670; Nov 27 2017 15:05:12 by eja",
  "dcmmeta_affine": [
    [-1.9949702024459839, -0.13915205001831055, 0.02703181467950344, 113.21038055419922],
    [-0.1417408585548401, 1.9632512331008911, -0.3543364703655243, -62.96363830566406],
    [0.0018817979143932462, 0.35536107420921326, 1.9681755304336548, -66.46185302734375],
    [0.0, 0.0, 0.0, 1.0]
],
  "dcmmeta_reorient_transform": [
    [0.0, -1.0, 0.0, 103.0],
    [1.0, 0.0, 0.0, 0.0],
    [0.0, 0.0, 1.0, 0.0],
    [0.0, 0.0, 0.0, 1.0]
],
  "dcmmeta_shape": [104, 104, 66, 192],
  "dcmmeta_slice_dim": 2,
  "dcmmeta_version": 0.6,
  "global": {
    "const": {
      "AccessionNumber": "kqL6z354",
      "AcquisitionMatrix": [104, 0, 0, 104],
      "AngioFlag": "N",
      "BitsAllocated": 16,
      "BitsStored": 16,
      "BodyPartExamined": "BRAIN",
      "Columns": 936,
      "EchoNumbers": 1,
      "EchoTime": 37.6,
      "EchoTrainLength": 104,
      "FlipAngle": 68.0,
      "HighBit": 15,
      "ImageOrientationPatient": [0.99748508601541, 0.07087043026506, 0.00094089897092, -0.0695760262753, 0.9816255910177, -0.1776805437489],
      "ImagePositionPatient": [-870.89805348545, -1014.9279228781, 117.18772218501],
      "ImageType": [
        "ORIGINAL",
        "PRIMARY",
        "M",
        "MB",
        "ND",
        "MOSAIC"
],
      "ImagedNucleus": "1H",
      "ImagingFrequency": 123.190654,
      "InPlanePhaseEncodingDirection": "COL",
      "MRAcquisitionType": "2D",
      "MagneticFieldStrength": 3.0,
      "Manufacturer": "SIEMENS",
      "ManufacturerModelName": "Prisma",
      "Modality": "MR",
      "NumberOfAverages": 1.0,
      "NumberOfPhaseEncodingSteps": 104,
      "PercentPhaseFieldOfView": 100.0,
      "PercentSampling": 100.0,
      "PerformedProcedureStepStartTime": "120139.460000",
      "PhotometricInterpretation": "MONOCHROME2",
      "PixelBandwidth": 2290.0,
      "PixelRepresentation": 0,
      "PixelSpacing": [2.0, 2.0],
      "ProtocolName": "cmrr_mbepi_s6_2mm_66sl_PA_task-prf",
      "RepetitionTime": 1000.0,
      "Rows": 936,
      "SAR": 0.06882603948902,
      "SamplesPerPixel": 1,
      "ScanOptions": "FS",
      "ScanningSequence": "EP",
      "SequenceName": "epfid2d1_104",
      "SequenceVariant": [
        "SK",
        "SS"
],
      "SeriesDescription": "cmrr_mbepi_s6_2mm_66sl_PA_task-prf",
      "SeriesNumber": 10,
      "SeriesTime": "122402.296000",
      "SliceLocation": -52.719000727401,
      "SliceThickness": 2.0,
      "SmallestImagePixelValue": 0,
      "SoftwareVersions": "syngo MR E11",
      "SpacingBetweenSlices": 2.0000000280231,
      "SpecificCharacterSet": "ISO_IR 100",
      "StudyID": "1",
      "StudyTime": "120139.397000",
      "TransmitCoilName": "Body",
      "VariableFlipAngleFlag": "N",
      "WindowCenterWidthExplanation": "Algo1",
      "dBdt": 0.0},
    "slices": {}
  },
  "time": {
    "samples": {
      "AcquisitionNumber": [1, 2, 3, 4, 5, 6, 7, 8, 9, 10, 11, 12, 13, 14, 15, 16, 17, 18, 19, 20, 21, 22, 23, 24, 25, 26, 27, 28, 29, 30, 31, 32, 33, 34, 35, 36, 37, 38, 39, 40, 41, 42, 43, 44, 45, 46, 47, 48, 49, 50, 51, 52, 53, 54, 55, 56, 57, 58, 59, 60, 61, 62, 63, 64, 65, 66, 67, 68, 69, 70, 71, 72, 73, 74, 75, 76, 77, 78, 79, 80, 81, 82, 83, 84, 85, 86, 87, 88, 89, 90, 91, 92, 93, 94, 95, 96, 97, 98, 99, 100, 101, 102, 103, 104, 105, 106, 107, 108, 109, 110, 111, 112, 113, 114, 115, 116, 117, 118, 119, 120, 121, 122, 123, 124, 125, 126, 127, 128, 129, 130, 131, 132, 133, 134, 135, 136, 137, 138, 139, 140, 141, 142, 143, 144, 145, 146, 147, 148, 149, 150, 151, 152, 153, 154, 155, 156, 157, 158, 159, 160, 161, 162, 163, 164, 165, 166, 167, 168, 169, 170, 171, 172, 173, 174, 175, 176, 177, 178, 179, 180, 181, 182, 183, 184, 185, 186, 187, 188, 189, 190, 191, 192],
      "AcquisitionTime": ["122248.450000", "122249.450000", "122250.450000", "122251.450000", "122252.450000", "122253.450000", "122254.450000", "122255.450000", "122256.450000", "122257.450000", "122258.450000", "122259.450000", "122300.450000", "122301.450000", "122302.450000", "122303.450000", "122304.450000", "122305.450000", "122306.450000", "122307.450000", "122308.450000", "122309.450000", "122310.450000", "122311.450000", "122312.450000", "122313.450000", "122314.450000", "122315.450000", "122316.450000", "122317.450000", "122318.450000", "122319.450000", "122320.450000", "122321.450000", "122322.450000", "122323.450000", "122324.450000", "122325.450000", "122326.450000", "122327.450000", "122328.450000", "122329.450000", "122330.450000", "122331.450000", "122332.450000", "122333.450000", "122334.450000", "122335.450000", "122336.450000", "122337.450000", "122338.450000", "122339.450000", "122340.450000", "122341.450000", "122342.450000", "122343.450000", "122344.450000", "122345.450000", "122346.450000", "122347.450000", "122348.450000", "122349.450000", "122350.450000", "122351.450000", "122352.450000", "122353.450000", "122354.450000", "122355.450000", "122356.450000", "122357.450000", "122358.450000", "122359.450000", "122400.450000", "122401.450000", "122402.450000", "122403.450000", "122404.450000", "122405.450000", "122406.450000", "122407.450000", "122408.450000", "122409.450000", "122410.450000", "122411.450000", "122412.450000", "122413.450000", "122414.450000", "122415.450000", "122416.450000", "122417.450000", "122418.450000", "122419.450000", "122420.450000", "122421.450000", "122422.450000", "122423.450000", "122424.450000", "122425.450000", "122426.450000", "122427.450000", "122428.450000", "122429.450000", "122430.450000", "122431.450000", "122432.450000", "122433.450000", "122434.450000", "122435.450000", "122436.450000", "122437.450000", "122438.450000", "122439.450000", "122440.450000", "122441.450000", "122442.450000", "122443.450000", "122444.450000", "122445.450000", "122446.450000", "122447.450000", "122448.450000", "122449.450000", "122450.450000", "122451.450000", "122452.450000", "122453.450000", "122454.450000", "122455.450000", "122456.450000", "122457.450000", "122458.450000", "122459.450000", "122500.450000", "122501.450000", "122502.450000", "122503.450000", "122504.450000", "122505.450000", "122506.450000", "122507.450000", "122508.450000", "122509.450000", "122510.450000", "122511.450000", "122512.450000", "122513.450000", "122514.450000", "122515.450000", "122516.450000", "122517.450000", "122518.450000", "122519.450000", "122520.450000", "122521.450000", "122522.450000", "122523.450000", "122524.450000", "122525.450000", "122526.450000", "122527.450000", "122528.450000", "122529.450000", "122530.450000", "122531.450000", "122532.450000", "122533.450000", "122534.450000", "122535.450000", "122536.450000", "122537.450000", "122538.450000", "122539.450000", "122540.450000", "122541.450000", "122542.450000", "122543.450000", "122544.450000", "122545.450000", "122546.450000", "122547.450000", "122548.450000", "122549.450000", "122550.450000", "122551.450000", "122552.450000", "122553.450000", "122554.450000", "122555.450000", "122556.450000", "122557.450000", "122558.450000", "122559.450000"],
      "ContentTime": ["122402.299000", "122402.310000", "122402.313000", "122402.316000", "122402.321000", "122402.324000", "122402.327000", "122402.330000", "122402.334000", "122402.337000", "122402.339000", "122402.356000", "122402.359000", "122402.362000", "122402.365000", "122402.368000", "122402.379000", "122402.382000", "122402.385000", "122402.388000", "122402.391000", "122402.394000", "122402.397000", "122402.400000", "122402.403000", "122422.273000", "122422.276000", "122422.279000", "122422.282000", "122422.285000", "122422.288000", "122422.291000", "122422.294000", "122422.297000", "122422.300000", "122422.303000", "122422.306000", "122422.309000", "122422.312000", "122422.315000", "122422.320000", "122422.323000", "122422.326000", "122422.329000", "122422.332000", "122422.335000", "122422.338000", "122422.341000", "122422.344000", "122422.347000", "122422.350000", "122422.353000", "122422.356000", "122442.273000", "122442.276000", "122442.279000", "122442.282000", "122442.285000", "122442.288000", "122442.291000", "122442.294000", "122442.297000", "122442.300000", "122442.303000", "122442.306000", "122442.309000", "122442.312000", "122442.315000", "122442.319000", "122442.322000", "122442.325000", "122442.328000", "122442.331000", "122442.334000", "122442.337000", "122442.340000", "122442.343000", "122442.346000", "122442.349000", "122442.352000", "122442.355000", "122442.358000", "122502.272000", "122502.275000", "122502.278000", "122502.281000", "122502.284000", "122502.287000", "122502.290000", "122502.294000", "122502.296000", "122502.299000", "122502.302000", "122502.309000", "122502.312000", "122502.315000", "122502.319000", "122502.322000", "122502.325000", "122502.328000", "122502.331000", "122502.343000", "122502.346000", "122502.349000", "122502.352000", "122502.355000", "122502.358000", "122502.361000", "122502.364000", "122502.367000", "122522.272000", "122522.275000", "122522.278000", "122522.281000", "122522.284000", "122522.287000", "122522.290000", "122522.293000", "122522.296000", "122522.299000", "122522.302000", "122522.306000", "122522.309000", "122522.312000", "122522.315000", "122522.318000", "122522.322000", "122522.325000", "122522.328000", "122522.331000", "122522.334000", "122522.337000", "122522.340000", "122522.343000", "122522.346000", "122522.349000", "122522.352000", "122522.355000", "122542.273000", "122542.276000", "122542.279000", "122542.282000", "122542.285000", "122542.288000", "122542.291000", "122542.294000", "122542.297000", "122542.301000", "122542.304000", "122542.307000", "122542.310000", "122542.313000", "122542.316000", "122542.320000", "122542.323000", "122542.327000", "122542.330000", "122542.333000", "122542.336000", "122542.339000", "122542.342000", "122542.345000", "122542.348000", "122542.351000", "122542.354000", "122542.357000", "122601.512000", "122601.515000", "122601.518000", "122601.522000", "122601.525000", "122601.528000", "122601.531000", "122601.534000", "122601.538000", "122601.541000", "122601.544000", "122601.547000", "122601.550000", "122601.553000", "122601.556000", "122601.559000", "122601.562000", "122601.565000", "122601.568000", "122601.571000", "122601.574000", "122601.577000", "122601.580000", "122601.583000", "122601.586000", "122601.589000"],
      "InstanceCreationTime": ["122402.299000", "122402.310000", "122402.313000", "122402.316000", "122402.321000", "122402.324000", "122402.327000", "122402.330000", "122402.334000", "122402.337000", "122402.339000", "122402.356000", "122402.359000", "122402.362000", "122402.365000", "122402.368000", "122402.379000", "122402.382000", "122402.385000", "122402.388000", "122402.391000", "122402.394000", "122402.397000", "122402.400000", "122402.403000", "122422.273000", "122422.276000", "122422.279000", "122422.282000", "122422.285000", "122422.288000", "122422.291000", "122422.294000", "122422.297000", "122422.300000", "122422.303000", "122422.306000", "122422.309000", "122422.312000", "122422.315000", "122422.320000", "122422.323000", "122422.326000", "122422.329000", "122422.332000", "122422.335000", "122422.338000", "122422.341000", "122422.344000", "122422.347000", "122422.350000", "122422.353000", "122422.356000", "122442.273000", "122442.276000", "122442.279000", "122442.282000", "122442.285000", "122442.288000", "122442.291000", "122442.294000", "122442.297000", "122442.300000", "122442.303000", "122442.306000", "122442.309000", "122442.312000", "122442.315000", "122442.319000", "122442.322000", "122442.325000", "122442.328000", "122442.331000", "122442.334000", "122442.337000", "122442.340000", "122442.343000", "122442.346000", "122442.349000", "122442.352000", "122442.355000", "122442.358000", "122502.272000", "122502.275000", "122502.278000", "122502.281000", "122502.284000", "122502.287000", "122502.290000", "122502.294000", "122502.296000", "122502.299000", "122502.302000", "122502.309000", "122502.312000", "122502.315000", "122502.319000", "122502.322000", "122502.325000", "122502.328000", "122502.331000", "122502.343000", "122502.346000", "122502.349000", "122502.352000", "122502.355000", "122502.358000", "122502.361000", "122502.364000", "122502.367000", "122522.272000", "122522.275000", "122522.278000", "122522.281000", "122522.284000", "122522.287000", "122522.290000", "122522.293000", "122522.296000", "122522.299000", "122522.302000", "122522.306000", "122522.309000", "122522.312000", "122522.315000", "122522.318000", "122522.322000", "122522.325000", "122522.328000", "122522.331000", "122522.334000", "122522.337000", "122522.340000", "122522.343000", "122522.346000", "122522.349000", "122522.352000", "122522.355000", "122542.273000", "122542.276000", "122542.279000", "122542.282000", "122542.285000", "122542.288000", "122542.291000", "122542.294000", "122542.297000", "122542.301000", "122542.304000", "122542.307000", "122542.310000", "122542.313000", "122542.316000", "122542.320000", "122542.323000", "122542.327000", "122542.330000", "122542.333000", "122542.336000", "122542.339000", "122542.342000", "122542.345000", "122542.348000", "122542.351000", "122542.354000", "122542.357000", "122601.512000", "122601.515000", "122601.518000", "122601.522000", "122601.525000", "122601.528000", "122601.531000", "122601.534000", "122601.538000", "122601.541000", "122601.544000", "122601.547000", "122601.550000", "122601.553000", "122601.556000", "122601.559000", "122601.562000", "122601.565000", "122601.568000", "122601.571000", "122601.574000", "122601.577000", "122601.580000", "122601.583000", "122601.586000", "122601.589000"],
      "InstanceNumber": [1, 2, 3, 4, 5, 6, 7, 8, 9, 10, 11, 12, 13, 14, 15, 16, 17, 18, 19, 20, 21, 22, 23, 24, 25, 26, 27, 28, 29, 30, 31, 32, 33, 34, 35, 36, 37, 38, 39, 40, 41, 42, 43, 44, 45, 46, 47, 48, 49, 50, 51, 52, 53, 54, 55, 56, 57, 58, 59, 60, 61, 62, 63, 64, 65, 66, 67, 68, 69, 70, 71, 72, 73, 74, 75, 76, 77, 78, 79, 80, 81, 82, 83, 84, 85, 86, 87, 88, 89, 90, 91, 92, 93, 94, 95, 96, 97, 98, 99, 100, 101, 102, 103, 104, 105, 106, 107, 108, 109, 110, 111, 112, 113, 114, 115, 116, 117, 118, 119, 120, 121, 122, 123, 124, 125, 126, 127, 128, 129, 130, 131, 132, 133, 134, 135, 136, 137, 138, 139, 140, 141, 142, 143, 144, 145, 146, 147, 148, 149, 150, 151, 152, 153, 154, 155, 156, 157, 158, 159, 160, 161, 162, 163, 164, 165, 166, 167, 168, 169, 170, 171, 172, 173, 174, 175, 176, 177, 178, 179, 180, 181, 182, 183, 184, 185, 186, 187, 188, 189, 190, 191, 192],
      "LargestImagePixelValue": [35967, 34768, 34004, 33874, 33921, 33438, 33372, 33778, 33274, 33379, 33691, 33274, 33435, 33428, 33658, 33276, 33342, 33551, 33721, 33313, 33644, 33658, 33832, 33616, 33373, 33735, 33338, 33534, 33858, 33584, 33428, 33302, 33314, 33674, 33001, 33357, 33618, 33086, 33067, 33875, 33569, 33262, 34099, 33456, 33007, 33596, 33168, 33187, 32966, 33189, 33124, 33456, 33289, 33323, 33970, 33644, 33226, 32872, 33681, 33446, 33658, 33290, 33190, 33387, 33062, 33430, 33530, 33264, 32993, 33755, 33282, 33459, 33674, 33082, 32863, 33760, 32723, 33659, 33250, 33079, 33037, 33186, 32828, 32995, 33153, 32765, 32977, 33296, 33082, 32923, 33182, 33513, 33302, 33092, 33563, 33414, 32963, 33552, 33528, 33376, 34044, 34144, 34345, 33996, 34089, 34236, 34425, 33246, 34560, 34826, 35143, 35230, 34319, 35089, 33571, 34536, 34698, 33889, 33914, 34535, 34460, 34459, 35468, 34213, 34170, 34392, 33398, 33375, 33361, 33819, 32781, 33864, 34609, 34888, 33970, 33467, 33510, 32428, 33689, 34121, 34244, 33879, 33955, 34540, 34528, 32643, 33384, 33804, 32970, 33347, 34092, 33594, 33064, 34789, 33411, 34143, 34512, 34915, 34100, 35058, 33910, 34024, 35288, 33885, 34778, 35619, 33598, 34922, 34721, 35005, 35172, 34169, 35481, 36111, 35070, 34564, 33989, 34503, 34718, 33881, 34576, 34928, 34662, 34198, 34938, 34846, 34001, 33717, 33681, 33728, 33421, 34397],
      "WindowCenter": [10007.0, 9974.0, 9942.0, 9934.0, 9931.0, 9928.0, 9919.0, 9925.0, 9918.0, 9909.0, 9914.0, 9910.0, 9910.0, 9909.0, 9917.0, 9906.0, 9898.0, 9911.0, 9922.0, 9925.0, 9935.0, 9939.0, 9939.0, 9926.0, 9907.0, 9908.0, 9911.0, 9914.0, 9928.0, 9924.0, 9922.0, 9926.0, 9927.0, 9940.0, 9935.0, 9940.0, 9935.0, 9929.0, 9929.0, 9939.0, 9934.0, 9928.0, 9945.0, 9944.0, 9937.0, 9948.0, 9945.0, 9944.0, 9938.0, 9944.0, 9937.0, 9949.0, 9946.0, 9950.0, 9949.0, 9941.0, 9926.0, 9921.0, 9924.0, 9932.0, 9932.0, 9934.0, 9942.0, 9940.0, 9943.0, 9945.0, 9957.0, 9963.0, 9948.0, 9943.0, 9930.0, 9920.0, 9916.0, 9914.0, 9906.0, 9921.0, 9912.0, 9916.0, 9908.0, 9904.0, 9896.0, 9908.0, 9910.0, 9904.0, 9899.0, 9895.0, 9893.0, 9891.0, 9896.0, 9893.0, 9891.0, 9904.0, 9911.0, 9909.0, 9916.0, 9901.0, 9895.0, 9902.0, 9901.0, 9909.0, 9914.0, 9929.0, 9937.0, 9940.0, 9937.0, 9941.0, 9946.0, 9940.0, 9952.0, 9955.0, 9955.0, 9957.0, 9949.0, 9951.0, 9933.0, 9946.0, 9947.0, 9937.0, 9935.0, 9947.0, 9962.0, 9956.0, 9973.0, 9957.0, 9956.0, 9948.0, 9935.0, 9937.0, 9936.0, 9943.0, 9934.0, 9949.0, 9956.0, 9956.0, 9951.0, 9944.0, 9943.0, 9928.0, 9942.0, 9956.0, 9958.0, 9948.0, 9944.0, 9951.0, 9956.0, 9942.0, 9946.0, 9960.0, 9954.0, 9955.0, 9965.0, 9959.0, 9955.0, 9977.0, 9962.0, 9981.0, 9994.0, 10002.0, 9993.0, 10003.0, 9980.0, 9971.0, 9971.0, 9952.0, 9972.0, 9968.0, 9955.0, 9962.0, 9958.0, 9977.0, 9984.0, 9986.0, 9999.0, 10000.0, 9987.0, 9973.0, 9963.0, 9968.0, 9973.0, 9968.0, 9971.0, 9985.0, 9993.0, 9985.0, 9996.0, 10007.0, 9986.0, 9980.0, 9990.0, 9981.0, 9983.0, 9993.0],
      "WindowWidth": [21300.0, 21215.0, 21135.0, 21113.0, 21107.0, 21103.0, 21082.0, 21095.0, 21076.0, 21054.0, 21063.0, 21058.0, 21060.0, 21058.0, 21078.0, 21052.0, 21032.0, 21058.0, 21088.0, 21098.0, 21123.0, 21128.0, 21128.0, 21097.0, 21053.0, 21058.0, 21064.0, 21068.0, 21102.0, 21093.0, 21087.0, 21101.0, 21102.0, 21131.0, 21121.0, 21132.0, 21123.0, 21113.0, 21110.0, 21129.0, 21118.0, 21107.0, 21142.0, 21143.0, 21128.0, 21151.0, 21146.0, 21142.0, 21132.0, 21143.0, 21124.0, 21150.0, 21146.0, 21153.0, 21148.0, 21129.0, 21096.0, 21089.0, 21092.0, 21111.0, 21109.0, 21119.0, 21136.0, 21130.0, 21142.0, 21146.0, 21174.0, 21191.0, 21157.0, 21142.0, 21113.0, 21088.0, 21077.0, 21072.0, 21057.0, 21085.0, 21069.0, 21074.0, 21056.0, 21049.0, 21031.0, 21055.0, 21063.0, 21047.0, 21034.0, 21027.0, 21022.0, 21014.0, 21026.0, 21022.0, 21016.0, 21044.0, 21064.0, 21058.0, 21074.0, 21041.0, 21028.0, 21041.0, 21039.0, 21057.0, 21067.0, 21100.0, 21119.0, 21129.0, 21122.0, 21130.0, 21142.0, 21133.0, 21159.0, 21164.0, 21161.0, 21161.0, 21147.0, 21150.0, 21115.0, 21139.0, 21141.0, 21124.0, 21116.0, 21142.0, 21177.0, 21162.0, 21196.0, 21168.0, 21164.0, 21145.0, 21120.0, 21124.0, 21121.0, 21132.0, 21120.0, 21148.0, 21164.0, 21161.0, 21153.0, 21140.0, 21135.0, 21108.0, 21136.0, 21165.0, 21170.0, 21147.0, 21140.0, 21149.0, 21164.0, 21140.0, 21147.0, 21179.0, 21167.0, 21169.0, 21188.0, 21175.0, 21169.0, 21209.0, 21188.0, 21223.0, 21254.0, 21275.0, 21258.0, 21277.0, 21233.0, 21210.0, 21203.0, 21163.0, 21198.0, 21185.0, 21163.0, 21170.0, 21161.0, 21207.0, 21225.0, 21232.0, 21258.0, 21258.0, 21234.0, 21203.0, 21185.0, 21192.0, 21205.0, 21193.0, 21198.0, 21233.0, 21252.0, 21236.0, 21260.0, 21285.0, 21242.0, 21230.0, 21253.0, 21231.0, 21236.0, 21254.0]
    },
    "slices": {}
  },
  "NumberOfVolumes": 192
}