{
  "AcquisitionMatrixPE": 104,
  "AcquisitionNumber": 1,
  "AcquisitionTime": "14:43:36.620000",
  "BandwidthPerPixelPhaseEncode": 16.297,
  "BaseResolution": 104,
  "BodyPartExamined": "BRAIN",
  "ConsistencyInfo": "N4_VE11C_LATEST_20160120",
  "ConversionSoftware": "dcm2niix",
  "ConversionSoftwareVersion": "v1.0.20210317",
  "DerivedVendorReportedEchoSpacing": 0.000590009,
  "DeviceSerialNumber": "166018",
  "DwellTime": 2.1e-06,
  "EchoTime": 0.0376,
  "EchoTrainLength": 104,
  "EffectiveEchoSpacing": 0.000590009,
  "FlipAngle": 68,
  "ImageComments": "Unaliased MB6/PE3/LB",
  "ImageOrientationPatientDICOM": [0.999981, 0.00390382, 0.00474829, -0.0022689, 0.952311, -0.30512],
  "ImageType": [
    "ORIGINAL",
    "PRIMARY",
    "M",
    "MB",
    "ND",
    "MOSAIC"
],
  "ImagingFrequency": 123.197,
  "InPlanePhaseEncodingDirectionDICOM": "COL",
  "InstitutionAddress": "Washington Place 6,NYC,NYC,US,10003",
  "InstitutionName": "NYU - CBI",
  "InstitutionalDepartmentName": "Department",
  "MRAcquisitionType": "2D",
  "MagneticFieldStrength": 3,
  "Manufacturer": "Siemens",
  "ManufacturersModelName": "Prisma",
  "Modality": "MR",
  "MultibandAccelerationFactor": 6,
  "PartialFourier": 1,
  "PatientPosition": "HFS",
  "PercentPhaseFOV": 100,
  "PercentSampling": 100,
  "PhaseEncodingDirection": "j",
  "PhaseEncodingSteps": 104,
  "PhaseResolution": 1,
  "PixelBandwidth": 2290,
  "ProcedureStepDescription": "Investigators^Winawer",
  "ProtocolName": "cmrr_mbepi_s6_2mm_66sl_PA_task-bar2",
  "PulseSequenceDetails": "%CustomerSeq%\\cmrr_mbep2d_bold",
  "ReceiveCoilActiveElements": "HC1-7",
  "ReceiveCoilName": "HeadNeck_64",
  "ReconMatrixPE": 104,
  "RepetitionTime": 1,
  "SAR": 0.0979689,
  "ScanOptions": "FS",
  "ScanningSequence": "EP",
  "SequenceName": "epfid2d1_104",
  "SequenceVariant": "SK\\SS",
  "SeriesDescription": "cmrr_mbepi_s6_2mm_66sl_PA_task-bar2",
  "SeriesNumber": 12,
  "ShimSetting": [312, -12640, -8434, 353, -38, -272, -51, 67],
  "SliceThickness": 2,
  "SliceTiming": [0, 0.535, 0.09, 0.625, 0.18, 0.7125, 0.2675, 0.8025, 0.3575, 0.8925, 0.4475, 0, 0.535, 0.09, 0.625, 0.18, 0.7125, 0.2675, 0.8025, 0.3575, 0.8925, 0.4475, 0, 0.535, 0.09, 0.625, 0.18, 0.7125, 0.2675, 0.8025, 0.3575, 0.8925, 0.4475, 0, 0.535, 0.09, 0.625, 0.18, 0.7125, 0.2675, 0.8025, 0.3575, 0.8925, 0.4475, 0, 0.535, 0.09, 0.625, 0.18, 0.7125, 0.2675, 0.8025, 0.3575, 0.8925, 0.4475, 0, 0.535, 0.09, 0.625, 0.18, 0.7125, 0.2675, 0.8025, 0.3575, 0.8925, 0.4475],
  "SoftwareVersions": "syngo MR E11",
  "SpacingBetweenSlices": 2,
  "StationName": "AWP166018",
  "TaskName": "bar2",
  "TotalReadoutTime": 0.060771,
  "TxRefAmp": 269.395,
  "VendorReportedEchoSpacing": 0.00059,
  "WipMemBlock": "ce0c5783-cabb-4c6a-9bb8-915856c8f8e9||Sequence: R016 ve11c/master r/8780670; Nov 27 2017 15:05:12 by eja",
  "dcmmeta_affine": [
    [-1.9999622106552124, -0.004537801258265972, 0.011425958946347237, 109.2089614868164],
    [-0.007807644084095955, 1.9046225547790527, -0.6102065443992615, -62.02650833129883],
    [0.009496571496129036, 0.6102396249771118, 1.904604196548462, -61.9390983581543],
    [0.0, 0.0, 0.0, 1.0]
],
  "dcmmeta_reorient_transform": [
    [0.0, -1.0, 0.0, 103.0],
    [1.0, 0.0, 0.0, 0.0],
    [0.0, 0.0, 1.0, 0.0],
    [0.0, 0.0, 0.0, 1.0]
],
  "dcmmeta_shape": [104, 104, 66, 300],
  "dcmmeta_slice_dim": 2,
  "dcmmeta_version": 0.6,
  "global": {
    "const": {
      "AccessionNumber": "LiLya2tg",
      "AcquisitionMatrix": [104, 0, 0, 104],
      "AngioFlag": "N",
      "BitsAllocated": 16,
      "BitsStored": 16,
      "BodyPartExamined": "BRAIN",
      "Columns": 936,
      "EchoNumbers": 1,
      "EchoTime": 37.6,
      "EchoTrainLength": 104,
      "FlipAngle": 68.0,
      "HighBit": 15,
      "ImageOrientationPatient": [0.99998110679942, 0.00390382212521, 0.00474828569319, -0.0022689006222, 0.95231126827363, -0.305119813203],
      "ImagePositionPatient": [-938.83812527558, -929.72056786893, 250.82469448186],
      "ImageType": [
        "ORIGINAL",
        "PRIMARY",
        "M",
        "MB",
        "ND",
        "MOSAIC"
],
      "ImagedNucleus": "1H",
      "ImagingFrequency": 123.196737,
      "InPlanePhaseEncodingDirection": "COL",
      "MRAcquisitionType": "2D",
      "MagneticFieldStrength": 3.0,
      "Manufacturer": "SIEMENS",
      "ManufacturerModelName": "Prisma",
      "Modality": "MR",
      "NumberOfAverages": 1.0,
      "NumberOfPhaseEncodingSteps": 104,
      "PercentPhaseFieldOfView": 100.0,
      "PercentSampling": 100.0,
      "PerformedProcedureStepStartTime": "141819.263000",
      "PhotometricInterpretation": "MONOCHROME2",
      "PixelBandwidth": 2290.0,
      "PixelRepresentation": 0,
      "PixelSpacing": [2.0, 2.0],
      "ProtocolName": "cmrr_mbepi_s6_2mm_66sl_PA_task-bar2",
      "RepetitionTime": 1000.0,
      "Rows": 936,
      "SAR": 0.09796886004748,
      "SamplesPerPixel": 1,
      "ScanOptions": "FS",
      "ScanningSequence": "EP",
      "SequenceName": "epfid2d1_104",
      "SequenceVariant": [
        "SK",
        "SS"
],
      "SeriesDescription": "cmrr_mbepi_s6_2mm_66sl_PA_task-bar2",
      "SeriesNumber": 12,
      "SeriesTime": "144442.210000",
      "SliceLocation": -39.436335615713,
      "SliceThickness": 2.0,
      "SmallestImagePixelValue": 0,
      "SoftwareVersions": "syngo MR E11",
      "SpacingBetweenSlices": 1.9999999536604,
      "SpecificCharacterSet": "ISO_IR 100",
      "StudyID": "1",
      "StudyTime": "141819.147000",
      "TransmitCoilName": "Body",
      "VariableFlipAngleFlag": "N",
      "WindowCenterWidthExplanation": "Algo1",
      "dBdt": 0.0},
    "slices": {}
  },
  "time": {
    "samples": {
      "AcquisitionNumber": [1, 2, 3, 4, 5, 6, 7, 8, 9, 10, 11, 12, 13, 14, 15, 16, 17, 18, 19, 20, 21, 22, 23, 24, 25, 26, 27, 28, 29, 30, 31, 32, 33, 34, 35, 36, 37, 38, 39, 40, 41, 42, 43, 44, 45, 46, 47, 48, 49, 50, 51, 52, 53, 54, 55, 56, 57, 58, 59, 60, 61, 62, 63, 64, 65, 66, 67, 68, 69, 70, 71, 72, 73, 74, 75, 76, 77, 78, 79, 80, 81, 82, 83, 84, 85, 86, 87, 88, 89, 90, 91, 92, 93, 94, 95, 96, 97, 98, 99, 100, 101, 102, 103, 104, 105, 106, 107, 108, 109, 110, 111, 112, 113, 114, 115, 116, 117, 118, 119, 120, 121, 122, 123, 124, 125, 126, 127, 128, 129, 130, 131, 132, 133, 134, 135, 136, 137, 138, 139, 140, 141, 142, 143, 144, 145, 146, 147, 148, 149, 150, 151, 152, 153, 154, 155, 156, 157, 158, 159, 160, 161, 162, 163, 164, 165, 166, 167, 168, 169, 170, 171, 172, 173, 174, 175, 176, 177, 178, 179, 180, 181, 182, 183, 184, 185, 186, 187, 188, 189, 190, 191, 192, 193, 194, 195, 196, 197, 198, 199, 200, 201, 202, 203, 204, 205, 206, 207, 208, 209, 210, 211, 212, 213, 214, 215, 216, 217, 218, 219, 220, 221, 222, 223, 224, 225, 226, 227, 228, 229, 230, 231, 232, 233, 234, 235, 236, 237, 238, 239, 240, 241, 242, 243, 244, 245, 246, 247, 248, 249, 250, 251, 252, 253, 254, 255, 256, 257, 258, 259, 260, 261, 262, 263, 264, 265, 266, 267, 268, 269, 270, 271, 272, 273, 274, 275, 276, 277, 278, 279, 280, 281, 282, 283, 284, 285, 286, 287, 288, 289, 290, 291, 292, 293, 294, 295, 296, 297, 298, 299, 300],
      "AcquisitionTime": ["144336.620000", "144337.620000", "144338.620000", "144339.620000", "144340.620000", "144341.620000", "144342.620000", "144343.620000", "144344.620000", "144345.620000", "144346.620000", "144347.620000", "144348.620000", "144349.620000", "144350.620000", "144351.620000", "144352.620000", "144353.620000", "144354.620000", "144355.620000", "144356.620000", "144357.620000", "144358.620000", "144359.620000", "144400.620000", "144401.620000", "144402.620000", "144403.620000", "144404.620000", "144405.620000", "144406.620000", "144407.620000", "144408.620000", "144409.620000", "144410.620000", "144411.620000", "144412.620000", "144413.620000", "144414.620000", "144415.620000", "144416.620000", "144417.620000", "144418.620000", "144419.620000", "144420.620000", "144421.620000", "144422.620000", "144423.620000", "144424.620000", "144425.620000", "144426.620000", "144427.620000", "144428.620000", "144429.620000", "144430.620000", "144431.620000", "144432.620000", "144433.620000", "144434.620000", "144435.620000", "144436.620000", "144437.620000", "144438.620000", "144439.620000", "144440.620000", "144441.620000", "144442.620000", "144443.620000", "144444.620000", "144445.620000", "144446.620000", "144447.620000", "144448.620000", "144449.620000", "144450.620000", "144451.620000", "144452.620000", "144453.620000", "144454.620000", "144455.620000", "144456.620000", "144457.620000", "144458.620000", "144459.620000", "144500.620000", "144501.620000", "144502.620000", "144503.620000", "144504.620000", "144505.620000", "144506.620000", "144507.620000", "144508.620000", "144509.620000", "144510.620000", "144511.620000", "144512.620000", "144513.620000", "144514.620000", "144515.620000", "144516.620000", "144517.620000", "144518.620000", "144519.620000", "144520.620000", "144521.620000", "144522.620000", "144523.620000", "144524.620000", "144525.620000", "144526.620000", "144527.620000", "144528.620000", "144529.620000", "144530.620000", "144531.620000", "144532.620000", "144533.620000", "144534.620000", "144535.620000", "144536.620000", "144537.620000", "144538.620000", "144539.620000", "144540.620000", "144541.620000", "144542.620000", "144543.620000", "144544.620000", "144545.620000", "144546.620000", "144547.620000", "144548.620000", "144549.620000", "144550.620000", "144551.620000", "144552.620000", "144553.620000", "144554.620000", "144555.620000", "144556.620000", "144557.620000", "144558.620000", "144559.620000", "144600.620000", "144601.620000", "144602.620000", "144603.620000", "144604.620000", "144605.620000", "144606.620000", "144607.620000", "144608.620000", "144609.620000", "144610.620000", "144611.620000", "144612.620000", "144613.620000", "144614.620000", "144615.620000", "144616.620000", "144617.620000", "144618.620000", "144619.620000", "144620.620000", "144621.620000", "144622.620000", "144623.620000", "144624.620000", "144625.620000", "144626.620000", "144627.620000", "144628.620000", "144629.620000", "144630.620000", "144631.620000", "144632.620000", "144633.620000", "144634.620000", "144635.620000", "144636.620000", "144637.620000", "144638.620000", "144639.620000", "144640.620000", "144641.620000", "144642.620000", "144643.620000", "144644.620000", "144645.620000", "144646.620000", "144647.620000", "144648.620000", "144649.620000", "144650.620000", "144651.620000", "144652.620000", "144653.620000", "144654.620000", "144655.620000", "144656.620000", "144657.620000", "144658.620000", "144659.620000", "144700.620000", "144701.620000", "144702.620000", "144703.620000", "144704.620000", "144705.620000", "144706.620000", "144707.620000", "144708.620000", "144709.620000", "144710.620000", "144711.620000", "144712.620000", "144713.620000", "144714.620000", "144715.620000", "144716.620000", "144717.620000", "144718.620000", "144719.620000", "144720.620000", "144721.620000", "144722.620000", "144723.620000", "144724.620000", "144725.620000", "144726.620000", "144727.620000", "144728.620000", "144729.620000", "144730.620000", "144731.620000", "144732.620000", "144733.620000", "144734.620000", "144735.620000", "144736.620000", "144737.620000", "144738.620000", "144739.620000", "144740.620000", "144741.620000", "144742.620000", "144743.620000", "144744.620000", "144745.620000", "144746.620000", "144747.620000", "144748.620000", "144749.620000", "144750.620000", "144751.620000", "144752.620000", "144753.620000", "144754.620000", "144755.620000", "144756.620000", "144757.620000", "144758.620000", "144759.620000", "144800.620000", "144801.620000", "144802.620000", "144803.620000", "144804.620000", "144805.620000", "144806.620000", "144807.620000", "144808.620000", "144809.620000", "144810.620000", "144811.620000", "144812.620000", "144813.620000", "144814.620000", "144815.620000", "144816.620000", "144817.620000", "144818.620000", "144819.620000", "144820.620000", "144821.620000", "144822.620000", "144823.620000", "144824.620000", "144825.620000", "144826.620000", "144827.620000", "144828.620000", "144829.620000", "144830.620000", "144831.620000", "144832.620000", "144833.620000", "144834.620000", "144835.620000"],
      "ContentTime": ["144442.213000", "144442.217000", "144442.220000", "144442.223000", "144442.226000", "144442.229000", "144442.232000", "144442.235000", "144442.238000", "144442.241000", "144442.244000", "144442.248000", "144442.254000", "144442.257000", "144442.263000", "144442.266000", "144442.269000", "144442.272000", "144442.275000", "144442.278000", "144442.282000", "144442.285000", "144502.182000", "144502.185000", "144502.188000", "144502.197000", "144502.201000", "144502.204000", "144502.207000", "144502.217000", "144502.220000", "144502.224000", "144502.227000", "144502.230000", "144502.233000", "144502.236000", "144502.239000", "144502.242000", "144502.245000", "144502.254000", "144502.257000", "144502.260000", "144502.263000", "144502.266000", "144502.269000", "144502.272000", "144502.275000", "144502.278000", "144502.281000", "144502.284000", "144522.182000", "144522.185000", "144522.188000", "144522.193000", "144522.212000", "144522.215000", "144522.218000", "144522.221000", "144522.225000", "144522.228000", "144522.231000", "144522.234000", "144522.237000", "144522.240000", "144522.243000", "144522.246000", "144522.249000", "144522.252000", "144522.256000", "144522.259000", "144522.262000", "144522.265000", "144522.268000", "144522.271000", "144522.274000", "144522.277000", "144522.280000", "144522.283000", "144542.182000", "144542.185000", "144542.188000", "144542.193000", "144542.196000", "144542.199000", "144542.202000", "144542.205000", "144542.208000", "144542.211000", "144542.214000", "144542.217000", "144542.220000", "144542.223000", "144542.226000", "144542.230000", "144542.233000", "144542.236000", "144542.239000", "144542.242000", "144542.245000", "144542.248000", "144542.251000", "144542.254000", "144542.258000", "144542.262000", "144542.267000", "144542.271000", "144602.182000", "144602.185000", "144602.188000", "144602.192000", "144602.196000", "144602.199000", "144602.202000", "144602.205000", "144602.208000", "144602.211000", "144602.223000", "144602.226000", "144602.229000", "144602.232000", "144602.235000", "144602.238000", "144602.241000", "144602.244000", "144602.247000", "144602.250000", "144602.254000", "144602.257000", "144602.260000", "144602.263000", "144602.266000", "144602.269000", "144602.281000", "144602.284000", "144602.287000", "144622.181000", "144622.184000", "144622.187000", "144622.191000", "144622.195000", "144622.198000", "144622.201000", "144622.204000", "144622.207000", "144622.212000", "144622.215000", "144622.218000", "144622.222000", "144622.225000", "144622.228000", "144622.231000", "144622.234000", "144622.237000", "144622.240000", "144622.243000", "144622.246000", "144622.249000", "144622.252000", "144622.255000", "144622.258000", "144622.261000", "144622.265000", "144622.268000", "144642.181000", "144642.184000", "144642.187000", "144642.191000", "144642.195000", "144642.198000", "144642.201000", "144642.204000", "144642.207000", "144642.210000", "144642.213000", "144642.217000", "144642.220000", "144642.223000", "144642.226000", "144642.229000", "144642.232000", "144642.235000", "144642.238000", "144642.241000", "144642.244000", "144702.181000", "144702.184000", "144702.187000", "144702.191000", "144702.195000", "144702.198000", "144702.201000", "144702.204000", "144702.207000", "144702.210000", "144702.213000", "144702.216000", "144702.220000", "144702.223000", "144702.226000", "144702.229000", "144702.232000", "144702.235000", "144702.238000", "144702.241000", "144722.182000", "144722.185000", "144722.190000", "144722.193000", "144722.196000", "144722.199000", "144722.202000", "144722.205000", "144722.208000", "144722.211000", "144722.214000", "144722.217000", "144722.220000", "144722.224000", "144722.227000", "144722.230000", "144722.233000", "144722.236000", "144722.239000", "144722.242000", "144742.182000", "144742.185000", "144742.189000", "144742.192000", "144742.196000", "144742.199000", "144742.202000", "144742.205000", "144742.208000", "144742.211000", "144742.214000", "144742.222000", "144742.225000", "144742.228000", "144742.231000", "144742.234000", "144742.237000", "144742.240000", "144742.244000", "144742.247000", "144802.182000", "144802.185000", "144802.189000", "144802.193000", "144802.196000", "144802.199000", "144802.202000", "144802.205000", "144802.208000", "144802.211000", "144802.214000", "144802.217000", "144802.220000", "144802.224000", "144802.236000", "144802.239000", "144802.242000", "144802.246000", "144802.249000", "144802.252000", "144822.182000", "144822.185000", "144822.189000", "144822.193000", "144822.196000", "144822.199000", "144822.202000", "144822.205000", "144822.208000", "144822.211000", "144822.214000", "144822.217000", "144822.220000", "144822.223000", "144822.227000", "144822.230000", "144822.233000", "144822.236000", "144822.239000", "144822.242000", "144837.462000", "144837.465000", "144837.468000", "144837.471000", "144837.474000", "144837.478000", "144837.481000", "144837.484000", "144837.495000", "144837.498000", "144837.501000", "144837.505000", "144837.508000", "144837.511000", "144837.514000", "144837.517000"],
      "InstanceCreationTime": ["144442.213000", "144442.217000", "144442.220000", "144442.223000", "144442.226000", "144442.229000", "144442.232000", "144442.235000", "144442.238000", "144442.241000", "144442.244000", "144442.248000", "144442.254000", "144442.257000", "144442.263000", "144442.266000", "144442.269000", "144442.272000", "144442.275000", "144442.278000", "144442.282000", "144442.285000", "144502.182000", "144502.185000", "144502.188000", "144502.197000", "144502.201000", "144502.204000", "144502.207000", "144502.217000", "144502.220000", "144502.224000", "144502.227000", "144502.230000", "144502.233000", "144502.236000", "144502.239000", "144502.242000", "144502.245000", "144502.254000", "144502.257000", "144502.260000", "144502.263000", "144502.266000", "144502.269000", "144502.272000", "144502.275000", "144502.278000", "144502.281000", "144502.284000", "144522.182000", "144522.185000", "144522.188000", "144522.193000", "144522.212000", "144522.215000", "144522.218000", "144522.221000", "144522.225000", "144522.228000", "144522.231000", "144522.234000", "144522.237000", "144522.240000", "144522.243000", "144522.246000", "144522.249000", "144522.252000", "144522.256000", "144522.259000", "144522.262000", "144522.265000", "144522.268000", "144522.271000", "144522.274000", "144522.277000", "144522.280000", "144522.283000", "144542.182000", "144542.185000", "144542.188000", "144542.193000", "144542.196000", "144542.199000", "144542.202000", "144542.205000", "144542.208000", "144542.211000", "144542.214000", "144542.217000", "144542.220000", "144542.223000", "144542.226000", "144542.230000", "144542.233000", "144542.236000", "144542.239000", "144542.242000", "144542.245000", "144542.248000", "144542.251000", "144542.254000", "144542.258000", "144542.262000", "144542.267000", "144542.271000", "144602.182000", "144602.185000", "144602.188000", "144602.192000", "144602.196000", "144602.199000", "144602.202000", "144602.205000", "144602.208000", "144602.211000", "144602.223000", "144602.226000", "144602.229000", "144602.232000", "144602.235000", "144602.238000", "144602.241000", "144602.244000", "144602.247000", "144602.250000", "144602.254000", "144602.257000", "144602.260000", "144602.263000", "144602.266000", "144602.269000", "144602.281000", "144602.284000", "144602.287000", "144622.181000", "144622.184000", "144622.187000", "144622.191000", "144622.195000", "144622.198000", "144622.201000", "144622.204000", "144622.207000", "144622.212000", "144622.215000", "144622.218000", "144622.222000", "144622.225000", "144622.228000", "144622.231000", "144622.234000", "144622.237000", "144622.240000", "144622.243000", "144622.246000", "144622.249000", "144622.252000", "144622.255000", "144622.258000", "144622.261000", "144622.265000", "144622.268000", "144642.181000", "144642.184000", "144642.187000", "144642.191000", "144642.195000", "144642.198000", "144642.201000", "144642.204000", "144642.207000", "144642.210000", "144642.213000", "144642.217000", "144642.220000", "144642.223000", "144642.226000", "144642.229000", "144642.232000", "144642.235000", "144642.238000", "144642.241000", "144642.244000", "144702.181000", "144702.184000", "144702.187000", "144702.191000", "144702.195000", "144702.198000", "144702.201000", "144702.204000", "144702.207000", "144702.210000", "144702.213000", "144702.216000", "144702.220000", "144702.223000", "144702.226000", "144702.229000", "144702.232000", "144702.235000", "144702.238000", "144702.241000", "144722.182000", "144722.185000", "144722.190000", "144722.193000", "144722.196000", "144722.199000", "144722.202000", "144722.205000", "144722.208000", "144722.211000", "144722.214000", "144722.217000", "144722.220000", "144722.224000", "144722.227000", "144722.230000", "144722.233000", "144722.236000", "144722.239000", "144722.242000", "144742.182000", "144742.185000", "144742.189000", "144742.192000", "144742.196000", "144742.199000", "144742.202000", "144742.205000", "144742.208000", "144742.211000", "144742.214000", "144742.222000", "144742.225000", "144742.228000", "144742.231000", "144742.234000", "144742.237000", "144742.240000", "144742.244000", "144742.247000", "144802.182000", "144802.185000", "144802.189000", "144802.193000", "144802.196000", "144802.199000", "144802.202000", "144802.205000", "144802.208000", "144802.211000", "144802.214000", "144802.217000", "144802.220000", "144802.224000", "144802.236000", "144802.239000", "144802.242000", "144802.246000", "144802.249000", "144802.252000", "144822.182000", "144822.185000", "144822.189000", "144822.193000", "144822.196000", "144822.199000", "144822.202000", "144822.205000", "144822.208000", "144822.211000", "144822.214000", "144822.217000", "144822.220000", "144822.223000", "144822.227000", "144822.230000", "144822.233000", "144822.236000", "144822.239000", "144822.242000", "144837.462000", "144837.465000", "144837.468000", "144837.471000", "144837.474000", "144837.478000", "144837.481000", "144837.484000", "144837.495000", "144837.498000", "144837.501000", "144837.505000", "144837.508000", "144837.511000", "144837.514000", "144837.517000"],
      "InstanceNumber": [1, 2, 3, 4, 5, 6, 7, 8, 9, 10, 11, 12, 13, 14, 15, 16, 17, 18, 19, 20, 21, 22, 23, 24, 25, 26, 27, 28, 29, 30, 31, 32, 33, 34, 35, 36, 37, 38, 39, 40, 41, 42, 43, 44, 45, 46, 47, 48, 49, 50, 51, 52, 53, 54, 55, 56, 57, 58, 59, 60, 61, 62, 63, 64, 65, 66, 67, 68, 69, 70, 71, 72, 73, 74, 75, 76, 77, 78, 79, 80, 81, 82, 83, 84, 85, 86, 87, 88, 89, 90, 91, 92, 93, 94, 95, 96, 97, 98, 99, 100, 101, 102, 103, 104, 105, 106, 107, 108, 109, 110, 111, 112, 113, 114, 115, 116, 117, 118, 119, 120, 121, 122, 123, 124, 125, 126, 127, 128, 129, 130, 131, 132, 133, 134, 135, 136, 137, 138, 139, 140, 141, 142, 143, 144, 145, 146, 147, 148, 149, 150, 151, 152, 153, 154, 155, 156, 157, 158, 159, 160, 161, 162, 163, 164, 165, 166, 167, 168, 169, 170, 171, 172, 173, 174, 175, 176, 177, 178, 179, 180, 181, 182, 183, 184, 185, 186, 187, 188, 189, 190, 191, 192, 193, 194, 195, 196, 197, 198, 199, 200, 201, 202, 203, 204, 205, 206, 207, 208, 209, 210, 211, 212, 213, 214, 215, 216, 217, 218, 219, 220, 221, 222, 223, 224, 225, 226, 227, 228, 229, 230, 231, 232, 233, 234, 235, 236, 237, 238, 239, 240, 241, 242, 243, 244, 245, 246, 247, 248, 249, 250, 251, 252, 253, 254, 255, 256, 257, 258, 259, 260, 261, 262, 263, 264, 265, 266, 267, 268, 269, 270, 271, 272, 273, 274, 275, 276, 277, 278, 279, 280, 281, 282, 283, 284, 285, 286, 287, 288, 289, 290, 291, 292, 293, 294, 295, 296, 297, 298, 299, 300],
      "LargestImagePixelValue": [38222, 37103, 36731, 35661, 35679, 38152, 35492, 35437, 35840, 35581, 35178, 36245, 36658, 35558, 35326, 35966, 35716, 35064, 35524, 35008, 36341, 36013, 36768, 35701, 35593, 36430, 35964, 36099, 35426, 37312, 35478, 35733, 36872, 36250, 35982, 36081, 35665, 35540, 35451, 34822, 36366, 35409, 35222, 35727, 35451, 34964, 35800, 35667, 36386, 35185, 35696, 36351, 35613, 35074, 35455, 36153, 35142, 35716, 35782, 35553, 35723, 35999, 35711, 35261, 36727, 35641, 36054, 35388, 35854, 36088, 35607, 35798, 36091, 35375, 35999, 35882, 35273, 35395, 35999, 35856, 35531, 36000, 36277, 35649, 35497, 34889, 35743, 35730, 35168, 35135, 35419, 35612, 35734, 35649, 35476, 35493, 35103, 35279, 35548, 35410, 35908, 35941, 35774, 35946, 36823, 36330, 36263, 35811, 35719, 36185, 36500, 35895, 35933, 36064, 35911, 35614, 35794, 36260, 35136, 35856, 36363, 36011, 35803, 35743, 36930, 35926, 35560, 35830, 36487, 35836, 35640, 35827, 36353, 35774, 36353, 36564, 35880, 35860, 36408, 35476, 35390, 35968, 35605, 35553, 36029, 36702, 36406, 35723, 36040, 36635, 36536, 35501, 36334, 36036, 35405, 35384, 36084, 36004, 35706, 35391, 35782, 36012, 35514, 35836, 35934, 35305, 36022, 35945, 35095, 35690, 35377, 35725, 35268, 35661, 35519, 35013, 36043, 35627, 35890, 35310, 35212, 34991, 35228, 36133, 36034, 36272, 35653, 35667, 34880, 34870, 36233, 35793, 35976, 35115, 34877, 35488, 35045, 35656, 35205, 35215, 35812, 35059, 35858, 35664, 35110, 36091, 35930, 35994, 34922, 36249, 36054, 36006, 35743, 36217, 35980, 35517, 36673, 36601, 36105, 36524, 36446, 36464, 36198, 36794, 37269, 37121, 36306, 36574, 36940, 36356, 36585, 36234, 36392, 36207, 36272, 37003, 35955, 35868, 36142, 36846, 36195, 36656, 36508, 35808, 36705, 37168, 36590, 36695, 36340, 36426, 36213, 36552, 36412, 37345, 36456, 36448, 36582, 36637, 36805, 36374, 36427, 36152, 36556, 36551, 36247, 36650, 36482, 35896, 35938, 35889, 35965, 36326, 36406, 36488, 36245, 36384, 36644, 36600, 36654, 36573, 36165, 35578, 37049, 36703, 35954, 35951, 36737, 36779, 36477, 36603, 36826, 35715, 36501, 36514, 36817, 36468, 36081, 36628, 36868, 36649],
      "WindowCenter": [9601.0, 9565.0, 9559.0, 9552.0, 9574.0, 9619.0, 9585.0, 9566.0, 9555.0, 9547.0, 9526.0, 9540.0, 9554.0, 9534.0, 9536.0, 9547.0, 9549.0, 9526.0, 9528.0, 9516.0, 9541.0, 9542.0, 9563.0, 9547.0, 9538.0, 9547.0, 9535.0, 9548.0, 9544.0, 9590.0, 9573.0, 9580.0, 9591.0, 9585.0, 9573.0, 9560.0, 9537.0, 9537.0, 9544.0, 9550.0, 9592.0, 9575.0, 9560.0, 9563.0, 9549.0, 9525.0, 9527.0, 9526.0, 9541.0, 9519.0, 9523.0, 9544.0, 9536.0, 9546.0, 9562.0, 9569.0, 9541.0, 9552.0, 9538.0, 9522.0, 9518.0, 9515.0, 9526.0, 9530.0, 9579.0, 9575.0, 9587.0, 9566.0, 9569.0, 9550.0, 9527.0, 9534.0, 9534.0, 9528.0, 9536.0, 9542.0, 9522.0, 9527.0, 9532.0, 9524.0, 9524.0, 9539.0, 9550.0, 9545.0, 9547.0, 9544.0, 9560.0, 9573.0, 9570.0, 9562.0, 9558.0, 9548.0, 9539.0, 9520.0, 9522.0, 9528.0, 9514.0, 9514.0, 9512.0, 9509.0, 9507.0, 9506.0, 9515.0, 9541.0, 9571.0, 9584.0, 9573.0, 9562.0, 9545.0, 9543.0, 9540.0, 9545.0, 9545.0, 9560.0, 9554.0, 9546.0, 9554.0, 9576.0, 9549.0, 9554.0, 9558.0, 9542.0, 9536.0, 9536.0, 9547.0, 9527.0, 9527.0, 9542.0, 9568.0, 9573.0, 9578.0, 9585.0, 9585.0, 9548.0, 9548.0, 9536.0, 9524.0, 9531.0, 9548.0, 9538.0, 9544.0, 9551.0, 9547.0, 9563.0, 9577.0, 9584.0, 9576.0, 9562.0, 9561.0, 9569.0, 9569.0, 9558.0, 9576.0, 9562.0, 9540.0, 9530.0, 9535.0, 9526.0, 9527.0, 9527.0, 9539.0, 9553.0, 9549.0, 9547.0, 9539.0, 9523.0, 9524.0, 9517.0, 9505.0, 9533.0, 9545.0, 9562.0, 9559.0, 9567.0, 9566.0, 9553.0, 9587.0, 9584.0, 9582.0, 9562.0, 9561.0, 9554.0, 9551.0, 9577.0, 9572.0, 9563.0, 9542.0, 9547.0, 9536.0, 9561.0, 9624.0, 9647.0, 9646.0, 9611.0, 9587.0, 9582.0, 9558.0, 9554.0, 9556.0, 9548.0, 9550.0, 9535.0, 9539.0, 9524.0, 9514.0, 9534.0, 9526.0, 9527.0, 9509.0, 9534.0, 9541.0, 9543.0, 9540.0, 9562.0, 9556.0, 9556.0, 9568.0, 9561.0, 9572.0, 9579.0, 9580.0, 9580.0, 9564.0, 9566.0, 9580.0, 9588.0, 9570.0, 9579.0, 9577.0, 9569.0, 9561.0, 9563.0, 9577.0, 9556.0, 9551.0, 9545.0, 9535.0, 9553.0, 9571.0, 9581.0, 9561.0, 9565.0, 9565.0, 9572.0, 9594.0, 9608.0, 9588.0, 9586.0, 9572.0, 9553.0, 9543.0, 9544.0, 9540.0, 9550.0, 9538.0, 9532.0, 9539.0, 9548.0, 9553.0, 9548.0, 9549.0, 9551.0, 9557.0, 9550.0, 9535.0, 9537.0, 9536.0, 9540.0, 9552.0, 9571.0, 9572.0, 9583.0, 9576.0, 9575.0, 9568.0, 9574.0, 9573.0, 9574.0, 9573.0, 9560.0, 9544.0, 9522.0, 9560.0, 9545.0, 9529.0, 9530.0, 9556.0, 9562.0, 9557.0, 9549.0, 9538.0, 9512.0, 9521.0, 9525.0, 9534.0, 9530.0, 9533.0, 9541.0, 9554.0, 9539.0],
