{
  "AcquisitionMatrixPE": 104,
  "AcquisitionNumber": 1,
  "AcquisitionTime": "14:30:27.637500",
  "BandwidthPerPixelPhaseEncode": 16.297,
  "BaseResolution": 104,
  "BodyPartExamined": "BRAIN",
  "ConsistencyInfo": "N4_VE11C_LATEST_20160120",
  "ConversionSoftware": "dcm2niix",
  "ConversionSoftwareVersion": "v1.0.20210317",
  "DerivedVendorReportedEchoSpacing": 0.000590009,
  "DeviceSerialNumber": "166018",
  "DwellTime": 2.1e-06,
  "EchoTime": 0.0376,
  "EchoTrainLength": 104,
  "EffectiveEchoSpacing": 0.000590009,
  "FlipAngle": 68,
  "ImageComments": "Unaliased MB6/PE3/LB",
  "ImageOrientationPatientDICOM": [0.999981, 0.00390382, 0.00474829, -0.0022689, 0.952311, -0.30512],
  "ImageType": [
    "ORIGINAL",
    "PRIMARY",
    "M",
    "MB",
    "ND",
    "MOSAIC"
],
  "ImagingFrequency": 123.197,
  "InPlanePhaseEncodingDirectionDICOM": "COL",
  "InstitutionAddress": "Washington Place 6,NYC,NYC,US,10003",
  "InstitutionName": "NYU - CBI",
  "InstitutionalDepartmentName": "Department",
  "MRAcquisitionType": "2D",
  "MagneticFieldStrength": 3,
  "Manufacturer": "Siemens",
  "ManufacturersModelName": "Prisma",
  "Modality": "MR",
  "MultibandAccelerationFactor": 6,
  "PartialFourier": 1,
  "PatientPosition": "HFS",
  "PercentPhaseFOV": 100,
  "PercentSampling": 100,
  "PhaseEncodingDirection": "j",
  "PhaseEncodingSteps": 104,
  "PhaseResolution": 1,
  "PixelBandwidth": 2290,
  "ProcedureStepDescription": "Investigators^Winawer",
  "ProtocolName": "cmrr_mbepi_s6_2mm_66sl_PA_task-bar1",
  "PulseSequenceDetails": "%CustomerSeq%\\cmrr_mbep2d_bold",
  "ReceiveCoilActiveElements": "HC1-7",
  "ReceiveCoilName": "HeadNeck_64",
  "ReconMatrixPE": 104,
  "RepetitionTime": 1,
  "SAR": 0.0979689,
  "ScanOptions": "FS",
  "ScanningSequence": "EP",
  "SequenceName": "epfid2d1_104",
  "SequenceVariant": "SK\\SS",
  "SeriesDescription": "cmrr_mbepi_s6_2mm_66sl_PA_task-bar1",
  "SeriesNumber": 8,
  "ShimSetting": [312, -12640, -8434, 353, -38, -272, -51, 67],
  "SliceThickness": 2,
  "SliceTiming": [0, 0.535, 0.09, 0.625, 0.1775, 0.7125, 0.2675, 0.8025, 0.3575, 0.89, 0.445, 0, 0.535, 0.09, 0.625, 0.1775, 0.7125, 0.2675, 0.8025, 0.3575, 0.89, 0.445, 0, 0.535, 0.09, 0.625, 0.1775, 0.7125, 0.2675, 0.8025, 0.3575, 0.89, 0.445, 0, 0.535, 0.09, 0.625, 0.1775, 0.7125, 0.2675, 0.8025, 0.3575, 0.89, 0.445, 0, 0.535, 0.09, 0.625, 0.1775, 0.7125, 0.2675, 0.8025, 0.3575, 0.89, 0.445, 0, 0.535, 0.09, 0.625, 0.1775, 0.7125, 0.2675, 0.8025, 0.3575, 0.89, 0.445],
  "SoftwareVersions": "syngo MR E11",
  "SpacingBetweenSlices": 2,
  "StationName": "AWP166018",
  "TaskName": "bar1",
  "TotalReadoutTime": 0.060771,
  "TxRefAmp": 269.395,
  "VendorReportedEchoSpacing": 0.00059,
  "WipMemBlock": "7ecced87-6f10-4a62-90f1-e16b91690c05||Sequence: R016 ve11c/master r/8780670; Nov 27 2017 15:05:12 by eja",
  "dcmmeta_affine": [
    [-1.9999622106552124, -0.004537801258265972, 0.011425958946347237, 109.2089614868164],
    [-0.007807644084095955, 1.9046225547790527, -0.6102065443992615, -62.02650833129883],
    [0.009496571496129036, 0.6102396249771118, 1.904604196548462, -61.9390983581543],
    [0.0, 0.0, 0.0, 1.0]
],
  "dcmmeta_reorient_transform": [
    [0.0, -1.0, 0.0, 103.0],
    [1.0, 0.0, 0.0, 0.0],
    [0.0, 0.0, 1.0, 0.0],
    [0.0, 0.0, 0.0, 1.0]
],
  "dcmmeta_shape": [104, 104, 66, 300],
  "dcmmeta_slice_dim": 2,
  "dcmmeta_version": 0.6,
  "global": {
    "const": {
      "AccessionNumber": "LiLya2tg",
      "AcquisitionMatrix": [104, 0, 0, 104],
      "AngioFlag": "N",
      "BitsAllocated": 16,
      "BitsStored": 16,
      "BodyPartExamined": "BRAIN",
      "Columns": 936,
      "EchoNumbers": 1,
      "EchoTime": 37.6,
      "EchoTrainLength": 104,
      "FlipAngle": 68.0,
      "HighBit": 15,
      "ImageOrientationPatient": [0.99998110679942, 0.00390382212521, 0.00474828569319, -0.0022689006222, 0.95231126827363, -0.305119813203],
      "ImagePositionPatient": [-938.83812527558, -929.72056786893, 250.82469448186],
      "ImageType": [
        "ORIGINAL",
        "PRIMARY",
        "M",
        "MB",
        "ND",
        "MOSAIC"
],
      "ImagedNucleus": "1H",
      "ImagingFrequency": 123.196724,
      "InPlanePhaseEncodingDirection": "COL",
      "MRAcquisitionType": "2D",
      "MagneticFieldStrength": 3.0,
      "Manufacturer": "SIEMENS",
      "ManufacturerModelName": "Prisma",
      "Modality": "MR",
      "NumberOfAverages": 1.0,
      "NumberOfPhaseEncodingSteps": 104,
      "PercentPhaseFieldOfView": 100.0,
      "PercentSampling": 100.0,
      "PerformedProcedureStepStartTime": "141819.263000",
      "PhotometricInterpretation": "MONOCHROME2",
      "PixelBandwidth": 2290.0,
      "PixelRepresentation": 0,
      "PixelSpacing": [2.0, 2.0],
      "ProtocolName": "cmrr_mbepi_s6_2mm_66sl_PA_task-bar1",
      "RepetitionTime": 1000.0,
      "Rows": 936,
      "SAR": 0.09796886004748,
      "SamplesPerPixel": 1,
      "ScanOptions": "FS",
      "ScanningSequence": "EP",
      "SequenceName": "epfid2d1_104",
      "SequenceVariant": [
        "SK",
        "SS"
],
      "SeriesDescription": "cmrr_mbepi_s6_2mm_66sl_PA_task-bar1",
      "SeriesNumber": 8,
      "SeriesTime": "143142.293000",
      "SliceLocation": -39.436335615713,
      "SliceThickness": 2.0,
      "SmallestImagePixelValue": 0,
      "SoftwareVersions": "syngo MR E11",
      "SpacingBetweenSlices": 1.9999999536604,
      "SpecificCharacterSet": "ISO_IR 100",
      "StudyID": "1",
      "StudyTime": "141819.147000",
      "TransmitCoilName": "Body",
      "VariableFlipAngleFlag": "N",
      "WindowCenterWidthExplanation": "Algo1",
      "dBdt": 0.0},
    "slices": {}
  },
  "time": {
    "samples": {
      "AcquisitionNumber": [1, 2, 3, 4, 5, 6, 7, 8, 9, 10, 11, 12, 13, 14, 15, 16, 17, 18, 19, 20, 21, 22, 23, 24, 25, 26, 27, 28, 29, 30, 31, 32, 33, 34, 35, 36, 37, 38, 39, 40, 41, 42, 43, 44, 45, 46, 47, 48, 49, 50, 51, 52, 53, 54, 55, 56, 57, 58, 59, 60, 61, 62, 63, 64, 65, 66, 67, 68, 69, 70, 71, 72, 73, 74, 75, 76, 77, 78, 79, 80, 81, 82, 83, 84, 85, 86, 87, 88, 89, 90, 91, 92, 93, 94, 95, 96, 97, 98, 99, 100, 101, 102, 103, 104, 105, 106, 107, 108, 109, 110, 111, 112, 113, 114, 115, 116, 117, 118, 119, 120, 121, 122, 123, 124, 125, 126, 127, 128, 129, 130, 131, 132, 133, 134, 135, 136, 137, 138, 139, 140, 141, 142, 143, 144, 145, 146, 147, 148, 149, 150, 151, 152, 153, 154, 155, 156, 157, 158, 159, 160, 161, 162, 163, 164, 165, 166, 167, 168, 169, 170, 171, 172, 173, 174, 175, 176, 177, 178, 179, 180, 181, 182, 183, 184, 185, 186, 187, 188, 189, 190, 191, 192, 193, 194, 195, 196, 197, 198, 199, 200, 201, 202, 203, 204, 205, 206, 207, 208, 209, 210, 211, 212, 213, 214, 215, 216, 217, 218, 219, 220, 221, 222, 223, 224, 225, 226, 227, 228, 229, 230, 231, 232, 233, 234, 235, 236, 237, 238, 239, 240, 241, 242, 243, 244, 245, 246, 247, 248, 249, 250, 251, 252, 253, 254, 255, 256, 257, 258, 259, 260, 261, 262, 263, 264, 265, 266, 267, 268, 269, 270, 271, 272, 273, 274, 275, 276, 277, 278, 279, 280, 281, 282, 283, 284, 285, 286, 287, 288, 289, 290, 291, 292, 293, 294, 295, 296, 297, 298, 299, 300],
      "AcquisitionTime": ["143027.637500", "143028.637500", "143029.637500", "143030.637500", "143031.637500", "143032.637500", "143033.637500", "143034.637500", "143035.637500", "143036.637500", "143037.637500", "143038.637500", "143039.637500", "143040.637500", "143041.637500", "143042.637500", "143043.637500", "143044.637500", "143045.637500", "143046.637500", "143047.637500", "143048.637500", "143049.637500", "143050.637500", "143051.637500", "143052.637500", "143053.637500", "143054.637500", "143055.637500", "143056.637500", "143057.637500", "143058.637500", "143059.637500", "143100.637500", "143101.637500", "143102.637500", "143103.637500", "143104.637500", "143105.637500", "143106.637500", "143107.637500", "143108.637500", "143109.637500", "143110.637500", "143111.637500", "143112.637500", "143113.637500", "143114.637500", "143115.637500", "143116.637500", "143117.637500", "143118.637500", "143119.637500", "143120.637500", "143121.637500", "143122.637500", "143123.637500", "143124.637500", "143125.637500", "143126.637500", "143127.637500", "143128.637500", "143129.637500", "143130.637500", "143131.637500", "143132.637500", "143133.637500", "143134.637500", "143135.637500", "143136.637500", "143137.637500", "143138.637500", "143139.637500", "143140.637500", "143141.637500", "143142.637500", "143143.637500", "143144.637500", "143145.637500", "143146.637500", "143147.637500", "143148.637500", "143149.637500", "143150.637500", "143151.637500", "143152.637500", "143153.637500", "143154.637500", "143155.637500", "143156.637500", "143157.637500", "143158.637500", "143159.637500", "143200.637500", "143201.637500", "143202.637500", "143203.637500", "143204.637500", "143205.637500", "143206.637500", "143207.637500", "143208.637500", "143209.637500", "143210.637500", "143211.637500", "143212.637500", "143213.637500", "143214.637500", "143215.637500", "143216.637500", "143217.637500", "143218.637500", "143219.637500", "143220.637500", "143221.637500", "143222.637500", "143223.637500", "143224.637500", "143225.637500", "143226.637500", "143227.637500", "143228.637500", "143229.637500", "143230.637500", "143231.637500", "143232.637500", "143233.637500", "143234.637500", "143235.637500", "143236.637500", "143237.637500", "143238.637500", "143239.637500", "143240.637500", "143241.637500", "143242.637500", "143243.637500", "143244.637500", "143245.637500", "143246.637500", "143247.637500", "143248.637500", "143249.637500", "143250.637500", "143251.637500", "143252.637500", "143253.637500", "143254.637500", "143255.637500", "143256.637500", "143257.637500", "143258.637500", "143259.637500", "143300.637500", "143301.637500", "143302.637500", "143303.637500", "143304.637500", "143305.637500", "143306.637500", "143307.637500", "143308.637500", "143309.637500", "143310.637500", "143311.637500", "143312.637500", "143313.637500", "143314.637500", "143315.637500", "143316.637500", "143317.637500", "143318.637500", "143319.637500", "143320.637500", "143321.637500", "143322.637500", "143323.637500", "143324.637500", "143325.637500", "143326.637500", "143327.637500", "143328.637500", "143329.637500", "143330.637500", "143331.637500", "143332.637500", "143333.637500", "143334.637500", "143335.637500", "143336.637500", "143337.637500", "143338.637500", "143339.637500", "143340.637500", "143341.637500", "143342.637500", "143343.637500", "143344.637500", "143345.637500", "143346.637500", "143347.637500", "143348.637500", "143349.637500", "143350.637500", "143351.637500", "143352.637500", "143353.637500", "143354.637500", "143355.637500", "143356.637500", "143357.637500", "143358.637500", "143359.637500", "143400.637500", "143401.637500", "143402.637500", "143403.637500", "143404.637500", "143405.637500", "143406.637500", "143407.637500", "143408.637500", "143409.637500", "143410.637500", "143411.637500", "143412.637500", "143413.637500", "143414.637500", "143415.637500", "143416.637500", "143417.637500", "143418.637500", "143419.637500", "143420.637500", "143421.637500", "143422.637500", "143423.637500", "143424.637500", "143425.637500", "143426.637500", "143427.637500", "143428.637500", "143429.637500", "143430.637500", "143431.637500", "143432.637500", "143433.637500", "143434.637500", "143435.637500", "143436.637500", "143437.637500", "143438.637500", "143439.637500", "143440.637500", "143441.637500", "143442.637500", "143443.637500", "143444.637500", "143445.637500", "143446.637500", "143447.637500", "143448.637500", "143449.637500", "143450.637500", "143451.637500", "143452.637500", "143453.637500", "143454.637500", "143455.637500", "143456.637500", "143457.637500", "143458.637500", "143459.637500", "143500.637500", "143501.637500", "143502.637500", "143503.637500", "143504.637500", "143505.637500", "143506.637500", "143507.637500", "143508.637500", "143509.637500", "143510.637500", "143511.637500", "143512.637500", "143513.637500", "143514.637500", "143515.637500", "143516.637500", "143517.637500", "143518.637500", "143519.637500", "143520.637500", "143521.637500", "143522.637500", "143523.637500", "143524.637500", "143525.637500", "143526.637500"],
      "ContentTime": ["143142.296000", "143142.300000", "143142.306000", "143142.309000", "143142.312000", "143142.315000", "143142.318000", "143142.321000", "143142.324000", "143142.328000", "143142.331000", "143142.334000", "143142.337000", "143142.340000", "143142.343000", "143142.346000", "143142.354000", "143142.357000", "143142.360000", "143142.363000", "143142.366000", "143142.369000", "143142.372000", "143142.376000", "143142.379000", "143142.382000", "143142.385000", "143142.388000", "143142.391000", "143142.394000", "143142.397000", "143142.400000", "143142.403000", "143142.407000", "143142.410000", "143142.421000", "143142.424000", "143202.253000", "143202.256000", "143202.267000", "143202.270000", "143202.273000", "143202.276000", "143202.279000", "143202.282000", "143202.286000", "143202.291000", "143202.295000", "143202.298000", "143202.302000", "143202.305000", "143202.308000", "143202.311000", "143202.314000", "143202.317000", "143202.320000", "143202.323000", "143202.326000", "143202.329000", "143202.332000", "143202.335000", "143202.339000", "143202.342000", "143202.345000", "143202.348000", "143222.252000", "143222.255000", "143222.258000", "143222.261000", "143222.265000", "143222.268000", "143222.275000", "143222.278000", "143222.282000", "143222.285000", "143222.288000", "143222.291000", "143222.294000", "143222.297000", "143222.307000", "143222.310000", "143222.313000", "143222.316000", "143222.319000", "143222.323000", "143222.326000", "143222.329000", "143222.332000", "143222.335000", "143222.338000", "143222.341000", "143222.344000", "143222.347000", "143222.350000", "143242.252000", "143242.255000", "143242.258000", "143242.261000", "143242.264000", "143242.268000", "143242.271000", "143242.274000", "143242.277000", "143242.280000", "143242.283000", "143242.286000", "143242.289000", "143242.292000", "143242.295000", "143242.298000", "143242.301000", "143242.304000", "143242.307000", "143242.311000", "143242.314000", "143242.326000", "143242.329000", "143242.333000", "143242.336000", "143242.339000", "143242.342000", "143242.345000", "143302.252000", "143302.255000", "143302.258000", "143302.261000", "143302.264000", "143302.267000", "143302.270000", "143302.273000", "143302.277000", "143302.280000", "143302.283000", "143302.286000", "143302.289000", "143302.292000", "143302.295000", "143302.298000", "143302.301000", "143302.304000", "143302.307000", "143302.310000", "143302.313000", "143302.316000", "143302.319000", "143302.322000", "143302.325000", "143302.328000", "143302.331000", "143302.334000", "143302.337000", "143322.253000", "143322.256000", "143322.260000", "143322.263000", "143322.266000", "143322.269000", "143322.272000", "143322.275000", "143322.278000", "143322.281000", "143322.284000", "143322.287000", "143322.299000", "143322.302000", "143322.305000", "143322.308000", "143322.317000", "143322.320000", "143322.323000", "143322.326000", "143322.329000", "143322.332000", "143322.335000", "143342.253000", "143342.256000", "143342.259000", "143342.262000", "143342.265000", "143342.268000", "143342.271000", "143342.275000", "143342.278000", "143342.281000", "143342.284000", "143342.287000", "143342.290000", "143342.293000", "143342.296000", "143342.299000", "143342.302000", "143342.305000", "143342.308000", "143342.312000", "143402.253000", "143402.256000", "143402.259000", "143402.262000", "143402.265000", "143402.269000", "143402.272000", "143402.275000", "143402.278000", "143402.281000", "143402.284000", "143402.287000", "143402.290000", "143402.293000", "143402.296000", "143402.299000", "143402.302000", "143402.306000", "143402.309000", "143402.312000", "143422.253000", "143422.256000", "143422.260000", "143422.277000", "143422.280000", "143422.283000", "143422.287000", "143422.290000", "143422.293000", "143422.296000", "143422.299000", "143422.302000", "143422.305000", "143422.308000", "143422.311000", "143422.315000", "143422.318000", "143422.321000", "143422.324000", "143422.327000", "143442.252000", "143442.255000", "143442.258000", "143442.261000", "143442.274000", "143442.277000", "143442.280000", "143442.284000", "143442.287000", "143442.290000", "143442.293000", "143442.296000", "143442.299000", "143442.302000", "143442.305000", "143442.308000", "143442.311000", "143442.315000", "143442.318000", "143442.321000", "143502.252000", "143502.255000", "143502.258000", "143502.261000", "143502.264000", "143502.268000", "143502.271000", "143502.274000", "143502.277000", "143502.280000", "143502.283000", "143502.286000", "143502.289000", "143502.292000", "143502.296000", "143502.299000", "143502.302000", "143502.312000", "143502.315000", "143502.318000", "143522.252000", "143522.255000", "143522.259000", "143522.262000", "143522.265000", "143522.268000", "143522.271000", "143522.274000", "143522.277000", "143522.292000", "143522.295000", "143522.298000", "143522.301000", "143522.304000", "143522.307000", "143522.311000", "143522.314000", "143522.317000", "143522.320000", "143522.323000", "143527.992000", "143527.995000", "143527.999000", "143528.002000", "143528.006000", "143528.009000"],
      "InstanceCreationTime": ["143142.296000", "143142.300000", "143142.306000", "143142.309000", "143142.312000", "143142.315000", "143142.318000", "143142.321000", "143142.324000", "143142.328000", "143142.331000", "143142.334000", "143142.337000", "143142.340000", "143142.343000", "143142.346000", "143142.354000", "143142.357000", "143142.360000", "143142.363000", "143142.366000", "143142.369000", "143142.372000", "143142.376000", "143142.379000", "143142.382000", "143142.385000", "143142.388000", "143142.391000", "143142.394000", "143142.397000", "143142.400000", "143142.403000", "143142.407000", "143142.410000", "143142.421000", "143142.424000", "143202.253000", "143202.256000", "143202.267000", "143202.270000", "143202.273000", "143202.276000", "143202.279000", "143202.282000", "143202.286000", "143202.291000", "143202.295000", "143202.298000", "143202.302000", "143202.305000", "143202.308000", "143202.311000", "143202.314000", "143202.317000", "143202.320000", "143202.323000", "143202.326000", "143202.329000", "143202.332000", "143202.335000", "143202.339000", "143202.342000", "143202.345000", "143202.348000", "143222.252000", "143222.255000", "143222.258000", "143222.261000", "143222.265000", "143222.268000", "143222.275000", "143222.278000", "143222.282000", "143222.285000", "143222.288000", "143222.291000", "143222.294000", "143222.297000", "143222.307000", "143222.310000", "143222.313000", "143222.316000", "143222.319000", "143222.323000", "143222.326000", "143222.329000", "143222.332000", "143222.335000", "143222.338000", "143222.341000", "143222.344000", "143222.347000", "143222.350000", "143242.252000", "143242.255000", "143242.258000", "143242.261000", "143242.264000", "143242.268000", "143242.271000", "143242.274000", "143242.277000", "143242.280000", "143242.283000", "143242.286000", "143242.289000", "143242.292000", "143242.295000", "143242.298000", "143242.301000", "143242.304000", "143242.307000", "143242.311000", "143242.314000", "143242.326000", "143242.329000", "143242.333000", "143242.336000", "143242.339000", "143242.342000", "143242.345000", "143302.252000", "143302.255000", "143302.258000", "143302.261000", "143302.264000", "143302.267000", "143302.270000", "143302.273000", "143302.277000", "143302.280000", "143302.283000", "143302.286000", "143302.289000", "143302.292000", "143302.295000", "143302.298000", "143302.301000", "143302.304000", "143302.307000", "143302.310000", "143302.313000", "143302.316000", "143302.319000", "143302.322000", "143302.325000", "143302.328000", "143302.331000", "143302.334000", "143302.337000", "143322.253000", "143322.256000", "143322.260000", "143322.263000", "143322.266000", "143322.269000", "143322.272000", "143322.275000", "143322.278000", "143322.281000", "143322.284000", "143322.287000", "143322.299000", "143322.302000", "143322.305000", "143322.308000", "143322.317000", "143322.320000", "143322.323000", "143322.326000", "143322.329000", "143322.332000", "143322.335000", "143342.253000", "143342.256000", "143342.259000", "143342.262000", "143342.265000", "143342.268000", "143342.271000", "143342.275000", "143342.278000", "143342.281000", "143342.284000", "143342.287000", "143342.290000", "143342.293000", "143342.296000", "143342.299000", "143342.302000", "143342.305000", "143342.308000", "143342.312000", "143402.253000", "143402.256000", "143402.259000", "143402.262000", "143402.265000", "143402.269000", "143402.272000", "143402.275000", "143402.278000", "143402.281000", "143402.284000", "143402.287000", "143402.290000", "143402.293000", "143402.296000", "143402.299000", "143402.302000", "143402.306000", "143402.309000", "143402.312000", "143422.253000", "143422.256000", "143422.260000", "143422.277000", "143422.280000", "143422.283000", "143422.287000", "143422.290000", "143422.293000", "143422.296000", "143422.299000", "143422.302000", "143422.305000", "143422.308000", "143422.311000", "143422.315000", "143422.318000", "143422.321000", "143422.324000", "143422.327000", "143442.252000", "143442.255000", "143442.258000", "143442.261000", "143442.274000", "143442.277000", "143442.280000", "143442.284000", "143442.287000", "143442.290000", "143442.293000", "143442.296000", "143442.299000", "143442.302000", "143442.305000", "143442.308000", "143442.311000", "143442.315000", "143442.318000", "143442.321000", "143502.252000", "143502.255000", "143502.258000", "143502.261000", "143502.264000", "143502.268000", "143502.271000", "143502.274000", "143502.277000", "143502.280000", "143502.283000", "143502.286000", "143502.289000", "143502.292000", "143502.296000", "143502.299000", "143502.302000", "143502.312000", "143502.315000", "143502.318000", "143522.252000", "143522.255000", "143522.259000", "143522.262000", "143522.265000", "143522.268000", "143522.271000", "143522.274000", "143522.277000", "143522.292000", "143522.295000", "143522.298000", "143522.301000", "143522.304000", "143522.307000", "143522.311000", "143522.314000", "143522.317000", "143522.320000", "143522.323000", "143527.992000", "143527.995000", "143527.999000", "143528.002000", "143528.006000", "143528.009000"],
      "InstanceNumber": [1, 2, 3, 4, 5, 6, 7, 8, 9, 10, 11, 12, 13, 14, 15, 16, 17, 18, 19, 20, 21, 22, 23, 24, 25, 26, 27, 28, 29, 30, 31, 32, 33, 34, 35, 36, 37, 38, 39, 40, 41, 42, 43, 44, 45, 46, 47, 48, 49, 50, 51, 52, 53, 54, 55, 56, 57, 58, 59, 60, 61, 62, 63, 64, 65, 66, 67, 68, 69, 70, 71, 72, 73, 74, 75, 76, 77, 78, 79, 80, 81, 82, 83, 84, 85, 86, 87, 88, 89, 90, 91, 92, 93, 94, 95, 96, 97, 98, 99, 100, 101, 102, 103, 104, 105, 106, 107, 108, 109, 110, 111, 112, 113, 114, 115, 116, 117, 118, 119, 120, 121, 122, 123, 124, 125, 126, 127, 128, 129, 130, 131, 132, 133, 134, 135, 136, 137, 138, 139, 140, 141, 142, 143, 144, 145, 146, 147, 148, 149, 150, 151, 152, 153, 154, 155, 156, 157, 158, 159, 160, 161, 162, 163, 164, 165, 166, 167, 168, 169, 170, 171, 172, 173, 174, 175, 176, 177, 178, 179, 180, 181, 182, 183, 184, 185, 186, 187, 188, 189, 190, 191, 192, 193, 194, 195, 196, 197, 198, 199, 200, 201, 202, 203, 204, 205, 206, 207, 208, 209, 210, 211, 212, 213, 214, 215, 216, 217, 218, 219, 220, 221, 222, 223, 224, 225, 226, 227, 228, 229, 230, 231, 232, 233, 234, 235, 236, 237, 238, 239, 240, 241, 242, 243, 244, 245, 246, 247, 248, 249, 250, 251, 252, 253, 254, 255, 256, 257, 258, 259, 260, 261, 262, 263, 264, 265, 266, 267, 268, 269, 270, 271, 272, 273, 274, 275, 276, 277, 278, 279, 280, 281, 282, 283, 284, 285, 286, 287, 288, 289, 290, 291, 292, 293, 294, 295, 296, 297, 298, 299, 300],
      "LargestImagePixelValue": [41020, 39716, 39053, 39270, 38736, 38035, 38455, 38790, 38016, 38220, 38432, 38122, 37723, 38158, 37610, 37900, 37844, 37832, 37574, 37793, 38225, 37637, 37794, 37712, 38314, 37271, 37772, 38379, 37947, 37903, 37768, 38178, 37729, 37553, 38490, 37602, 37705, 38010, 37949, 37577, 37533, 37919, 37730, 37737, 37900, 38373, 37623, 37508, 38398, 37897, 37299, 38250, 37618, 37236, 37528, 38162, 37412, 37136, 37878, 37666, 37467, 37871, 37281, 37102, 37142, 37814, 37353, 37044, 37605, 37570, 37503, 37877, 37740, 36799, 36962, 38188, 36943, 37251, 37637, 37231, 37234, 38054, 37159, 37096, 37124, 37639, 37123, 37566, 37868, 37070, 37187, 37799, 37246, 36442, 37047, 37577, 37010, 37136, 37849, 37496, 37284, 37359, 37971, 37558, 37102, 38019, 37430, 37232, 37257, 37533, 37635, 36754, 37273, 37852, 37053, 37005, 37854, 37109, 37046, 37607, 37590, 36969, 37148, 37863, 37260, 37087, 37598, 37695, 36437, 36787, 37419, 37191, 37350, 37790, 37452, 37101, 36833, 37653, 37628, 36916, 37110, 37878, 37402, 36841, 37755, 36956, 37093, 36908, 37672, 36697, 36518, 36345, 37129, 36939, 36543, 37033, 37225, 36504, 36164, 37625, 36485, 36322, 36724, 37331, 36106, 36183, 37065, 36364, 35918, 36129, 37045, 36888, 36386, 36164, 37012, 36259, 35663, 37040, 36697, 35939, 36236, 36929, 36304, 35812, 36441, 36916, 36622, 36198, 36344, 36964, 36014, 36078, 36471, 36696, 35734, 36497, 36997, 36224, 35535, 36377, 36413, 35722, 35945, 36940, 36297, 36035, 36010, 36606, 36180, 35915, 36356, 36924, 36042, 36257, 35901, 36049, 35867, 36031, 35671, 36483, 36260, 35681, 36408, 36002, 35367, 35381, 36796, 35840, 35983, 36050, 36146, 35786, 36069, 35919, 35691, 35794, 35732, 36080, 35615, 35383, 36301, 35313, 35664, 35987, 36458, 35476, 35712, 36474, 36190, 35496, 36271, 36003, 35552, 35342, 36659, 36047, 36058, 35653, 36141, 35922, 35633, 36233, 35602, 36107, 35905, 36171, 36193, 36220, 36155, 36358, 35376, 36148, 36934, 35890, 36235, 36044, 36588, 35896, 35671, 36434, 36384, 36277, 36020, 36216, 35825, 35891, 36256, 36677, 35640, 36606, 37360, 36827, 35708, 36384, 36107, 35935, 35891, 36522, 36395, 35917],
      "WindowCenter": [9776.0, 9734.0, 9714.0, 9708.0, 9696.0, 9690.0, 9680.0, 9687.0, 9683.0, 9680.0, 9687.0, 9691.0, 9690.0, 9688.0, 9675.0, 9682.0, 9684.0, 9690.0, 9687.0, 9685.0, 9689.0, 9693.0, 9684.0, 9675.0, 9678.0, 9661.0, 9671.0, 9669.0, 9678.0, 9682.0, 9683.0, 9696.0, 9691.0, 9684.0, 9701.0, 9691.0, 9700.0, 9697.0, 9697.0, 9679.0, 9671.0, 9681.0, 9674.0, 9685.0, 9699.0, 9719.0, 9709.0, 9694.0, 9704.0, 9687.0, 9669.0, 9678.0, 9665.0, 9663.0, 9675.0, 9682.0, 9685.0, 9681.0, 9690.0, 9691.0, 9686.0, 9691.0, 9688.0, 9696.0, 9681.0, 9682.0, 9669.0, 9654.0, 9673.0, 9683.0, 9694.0, 9700.0, 9693.0, 9676.0, 9662.0, 9657.0, 9638.0, 9643.0, 9664.0, 9672.0, 9670.0, 9689.0, 9680.0, 9666.0, 9661.0, 9666.0, 9662.0, 9675.0, 9692.0, 9699.0, 9690.0, 9692.0, 9673.0, 9658.0, 9668.0, 9659.0, 9660.0, 9658.0, 9672.0, 9669.0, 9679.0, 9685.0, 9690.0, 9687.0, 9672.0, 9684.0, 9673.0, 9666.0, 9663.0, 9669.0, 9684.0, 9685.0, 9699.0, 9696.0, 9684.0, 9682.0, 9684.0, 9674.0, 9666.0, 9669.0, 9661.0, 9673.0, 9678.0, 9693.0, 9683.0, 9681.0, 9671.0, 9668.0, 9659.0, 9674.0, 9696.0, 9700.0, 9705.0, 9697.0, 9689.0, 9689.0, 9686.0, 9694.0, 9685.0, 9677.0, 9673.0, 9685.0, 9688.0, 9668.0, 9676.0, 9651.0, 9649.0, 9640.0, 9650.0, 9639.0, 9640.0, 9642.0, 9665.0, 9674.0, 9682.0, 9693.0, 9685.0, 9680.0, 9664.0, 9677.0, 9662.0, 9661.0, 9665.0, 9676.0, 9660.0, 9669.0, 9674.0, 9660.0, 9648.0, 9637.0, 9644.0, 9648.0, 9661.0, 9672.0, 9691.0, 9672.0, 9669.0, 9692.0, 9692.0, 9677.0, 9674.0, 9676.0, 9674.0, 9678.0, 9688.0, 9672.0, 9670.0, 9665.0, 9661.0, 9672.0, 9656.0, 9655.0, 9668.0, 9675.0, 9675.0, 9671.0, 9665.0, 9647.0, 9634.0, 9650.0, 9661.0, 9651.0, 9657.0, 9667.0, 9663.0, 9676.0, 9685.0, 9690.0, 9684.0, 9670.0, 9663.0, 9658.0, 9650.0, 9673.0, 9669.0, 9667.0, 9659.0, 9655.0, 9636.0, 9655.0, 9654.0, 9657.0, 9669.0, 9664.0, 9654.0, 9657.0, 9692.0, 9677.0, 9669.0, 9662.0, 9659.0, 9652.0, 9660.0, 9660.0, 9660.0, 9658.0, 9660.0, 9675.0, 9673.0, 9682.0, 9703.0, 9676.0, 9672.0, 9670.0, 9686.0, 9674.0, 9688.0, 9693.0, 9678.0, 9657.0, 9659.0, 9658.0, 9637.0, 9622.0, 9647.0, 9646.0, 9658.0, 9666.0, 9670.0, 9659.0, 9646.0, 9653.0, 9647.0, 9674.0, 9680.0, 9681.0, 9684.0, 9678.0, 9685.0, 9710.0, 9709.0, 9723.0, 9727.0, 9692.0, 9672.0, 9662.0, 9676.0, 9669.0, 9665.0, 9685.0, 9676.0, 9661.0, 9652.0, 9645.0, 9637.0, 9660.0, 9696.0, 9728.0, 9705.0, 9713.0, 9714.0, 9684.0, 9656.0, 9668.0, 9656.0, 9648.0, 9645.0, 9658.0, 9663.0, 9653.0],
