{
  "AcquisitionMatrixPE": 104,
  "AcquisitionNumber": 1,
  "AcquisitionTime": "10:53:41.470000",
  "BandwidthPerPixelPhaseEncode": 16.297,
  "BaseResolution": 104,
  "BodyPartExamined": "BRAIN",
  "ConsistencyInfo": "N4_VE11C_LATEST_20160120",
  "ConversionSoftware": "dcm2niix",
  "ConversionSoftwareVersion": "v1.0.20210317",
  "DerivedVendorReportedEchoSpacing": 0.000590009,
  "DeviceSerialNumber": "166018",
  "DwellTime": 2.1e-06,
  "EchoTime": 0.0376,
  "EchoTrainLength": 104,
  "EffectiveEchoSpacing": 0.000590009,
  "FlipAngle": 68,
  "ImageComments": "Unaliased MB6/PE3/LB",
  "ImageOrientationPatientDICOM": [0.999948, -0.00454475, 0.00913205, 0.00628292, 0.979692, -0.200408],
  "ImageType": [
    "ORIGINAL",
    "PRIMARY",
    "M",
    "MB",
    "ND",
    "MOSAIC"
],
  "ImagingFrequency": 123.197,
  "InPlanePhaseEncodingDirectionDICOM": "COL",
  "InstitutionAddress": "Washington Place 6,NYC,NYC,US,10003",
  "InstitutionName": "NYU - CBI",
  "InstitutionalDepartmentName": "Department",
  "MRAcquisitionType": "2D",
  "MagneticFieldStrength": 3,
  "Manufacturer": "Siemens",
  "ManufacturersModelName": "Prisma",
  "Modality": "MR",
  "MultibandAccelerationFactor": 6,
  "PartialFourier": 1,
  "PatientPosition": "HFS",
  "PercentPhaseFOV": 100,
  "PercentSampling": 100,
  "PhaseEncodingDirection": "j",
  "PhaseEncodingSteps": 104,
  "PhaseResolution": 1,
  "PixelBandwidth": 2290,
  "ProcedureStepDescription": "Investigators^Winawer",
  "ProtocolName": "cmrr_mbepi_s6_2mm_66sl_PA_task-wedgering2",
  "PulseSequenceDetails": "%CustomerSeq%\\cmrr_mbep2d_bold",
  "ReceiveCoilActiveElements": "HC1-7",
  "ReceiveCoilName": "HeadNeck_64",
  "ReconMatrixPE": 104,
  "RepetitionTime": 1,
  "SAR": 0.0764483,
  "ScanOptions": "FS",
  "ScanningSequence": "EP",
  "SequenceName": "epfid2d1_104",
  "SequenceVariant": "SK\\SS",
  "SeriesDescription": "cmrr_mbepi_s6_2mm_66sl_PA_task-wedgering2",
  "SeriesNumber": 14,
  "ShimSetting": [280, -12676, -8514, 136, -33, -157, -203, 74],
  "SliceThickness": 2,
  "SliceTiming": [0, 0.535, 0.09, 0.6225, 0.1775, 0.7125, 0.2675, 0.8025, 0.355, 0.89, 0.445, 0, 0.535, 0.09, 0.6225, 0.1775, 0.7125, 0.2675, 0.8025, 0.355, 0.89, 0.445, 0, 0.535, 0.09, 0.6225, 0.1775, 0.7125, 0.2675, 0.8025, 0.355, 0.89, 0.445, 0, 0.535, 0.09, 0.6225, 0.1775, 0.7125, 0.2675, 0.8025, 0.355, 0.89, 0.445, 0, 0.535, 0.09, 0.6225, 0.1775, 0.7125, 0.2675, 0.8025, 0.355, 0.89, 0.445, 0, 0.535, 0.09, 0.6225, 0.1775, 0.7125, 0.2675, 0.8025, 0.355, 0.89, 0.445],
  "SoftwareVersions": "syngo MR E11",
  "SpacingBetweenSlices": 2,
  "StationName": "AWP166018",
  "TaskName": "wedgering2",
  "TotalReadoutTime": 0.060771,
  "TxRefAmp": 205.472,
  "VendorReportedEchoSpacing": 0.00059,
  "WipMemBlock": "0010dfc7-2282-4613-a69d-381a814279c4||Sequence: R016 ve11c/master r/8780670; Nov 27 2017 15:05:12 by eja",
  "dcmmeta_affine": [
    [-1.9998959302902222, 0.012565836310386658, 0.016071578487753868, 106.30741119384766],
    [0.00908949039876461, 1.959384560585022, -0.4009108543395996, -70.38555908203125],
    [0.01826409064233303, 0.4008169174194336, 1.9593397378921509, -60.479225158691406],
    [0.0, 0.0, 0.0, 1.0]
],
  "dcmmeta_reorient_transform": [
    [0.0, -1.0, 0.0, 103.0],
    [1.0, 0.0, 0.0, 0.0],
    [0.0, 0.0, 1.0, 0.0],
    [0.0, 0.0, 0.0, 1.0]
],
  "dcmmeta_shape": [104, 104, 66, 300],
  "dcmmeta_slice_dim": 2,
  "dcmmeta_version": 0.6,
  "global": {
    "const": {
      "AccessionNumber": "Lebywuid",
      "AcquisitionMatrix": [104, 0, 0, 104],
      "AngioFlag": "N",
      "BitsAllocated": 16,
      "BitsStored": 16,
      "BodyPartExamined": "BRAIN",
      "Columns": 936,
      "EchoNumbers": 1,
      "EchoTime": 37.6,
      "EchoTrainLength": 104,
      "FlipAngle": 68.0,
      "HighBit": 15,
      "ImageOrientationPatient": [0.99994797416428, -0.0045447453845, 0.00913204545185, 0.00628291807953, 0.97969228423199, -0.2004084657811],
      "ImagePositionPatient": [-944.7857982781, -942.75380146987, 139.9468998383],
      "ImageType": [
        "ORIGINAL",
        "PRIMARY",
        "M",
        "MB",
        "ND",
        "MOSAIC"
],
      "ImagedNucleus": "1H",
      "ImagingFrequency": 123.19683,
      "InPlanePhaseEncodingDirection": "COL",
      "MRAcquisitionType": "2D",
      "MagneticFieldStrength": 3.0,
      "Manufacturer": "SIEMENS",
      "ManufacturerModelName": "Prisma",
      "Modality": "MR",
      "NumberOfAverages": 1.0,
      "NumberOfPhaseEncodingSteps": 104,
      "PercentPhaseFieldOfView": 100.0,
      "PercentSampling": 100.0,
      "PerformedProcedureStepStartTime": "101845.016000",
      "PhotometricInterpretation": "MONOCHROME2",
      "PixelBandwidth": 2290.0,
      "PixelRepresentation": 0,
      "PixelSpacing": [2.0, 2.0],
      "ProtocolName": "cmrr_mbepi_s6_2mm_66sl_PA_task-wedgering2",
      "RepetitionTime": 1000.0,
      "Rows": 936,
      "SAR": 0.07644829730466,
      "SamplesPerPixel": 1,
      "ScanOptions": "FS",
      "ScanningSequence": "EP",
      "SequenceName": "epfid2d1_104",
      "SequenceVariant": [
        "SK",
        "SS"
],
      "SeriesDescription": "cmrr_mbepi_s6_2mm_66sl_PA_task-wedgering2",
      "SeriesNumber": 14,
      "SeriesTime": "105504.401000",
      "SliceLocation": -44.286244358261,
      "SliceThickness": 2.0,
      "SmallestImagePixelValue": 0,
      "SoftwareVersions": "syngo MR E11",
      "SpacingBetweenSlices": 2.0000000476583,
      "SpecificCharacterSet": "ISO_IR 100",
      "StudyID": "1",
      "StudyTime": "101844.844000",
      "TransmitCoilName": "Body",
      "VariableFlipAngleFlag": "N",
      "WindowCenterWidthExplanation": "Algo1",
      "dBdt": 0.0},
    "slices": {}
  },
  "time": {
    "samples": {
      "AcquisitionNumber": [1, 2, 3, 4, 5, 6, 7, 8, 9, 10, 11, 12, 13, 14, 15, 16, 17, 18, 19, 20, 21, 22, 23, 24, 25, 26, 27, 28, 29, 30, 31, 32, 33, 34, 35, 36, 37, 38, 39, 40, 41, 42, 43, 44, 45, 46, 47, 48, 49, 50, 51, 52, 53, 54, 55, 56, 57, 58, 59, 60, 61, 62, 63, 64, 65, 66, 67, 68, 69, 70, 71, 72, 73, 74, 75, 76, 77, 78, 79, 80, 81, 82, 83, 84, 85, 86, 87, 88, 89, 90, 91, 92, 93, 94, 95, 96, 97, 98, 99, 100, 101, 102, 103, 104, 105, 106, 107, 108, 109, 110, 111, 112, 113, 114, 115, 116, 117, 118, 119, 120, 121, 122, 123, 124, 125, 126, 127, 128, 129, 130, 131, 132, 133, 134, 135, 136, 137, 138, 139, 140, 141, 142, 143, 144, 145, 146, 147, 148, 149, 150, 151, 152, 153, 154, 155, 156, 157, 158, 159, 160, 161, 162, 163, 164, 165, 166, 167, 168, 169, 170, 171, 172, 173, 174, 175, 176, 177, 178, 179, 180, 181, 182, 183, 184, 185, 186, 187, 188, 189, 190, 191, 192, 193, 194, 195, 196, 197, 198, 199, 200, 201, 202, 203, 204, 205, 206, 207, 208, 209, 210, 211, 212, 213, 214, 215, 216, 217, 218, 219, 220, 221, 222, 223, 224, 225, 226, 227, 228, 229, 230, 231, 232, 233, 234, 235, 236, 237, 238, 239, 240, 241, 242, 243, 244, 245, 246, 247, 248, 249, 250, 251, 252, 253, 254, 255, 256, 257, 258, 259, 260, 261, 262, 263, 264, 265, 266, 267, 268, 269, 270, 271, 272, 273, 274, 275, 276, 277, 278, 279, 280, 281, 282, 283, 284, 285, 286, 287, 288, 289, 290, 291, 292, 293, 294, 295, 296, 297, 298, 299, 300],
      "AcquisitionTime": ["105341.470000", "105342.470000", "105343.470000", "105344.470000", "105345.470000", "105346.470000", "105347.470000", "105348.470000", "105349.470000", "105350.470000", "105351.470000", "105352.470000", "105353.470000", "105354.470000", "105355.470000", "105356.470000", "105357.470000", "105358.470000", "105359.470000", "105400.470000", "105401.470000", "105402.470000", "105403.470000", "105404.470000", "105405.470000", "105406.470000", "105407.470000", "105408.470000", "105409.470000", "105410.470000", "105411.470000", "105412.470000", "105413.470000", "105414.470000", "105415.470000", "105416.470000", "105417.470000", "105418.470000", "105419.470000", "105420.470000", "105421.470000", "105422.470000", "105423.470000", "105424.470000", "105425.470000", "105426.470000", "105427.470000", "105428.470000", "105429.470000", "105430.470000", "105431.470000", "105432.470000", "105433.470000", "105434.470000", "105435.470000", "105436.470000", "105437.470000", "105438.470000", "105439.470000", "105440.470000", "105441.470000", "105442.470000", "105443.470000", "105444.470000", "105445.470000", "105446.470000", "105447.470000", "105448.470000", "105449.470000", "105450.470000", "105451.470000", "105452.470000", "105453.470000", "105454.470000", "105455.470000", "105456.470000", "105457.470000", "105458.470000", "105459.470000", "105500.470000", "105501.470000", "105502.470000", "105503.470000", "105504.470000", "105505.470000", "105506.470000", "105507.470000", "105508.470000", "105509.470000", "105510.470000", "105511.470000", "105512.470000", "105513.470000", "105514.470000", "105515.470000", "105516.470000", "105517.470000", "105518.470000", "105519.470000", "105520.470000", "105521.470000", "105522.470000", "105523.470000", "105524.470000", "105525.470000", "105526.470000", "105527.470000", "105528.470000", "105529.470000", "105530.470000", "105531.470000", "105532.470000", "105533.470000", "105534.470000", "105535.470000", "105536.470000", "105537.470000", "105538.470000", "105539.470000", "105540.470000", "105541.470000", "105542.470000", "105543.470000", "105544.470000", "105545.470000", "105546.470000", "105547.470000", "105548.470000", "105549.470000", "105550.470000", "105551.470000", "105552.470000", "105553.470000", "105554.470000", "105555.470000", "105556.470000", "105557.470000", "105558.470000", "105559.470000", "105600.470000", "105601.470000", "105602.470000", "105603.470000", "105604.470000", "105605.470000", "105606.470000", "105607.470000", "105608.470000", "105609.470000", "105610.470000", "105611.470000", "105612.470000", "105613.470000", "105614.470000", "105615.470000", "105616.470000", "105617.470000", "105618.470000", "105619.470000", "105620.470000", "105621.470000", "105622.470000", "105623.470000", "105624.470000", "105625.470000", "105626.470000", "105627.470000", "105628.470000", "105629.470000", "105630.470000", "105631.470000", "105632.470000", "105633.470000", "105634.470000", "105635.470000", "105636.470000", "105637.470000", "105638.470000", "105639.470000", "105640.470000", "105641.470000", "105642.470000", "105643.470000", "105644.470000", "105645.470000", "105646.470000", "105647.470000", "105648.470000", "105649.470000", "105650.470000", "105651.470000", "105652.470000", "105653.470000", "105654.470000", "105655.470000", "105656.470000", "105657.470000", "105658.470000", "105659.470000", "105700.470000", "105701.470000", "105702.470000", "105703.470000", "105704.470000", "105705.470000", "105706.470000", "105707.470000", "105708.470000", "105709.470000", "105710.470000", "105711.470000", "105712.470000", "105713.470000", "105714.470000", "105715.470000", "105716.470000", "105717.470000", "105718.470000", "105719.470000", "105720.470000", "105721.470000", "105722.470000", "105723.470000", "105724.470000", "105725.470000", "105726.470000", "105727.470000", "105728.470000", "105729.470000", "105730.470000", "105731.470000", "105732.470000", "105733.470000", "105734.470000", "105735.470000", "105736.470000", "105737.470000", "105738.470000", "105739.470000", "105740.470000", "105741.470000", "105742.470000", "105743.470000", "105744.470000", "105745.470000", "105746.470000", "105747.470000", "105748.470000", "105749.470000", "105750.470000", "105751.470000", "105752.470000", "105753.470000", "105754.470000", "105755.470000", "105756.470000", "105757.470000", "105758.470000", "105759.470000", "105800.470000", "105801.470000", "105802.470000", "105803.470000", "105804.470000", "105805.470000", "105806.470000", "105807.470000", "105808.470000", "105809.470000", "105810.470000", "105811.470000", "105812.470000", "105813.470000", "105814.470000", "105815.470000", "105816.470000", "105817.470000", "105818.470000", "105819.470000", "105820.470000", "105821.470000", "105822.470000", "105823.470000", "105824.470000", "105825.470000", "105826.470000", "105827.470000", "105828.470000", "105829.470000", "105830.470000", "105831.470000", "105832.470000", "105833.470000", "105834.470000", "105835.470000", "105836.470000", "105837.470000", "105838.470000", "105839.470000", "105840.470000"],
      "ContentTime": ["105504.404000", "105504.407000", "105504.411000", "105504.414000", "105504.431000", "105504.434000", "105504.437000", "105504.441000", "105504.444000", "105504.447000", "105504.450000", "105504.453000", "105504.456000", "105504.459000", "105504.462000", "105504.466000", "105504.469000", "105504.472000", "105504.475000", "105504.478000", "105504.481000", "105504.484000", "105504.487000", "105504.491000", "105504.494000", "105504.497000", "105504.500000", "105504.503000", "105504.506000", "105504.509000", "105504.512000", "105504.516000", "105504.519000", "105504.522000", "105504.525000", "105504.528000", "105504.531000", "105504.537000", "105504.540000", "105504.543000", "105504.546000", "105504.549000", "105504.552000", "105504.555000", "105504.559000", "105504.562000", "105504.565000", "105524.346000", "105524.350000", "105524.353000", "105524.356000", "105524.359000", "105524.362000", "105524.365000", "105524.368000", "105524.371000", "105524.374000", "105524.377000", "105524.381000", "105524.384000", "105524.387000", "105524.390000", "105524.393000", "105524.396000", "105524.399000", "105524.402000", "105524.406000", "105524.409000", "105524.412000", "105524.415000", "105524.418000", "105524.421000", "105524.424000", "105524.427000", "105524.430000", "105544.329000", "105544.332000", "105544.335000", "105544.339000", "105544.343000", "105544.346000", "105544.349000", "105544.353000", "105544.356000", "105544.359000", "105544.362000", "105544.365000", "105544.368000", "105544.371000", "105544.374000", "105544.378000", "105544.381000", "105544.384000", "105544.387000", "105544.390000", "105544.393000", "105544.396000", "105544.399000", "105544.403000", "105544.406000", "105544.409000", "105544.412000", "105544.415000", "105604.329000", "105604.332000", "105604.335000", "105604.338000", "105604.342000", "105604.345000", "105604.348000", "105604.351000", "105604.354000", "105604.357000", "105604.360000", "105604.363000", "105604.366000", "105604.369000", "105604.373000", "105604.376000", "105604.379000", "105604.382000", "105604.385000", "105604.388000", "105604.391000", "105604.394000", "105604.397000", "105604.400000", "105604.403000", "105604.407000", "105604.410000", "105604.413000", "105604.416000", "105624.329000", "105624.332000", "105624.335000", "105624.339000", "105624.342000", "105624.345000", "105624.348000", "105624.351000", "105624.354000", "105624.357000", "105624.360000", "105624.363000", "105624.367000", "105624.370000", "105624.373000", "105624.376000", "105624.379000", "105624.382000", "105624.385000", "105624.388000", "105624.391000", "105624.394000", "105624.397000", "105624.400000", "105624.404000", "105624.407000", "105624.410000", "105624.413000", "105644.329000", "105644.332000", "105644.335000", "105644.338000", "105644.342000", "105644.345000", "105644.348000", "105644.351000", "105644.354000", "105644.357000", "105644.360000", "105644.363000", "105644.367000", "105644.370000", "105644.373000", "105644.376000", "105644.379000", "105644.382000", "105644.385000", "105644.388000", "105644.391000", "105644.395000", "105704.329000", "105704.332000", "105704.336000", "105704.339000", "105704.342000", "105704.345000", "105704.348000", "105704.351000", "105704.354000", "105704.357000", "105704.361000", "105704.364000", "105704.367000", "105704.370000", "105704.373000", "105704.376000", "105704.379000", "105704.382000", "105704.386000", "105704.389000", "105724.329000", "105724.332000", "105724.336000", "105724.339000", "105724.342000", "105724.345000", "105724.348000", "105724.351000", "105724.354000", "105724.357000", "105724.360000", "105724.363000", "105724.366000", "105724.370000", "105724.373000", "105724.376000", "105724.379000", "105724.382000", "105724.385000", "105724.388000", "105744.329000", "105744.333000", "105744.336000", "105744.339000", "105744.342000", "105744.345000", "105744.358000", "105744.361000", "105744.377000", "105744.380000", "105744.383000", "105744.386000", "105744.389000", "105744.393000", "105744.396000", "105744.399000", "105744.402000", "105744.405000", "105744.408000", "105744.411000", "105804.329000", "105804.332000", "105804.336000", "105804.339000", "105804.342000", "105804.345000", "105804.348000", "105804.351000", "105804.355000", "105804.358000", "105804.361000", "105804.364000", "105804.367000", "105804.370000", "105804.374000", "105804.377000", "105804.380000", "105804.383000", "105804.386000", "105804.389000", "105824.329000", "105824.333000", "105824.336000", "105824.339000", "105824.343000", "105824.346000", "105824.350000", "105824.353000", "105824.357000", "105824.361000", "105824.364000", "105824.368000", "105824.371000", "105824.374000", "105824.377000", "105824.381000", "105824.384000", "105824.387000", "105824.390000", "105824.394000", "105841.860000", "105841.864000", "105841.877000", "105841.880000", "105841.884000", "105841.887000", "105841.890000", "105841.893000", "105841.897000", "105841.900000", "105841.904000", "105841.907000", "105841.910000", "105841.913000", "105841.918000", "105841.922000", "105841.926000", "105841.930000"],
      "InstanceCreationTime": ["105504.404000", "105504.407000", "105504.411000", "105504.414000", "105504.431000", "105504.434000", "105504.437000", "105504.441000", "105504.444000", "105504.447000", "105504.450000", "105504.453000", "105504.456000", "105504.459000", "105504.462000", "105504.466000", "105504.469000", "105504.472000", "105504.475000", "105504.478000", "105504.481000", "105504.484000", "105504.487000", "105504.491000", "105504.494000", "105504.497000", "105504.500000", "105504.503000", "105504.506000", "105504.509000", "105504.512000", "105504.516000", "105504.519000", "105504.522000", "105504.525000", "105504.528000", "105504.531000", "105504.537000", "105504.540000", "105504.543000", "105504.546000", "105504.549000", "105504.552000", "105504.555000", "105504.559000", "105504.562000", "105504.565000", "105524.346000", "105524.350000", "105524.353000", "105524.356000", "105524.359000", "105524.362000", "105524.365000", "105524.368000", "105524.371000", "105524.374000", "105524.377000", "105524.381000", "105524.384000", "105524.387000", "105524.390000", "105524.393000", "105524.396000", "105524.399000", "105524.402000", "105524.406000", "105524.409000", "105524.412000", "105524.415000", "105524.418000", "105524.421000", "105524.424000", "105524.427000", "105524.430000", "105544.329000", "105544.332000", "105544.335000", "105544.339000", "105544.343000", "105544.346000", "105544.349000", "105544.353000", "105544.356000", "105544.359000", "105544.362000", "105544.365000", "105544.368000", "105544.371000", "105544.374000", "105544.378000", "105544.381000", "105544.384000", "105544.387000", "105544.390000", "105544.393000", "105544.396000", "105544.399000", "105544.403000", "105544.406000", "105544.409000", "105544.412000", "105544.415000", "105604.329000", "105604.332000", "105604.335000", "105604.338000", "105604.342000", "105604.345000", "105604.348000", "105604.351000", "105604.354000", "105604.357000", "105604.360000", "105604.363000", "105604.366000", "105604.369000", "105604.373000", "105604.376000", "105604.379000", "105604.382000", "105604.385000", "105604.388000", "105604.391000", "105604.394000", "105604.397000", "105604.400000", "105604.403000", "105604.407000", "105604.410000", "105604.413000", "105604.416000", "105624.329000", "105624.332000", "105624.335000", "105624.339000", "105624.342000", "105624.345000", "105624.348000", "105624.351000", "105624.354000", "105624.357000", "105624.360000", "105624.363000", "105624.367000", "105624.370000", "105624.373000", "105624.376000", "105624.379000", "105624.382000", "105624.385000", "105624.388000", "105624.391000", "105624.394000", "105624.397000", "105624.400000", "105624.404000", "105624.407000", "105624.410000", "105624.413000", "105644.329000", "105644.332000", "105644.335000", "105644.338000", "105644.342000", "105644.345000", "105644.348000", "105644.351000", "105644.354000", "105644.357000", "105644.360000", "105644.363000", "105644.367000", "105644.370000", "105644.373000", "105644.376000", "105644.379000", "105644.382000", "105644.385000", "105644.388000", "105644.391000", "105644.395000", "105704.329000", "105704.332000", "105704.336000", "105704.339000", "105704.342000", "105704.345000", "105704.348000", "105704.351000", "105704.354000", "105704.357000", "105704.361000", "105704.364000", "105704.367000", "105704.370000", "105704.373000", "105704.376000", "105704.379000", "105704.382000", "105704.386000", "105704.389000", "105724.329000", "105724.332000", "105724.336000", "105724.339000", "105724.342000", "105724.345000", "105724.348000", "105724.351000", "105724.354000", "105724.357000", "105724.360000", "105724.363000", "105724.366000", "105724.370000", "105724.373000", "105724.376000", "105724.379000", "105724.382000", "105724.385000", "105724.388000", "105744.329000", "105744.333000", "105744.336000", "105744.339000", "105744.342000", "105744.345000", "105744.358000", "105744.361000", "105744.377000", "105744.380000", "105744.383000", "105744.386000", "105744.389000", "105744.393000", "105744.396000", "105744.399000", "105744.402000", "105744.405000", "105744.408000", "105744.411000", "105804.329000", "105804.332000", "105804.336000", "105804.339000", "105804.342000", "105804.345000", "105804.348000", "105804.351000", "105804.355000", "105804.358000", "105804.361000", "105804.364000", "105804.367000", "105804.370000", "105804.374000", "105804.377000", "105804.380000", "105804.383000", "105804.386000", "105804.389000", "105824.329000", "105824.333000", "105824.336000", "105824.339000", "105824.343000", "105824.346000", "105824.350000", "105824.353000", "105824.357000", "105824.361000", "105824.364000", "105824.368000", "105824.371000", "105824.374000", "105824.377000", "105824.381000", "105824.384000", "105824.387000", "105824.390000", "105824.394000", "105841.860000", "105841.864000", "105841.877000", "105841.880000", "105841.884000", "105841.887000", "105841.890000", "105841.893000", "105841.897000", "105841.900000", "105841.904000", "105841.907000", "105841.910000", "105841.913000", "105841.918000", "105841.922000", "105841.926000", "105841.930000"],
      "InstanceNumber": [1, 2, 3, 4, 5, 6, 7, 8, 9, 10, 11, 12, 13, 14, 15, 16, 17, 18, 19, 20, 21, 22, 23, 24, 25, 26, 27, 28, 29, 30, 31, 32, 33, 34, 35, 36, 37, 38, 39, 40, 41, 42, 43, 44, 45, 46, 47, 48, 49, 50, 51, 52, 53, 54, 55, 56, 57, 58, 59, 60, 61, 62, 63, 64, 65, 66, 67, 68, 69, 70, 71, 72, 73, 74, 75, 76, 77, 78, 79, 80, 81, 82, 83, 84, 85, 86, 87, 88, 89, 90, 91, 92, 93, 94, 95, 96, 97, 98, 99, 100, 101, 102, 103, 104, 105, 106, 107, 108, 109, 110, 111, 112, 113, 114, 115, 116, 117, 118, 119, 120, 121, 122, 123, 124, 125, 126, 127, 128, 129, 130, 131, 132, 133, 134, 135, 136, 137, 138, 139, 140, 141, 142, 143, 144, 145, 146, 147, 148, 149, 150, 151, 152, 153, 154, 155, 156, 157, 158, 159, 160, 161, 162, 163, 164, 165, 166, 167, 168, 169, 170, 171, 172, 173, 174, 175, 176, 177, 178, 179, 180, 181, 182, 183, 184, 185, 186, 187, 188, 189, 190, 191, 192, 193, 194, 195, 196, 197, 198, 199, 200, 201, 202, 203, 204, 205, 206, 207, 208, 209, 210, 211, 212, 213, 214, 215, 216, 217, 218, 219, 220, 221, 222, 223, 224, 225, 226, 227, 228, 229, 230, 231, 232, 233, 234, 235, 236, 237, 238, 239, 240, 241, 242, 243, 244, 245, 246, 247, 248, 249, 250, 251, 252, 253, 254, 255, 256, 257, 258, 259, 260, 261, 262, 263, 264, 265, 266, 267, 268, 269, 270, 271, 272, 273, 274, 275, 276, 277, 278, 279, 280, 281, 282, 283, 284, 285, 286, 287, 288, 289, 290, 291, 292, 293, 294, 295, 296, 297, 298, 299, 300],
      "LargestImagePixelValue": [43556, 42512, 42280, 41397, 41209, 40955, 41070, 41189, 40695, 41056, 41103, 41460, 41700, 41486, 41160, 41618, 41295, 40992, 41151, 40895, 40769, 41160, 40725, 41250, 41316, 41004, 41124, 41679, 41614, 41509, 40930, 41028, 41033, 41240, 41402, 41317, 41537, 40829, 39919, 39541, 39677, 40826, 40901, 41299, 41668, 41142, 40863, 40868, 40901, 40802, 41149, 41340, 41091, 41194, 41233, 41270, 41218, 41187, 41797, 41767, 41304, 40786, 40377, 40205, 40483, 40573, 40307, 40200, 40317, 40825, 40964, 40735, 41146, 40921, 40703, 41178, 41433, 41397, 41575, 41533, 41885, 41666, 41111, 41322, 41889, 41392, 41550, 41044, 41475, 41734, 41330, 41661, 41751, 41298, 41414, 41180, 40917, 41138, 41216, 41493, 41505, 41252, 41197, 40987, 41075, 40667, 40981, 41074, 41105, 40784, 41214, 41319, 41486, 41403, 41367, 41323, 41215, 41950, 42068, 42256, 41750, 41391, 41266, 41441, 41293, 41443, 40910, 40583, 40998, 41166, 41226, 41009, 41043, 40867, 40748, 41236, 40994, 41755, 40913, 41126, 41445, 41631, 41179, 41819, 41757, 41645, 41629, 42105, 41984, 41410, 41747, 42240, 42074, 41445, 41497, 41211, 41367, 41491, 42063, 41911, 41131, 41583, 41563, 41547, 41639, 41439, 41609, 41846, 41386, 41442, 40791, 41441, 40959, 41143, 40287, 40692, 40803, 40824, 40302, 40320, 41150, 41119, 41057, 41116, 41310, 41255, 41376, 41398, 41824, 41731, 41394, 41335, 41922, 42012, 41677, 41758, 41881, 41679, 41882, 42132, 41147, 41464, 41389, 41400, 40833, 40675, 40978, 40713, 41037, 40156, 40815, 41046, 40625, 40990, 41289, 41337, 41116, 41279, 41342, 41566, 41181, 41222, 41327, 41632, 41428, 41524, 41196, 41398, 41085, 41038, 41290, 40394, 40978, 40126, 39950, 40631, 40767, 40511, 40216, 40551, 40560, 40559, 40685, 40518, 40551, 40286, 40574, 41078, 40832, 41026, 40841, 41220, 41243, 41541, 41318, 41391, 41398, 41594, 41134, 40829, 40837, 40859, 40643, 40831, 40693, 40908, 40517, 40721, 40574, 40669, 40878, 40470, 41037, 41045, 41032, 41163, 40701, 40838, 40461, 40498, 40826, 40614, 40482, 40731, 41165, 41104, 40929, 41319, 41321, 40721, 41597, 41121, 41256, 40924, 41313, 41001, 41312, 40667, 40722, 41012],
      "WindowCenter": [10245.0, 10222.0, 10212.0, 10208.0, 10202.0, 10194.0, 10192.0, 10192.0, 10186.0, 10185.0, 10185.0, 10195.0, 10197.0, 10198.0, 10201.0, 10216.0, 10225.0, 10222.0, 10234.0, 10221.0, 10206.0, 10203.0, 10198.0, 10201.0, 10199.0, 10192.0, 10205.0, 10220.0, 10222.0, 10216.0, 10210.0, 10200.0, 10201.0, 10215.0, 10209.0, 10203.0, 10200.0, 10185.0, 10165.0, 10137.0, 10136.0, 10184.0, 10205.0, 10221.0, 10229.0, 10217.0, 10189.0, 10155.0, 10125.0, 10112.0, 10121.0, 10128.0, 10115.0, 10104.0, 10093.0, 10090.0, 10098.0, 10104.0, 10124.0, 10133.0, 10130.0, 10123.0, 10102.0, 10093.0, 10103.0, 10105.0, 10110.0, 10125.0, 10141.0, 10165.0, 10184.0, 10194.0, 10205.0, 10201.0, 10203.0, 10208.0, 10207.0, 10198.0, 10181.0, 10172.0, 10177.0, 10179.0, 10181.0, 10181.0, 10192.0, 10190.0, 10204.0, 10202.0, 10212.0, 10213.0, 10209.0, 10207.0, 10212.0, 10214.0, 10216.0, 10216.0, 10226.0, 10231.0, 10228.0, 10232.0, 10236.0, 10223.0, 10216.0, 10208.0, 10202.0, 10196.0, 10192.0, 10184.0, 10182.0, 10183.0, 10190.0, 10199.0, 10213.0, 10223.0, 10233.0, 10235.0, 10236.0, 10239.0, 10239.0, 10238.0, 10225.0, 10212.0, 10215.0, 10215.0, 10218.0, 10225.0, 10222.0, 10216.0, 10227.0, 10228.0, 10225.0, 10220.0, 10227.0, 10229.0, 10224.0, 10226.0, 10228.0, 10241.0, 10240.0, 10251.0, 10258.0, 10261.0, 10264.0, 10265.0, 10261.0, 10262.0, 10260.0, 10255.0, 10249.0, 10236.0, 10227.0, 10222.0, 10216.0, 10218.0, 10222.0, 10228.0, 10235.0, 10228.0, 10233.0, 10235.0, 10219.0, 10217.0, 10208.0, 10200.0, 10194.0, 10186.0, 10188.0, 10195.0, 10185.0, 10188.0, 10177.0, 10187.0, 10183.0, 10182.0, 10165.0, 10168.0, 10173.0, 10182.0, 10179.0, 10188.0, 10209.0, 10219.0, 10213.0, 10207.0, 10218.0, 10213.0, 10211.0, 10195.0, 10204.0, 10199.0, 10187.0, 10183.0, 10181.0, 10180.0, 10182.0, 10190.0, 10205.0, 10199.0, 10208.0, 10216.0, 10219.0, 10218.0, 10220.0, 10219.0, 10205.0, 10189.0, 10190.0, 10185.0, 10190.0, 10174.0, 10184.0, 10199.0, 10203.0, 10211.0, 10212.0, 10219.0, 10212.0, 10203.0, 10202.0, 10206.0, 10202.0, 10194.0, 10202.0, 10218.0, 10228.0, 10228.0, 10221.0, 10219.0, 10219.0, 10210.0, 10201.0, 10184.0, 10192.0, 10176.0, 10176.0, 10185.0, 10186.0, 10195.0, 10197.0, 10202.0, 10198.0, 10196.0, 10188.0, 10195.0, 10189.0, 10188.0, 10187.0, 10195.0, 10196.0, 10203.0, 10211.0, 10225.0, 10226.0, 10225.0, 10219.0, 10213.0, 10203.0, 10198.0, 10183.0, 10176.0, 10176.0, 10183.0, 10190.0, 10204.0, 10211.0, 10213.0, 10214.0, 10214.0, 10218.0, 10224.0, 10231.0, 10235.0, 10241.0, 10242.0, 10241.0, 10236.0, 10217.0, 10221.0, 10211.0, 10217.0, 10223.0, 10223.0, 10224.0, 10216.0, 10220.0, 10215.0, 10214.0, 10214.0, 10220.0, 10217.0, 10229.0, 10231.0, 10233.0, 10233.0, 10238.0, 10234.0, 10239.0, 10235.0, 10236.0, 10242.0],
