{
  "AcquisitionMatrixPE": 104,
  "AcquisitionNumber": 1,
  "AcquisitionTime": "11:06:43.310000",
  "BandwidthPerPixelPhaseEncode": 16.297,
  "BaseResolution": 104,
  "BodyPartExamined": "BRAIN",
  "ConsistencyInfo": "N4_VE11C_LATEST_20160120",
  "ConversionSoftware": "dcm2niix",
  "ConversionSoftwareVersion": "v1.0.20210317",
  "DerivedVendorReportedEchoSpacing": 0.000590009,
  "DeviceSerialNumber": "166018",
  "DwellTime": 2.1e-06,
  "EchoTime": 0.0376,
  "EchoTrainLength": 104,
  "EffectiveEchoSpacing": 0.000590009,
  "FlipAngle": 68,
  "ImageComments": "Unaliased MB6/PE3/LB",
  "ImageOrientationPatientDICOM": [0.999948, -0.00454475, 0.00913205, 0.00628292, 0.979692, -0.200408],
  "ImageType": [
    "ORIGINAL",
    "PRIMARY",
    "M",
    "MB",
    "ND",
    "MOSAIC"
],
  "ImagingFrequency": 123.197,
  "InPlanePhaseEncodingDirectionDICOM": "COL",
  "InstitutionAddress": "Washington Place 6,NYC,NYC,US,10003",
  "InstitutionName": "NYU - CBI",
  "InstitutionalDepartmentName": "Department",
  "MRAcquisitionType": "2D",
  "MagneticFieldStrength": 3,
  "Manufacturer": "Siemens",
  "ManufacturersModelName": "Prisma",
  "Modality": "MR",
  "MultibandAccelerationFactor": 6,
  "PartialFourier": 1,
  "PatientPosition": "HFS",
  "PercentPhaseFOV": 100,
  "PercentSampling": 100,
  "PhaseEncodingDirection": "j",
  "PhaseEncodingSteps": 104,
  "PhaseResolution": 1,
  "PixelBandwidth": 2290,
  "ProcedureStepDescription": "Investigators^Winawer",
  "ProtocolName": "cmrr_mbepi_s6_2mm_66sl_PA_task-wedgering3",
  "PulseSequenceDetails": "%CustomerSeq%\\cmrr_mbep2d_bold",
  "ReceiveCoilActiveElements": "HC1-7",
  "ReceiveCoilName": "HeadNeck_64",
  "ReconMatrixPE": 104,
  "RepetitionTime": 1,
  "SAR": 0.0764483,
  "ScanOptions": "FS",
  "ScanningSequence": "EP",
  "SequenceName": "epfid2d1_104",
  "SequenceVariant": "SK\\SS",
  "SeriesDescription": "cmrr_mbepi_s6_2mm_66sl_PA_task-wedgering3",
  "SeriesNumber": 18,
  "ShimSetting": [280, -12676, -8514, 136, -33, -157, -203, 74],
  "SliceThickness": 2,
  "SliceTiming": [0, 0.535, 0.09, 0.6225, 0.1775, 0.7125, 0.2675, 0.8025, 0.355, 0.89, 0.445, 0, 0.535, 0.09, 0.6225, 0.1775, 0.7125, 0.2675, 0.8025, 0.355, 0.89, 0.445, 0, 0.535, 0.09, 0.6225, 0.1775, 0.7125, 0.2675, 0.8025, 0.355, 0.89, 0.445, 0, 0.535, 0.09, 0.6225, 0.1775, 0.7125, 0.2675, 0.8025, 0.355, 0.89, 0.445, 0, 0.535, 0.09, 0.6225, 0.1775, 0.7125, 0.2675, 0.8025, 0.355, 0.89, 0.445, 0, 0.535, 0.09, 0.6225, 0.1775, 0.7125, 0.2675, 0.8025, 0.355, 0.89, 0.445],
  "SoftwareVersions": "syngo MR E11",
  "SpacingBetweenSlices": 2,
  "StationName": "AWP166018",
  "TaskName": "wedgering3",
  "TotalReadoutTime": 0.060771,
  "TxRefAmp": 205.472,
  "VendorReportedEchoSpacing": 0.00059,
  "WipMemBlock": "0010dfc7-2282-4613-a69d-381a814279c4||Sequence: R016 ve11c/master r/8780670; Nov 27 2017 15:05:12 by eja",
  "dcmmeta_affine": [
    [-1.9998959302902222, 0.012565836310386658, 0.016071578487753868, 106.30741119384766],
    [0.00908949039876461, 1.959384560585022, -0.4009108543395996, -70.38555908203125],
    [0.01826409064233303, 0.4008169174194336, 1.9593397378921509, -60.479225158691406],
    [0.0, 0.0, 0.0, 1.0]
],
  "dcmmeta_reorient_transform": [
    [0.0, -1.0, 0.0, 103.0],
    [1.0, 0.0, 0.0, 0.0],
    [0.0, 0.0, 1.0, 0.0],
    [0.0, 0.0, 0.0, 1.0]
],
  "dcmmeta_shape": [104, 104, 66, 300],
  "dcmmeta_slice_dim": 2,
  "dcmmeta_version": 0.6,
  "global": {
    "const": {
      "AccessionNumber": "Lebywuid",
      "AcquisitionMatrix": [104, 0, 0, 104],
      "AngioFlag": "N",
      "BitsAllocated": 16,
      "BitsStored": 16,
      "BodyPartExamined": "BRAIN",
      "Columns": 936,
      "EchoNumbers": 1,
      "EchoTime": 37.6,
      "EchoTrainLength": 104,
      "FlipAngle": 68.0,
      "HighBit": 15,
      "ImageOrientationPatient": [0.99994797416428, -0.0045447453845, 0.00913204545185, 0.00628291807953, 0.97969228423199, -0.2004084657811],
      "ImagePositionPatient": [-944.7857982781, -942.75380146987, 139.9468998383],
      "ImageType": [
        "ORIGINAL",
        "PRIMARY",
        "M",
        "MB",
        "ND",
        "MOSAIC"
],
      "ImagedNucleus": "1H",
      "ImagingFrequency": 123.19683,
      "InPlanePhaseEncodingDirection": "COL",
      "MRAcquisitionType": "2D",
      "MagneticFieldStrength": 3.0,
      "Manufacturer": "SIEMENS",
      "ManufacturerModelName": "Prisma",
      "Modality": "MR",
      "NumberOfAverages": 1.0,
      "NumberOfPhaseEncodingSteps": 104,
      "PercentPhaseFieldOfView": 100.0,
      "PercentSampling": 100.0,
      "PerformedProcedureStepStartTime": "101845.016000",
      "PhotometricInterpretation": "MONOCHROME2",
      "PixelBandwidth": 2290.0,
      "PixelRepresentation": 0,
      "PixelSpacing": [2.0, 2.0],
      "ProtocolName": "cmrr_mbepi_s6_2mm_66sl_PA_task-wedgering3",
      "RepetitionTime": 1000.0,
      "Rows": 936,
      "SAR": 0.07644829730466,
      "SamplesPerPixel": 1,
      "ScanOptions": "FS",
      "ScanningSequence": "EP",
      "SequenceName": "epfid2d1_104",
      "SequenceVariant": [
        "SK",
        "SS"
],
      "SeriesDescription": "cmrr_mbepi_s6_2mm_66sl_PA_task-wedgering3",
      "SeriesNumber": 18,
      "SeriesTime": "110804.287000",
      "SliceLocation": -44.286244358261,
      "SliceThickness": 2.0,
      "SmallestImagePixelValue": 0,
      "SoftwareVersions": "syngo MR E11",
      "SpacingBetweenSlices": 2.0000000476583,
      "SpecificCharacterSet": "ISO_IR 100",
      "StudyID": "1",
      "StudyTime": "101844.844000",
      "TransmitCoilName": "Body",
      "VariableFlipAngleFlag": "N",
      "WindowCenterWidthExplanation": "Algo1",
      "dBdt": 0.0},
    "slices": {}
  },
  "time": {
    "samples": {
      "AcquisitionNumber": [1, 2, 3, 4, 5, 6, 7, 8, 9, 10, 11, 12, 13, 14, 15, 16, 17, 18, 19, 20, 21, 22, 23, 24, 25, 26, 27, 28, 29, 30, 31, 32, 33, 34, 35, 36, 37, 38, 39, 40, 41, 42, 43, 44, 45, 46, 47, 48, 49, 50, 51, 52, 53, 54, 55, 56, 57, 58, 59, 60, 61, 62, 63, 64, 65, 66, 67, 68, 69, 70, 71, 72, 73, 74, 75, 76, 77, 78, 79, 80, 81, 82, 83, 84, 85, 86, 87, 88, 89, 90, 91, 92, 93, 94, 95, 96, 97, 98, 99, 100, 101, 102, 103, 104, 105, 106, 107, 108, 109, 110, 111, 112, 113, 114, 115, 116, 117, 118, 119, 120, 121, 122, 123, 124, 125, 126, 127, 128, 129, 130, 131, 132, 133, 134, 135, 136, 137, 138, 139, 140, 141, 142, 143, 144, 145, 146, 147, 148, 149, 150, 151, 152, 153, 154, 155, 156, 157, 158, 159, 160, 161, 162, 163, 164, 165, 166, 167, 168, 169, 170, 171, 172, 173, 174, 175, 176, 177, 178, 179, 180, 181, 182, 183, 184, 185, 186, 187, 188, 189, 190, 191, 192, 193, 194, 195, 196, 197, 198, 199, 200, 201, 202, 203, 204, 205, 206, 207, 208, 209, 210, 211, 212, 213, 214, 215, 216, 217, 218, 219, 220, 221, 222, 223, 224, 225, 226, 227, 228, 229, 230, 231, 232, 233, 234, 235, 236, 237, 238, 239, 240, 241, 242, 243, 244, 245, 246, 247, 248, 249, 250, 251, 252, 253, 254, 255, 256, 257, 258, 259, 260, 261, 262, 263, 264, 265, 266, 267, 268, 269, 270, 271, 272, 273, 274, 275, 276, 277, 278, 279, 280, 281, 282, 283, 284, 285, 286, 287, 288, 289, 290, 291, 292, 293, 294, 295, 296, 297, 298, 299, 300],
      "AcquisitionTime": ["110643.310000", "110644.310000", "110645.310000", "110646.310000", "110647.310000", "110648.310000", "110649.310000", "110650.310000", "110651.310000", "110652.310000", "110653.310000", "110654.310000", "110655.310000", "110656.310000", "110657.310000", "110658.310000", "110659.310000", "110700.310000", "110701.310000", "110702.310000", "110703.310000", "110704.310000", "110705.310000", "110706.310000", "110707.310000", "110708.310000", "110709.310000", "110710.310000", "110711.310000", "110712.310000", "110713.310000", "110714.310000", "110715.310000", "110716.310000", "110717.310000", "110718.310000", "110719.310000", "110720.310000", "110721.310000", "110722.310000", "110723.310000", "110724.310000", "110725.310000", "110726.310000", "110727.310000", "110728.310000", "110729.310000", "110730.310000", "110731.310000", "110732.310000", "110733.310000", "110734.310000", "110735.310000", "110736.310000", "110737.310000", "110738.310000", "110739.310000", "110740.310000", "110741.310000", "110742.310000", "110743.310000", "110744.310000", "110745.310000", "110746.310000", "110747.310000", "110748.310000", "110749.310000", "110750.310000", "110751.310000", "110752.310000", "110753.310000", "110754.310000", "110755.310000", "110756.310000", "110757.310000", "110758.310000", "110759.310000", "110800.310000", "110801.310000", "110802.310000", "110803.310000", "110804.310000", "110805.310000", "110806.310000", "110807.310000", "110808.310000", "110809.310000", "110810.310000", "110811.310000", "110812.310000", "110813.310000", "110814.310000", "110815.310000", "110816.310000", "110817.310000", "110818.310000", "110819.310000", "110820.310000", "110821.310000", "110822.310000", "110823.310000", "110824.310000", "110825.310000", "110826.310000", "110827.310000", "110828.310000", "110829.310000", "110830.310000", "110831.310000", "110832.310000", "110833.310000", "110834.310000", "110835.310000", "110836.310000", "110837.310000", "110838.310000", "110839.310000", "110840.310000", "110841.310000", "110842.310000", "110843.310000", "110844.310000", "110845.310000", "110846.310000", "110847.310000", "110848.310000", "110849.310000", "110850.310000", "110851.310000", "110852.310000", "110853.310000", "110854.310000", "110855.310000", "110856.310000", "110857.310000", "110858.310000", "110859.310000", "110900.310000", "110901.310000", "110902.310000", "110903.310000", "110904.310000", "110905.310000", "110906.310000", "110907.310000", "110908.310000", "110909.310000", "110910.310000", "110911.310000", "110912.310000", "110913.310000", "110914.310000", "110915.310000", "110916.310000", "110917.310000", "110918.310000", "110919.310000", "110920.310000", "110921.310000", "110922.310000", "110923.310000", "110924.310000", "110925.310000", "110926.310000", "110927.310000", "110928.310000", "110929.310000", "110930.310000", "110931.310000", "110932.310000", "110933.310000", "110934.310000", "110935.310000", "110936.310000", "110937.310000", "110938.310000", "110939.310000", "110940.310000", "110941.310000", "110942.310000", "110943.310000", "110944.310000", "110945.310000", "110946.310000", "110947.310000", "110948.310000", "110949.310000", "110950.310000", "110951.310000", "110952.310000", "110953.310000", "110954.310000", "110955.310000", "110956.310000", "110957.310000", "110958.310000", "110959.310000", "111000.310000", "111001.310000", "111002.310000", "111003.310000", "111004.310000", "111005.310000", "111006.310000", "111007.310000", "111008.310000", "111009.310000", "111010.310000", "111011.310000", "111012.310000", "111013.310000", "111014.310000", "111015.310000", "111016.310000", "111017.310000", "111018.310000", "111019.310000", "111020.310000", "111021.310000", "111022.310000", "111023.310000", "111024.310000", "111025.310000", "111026.310000", "111027.310000", "111028.310000", "111029.310000", "111030.310000", "111031.310000", "111032.310000", "111033.310000", "111034.310000", "111035.310000", "111036.310000", "111037.310000", "111038.310000", "111039.310000", "111040.310000", "111041.310000", "111042.310000", "111043.310000", "111044.310000", "111045.310000", "111046.310000", "111047.310000", "111048.310000", "111049.310000", "111050.310000", "111051.310000", "111052.310000", "111053.310000", "111054.310000", "111055.310000", "111056.310000", "111057.310000", "111058.310000", "111059.310000", "111100.310000", "111101.310000", "111102.310000", "111103.310000", "111104.310000", "111105.310000", "111106.310000", "111107.310000", "111108.310000", "111109.310000", "111110.310000", "111111.310000", "111112.310000", "111113.310000", "111114.310000", "111115.310000", "111116.310000", "111117.310000", "111118.310000", "111119.310000", "111120.310000", "111121.310000", "111122.310000", "111123.310000", "111124.310000", "111125.310000", "111126.310000", "111127.310000", "111128.310000", "111129.310000", "111130.310000", "111131.310000", "111132.310000", "111133.310000", "111134.310000", "111135.310000", "111136.310000", "111137.310000", "111138.310000", "111139.310000", "111140.310000", "111141.310000", "111142.310000"],
      "ContentTime": ["110804.290000", "110804.294000", "110804.297000", "110804.300000", "110804.303000", "110804.307000", "110804.310000", "110804.321000", "110804.324000", "110804.327000", "110804.330000", "110804.334000", "110804.337000", "110804.340000", "110804.343000", "110804.346000", "110804.349000", "110804.353000", "110804.356000", "110804.359000", "110804.362000", "110804.365000", "110804.368000", "110804.371000", "110804.375000", "110804.378000", "110804.381000", "110804.384000", "110804.387000", "110804.390000", "110804.393000", "110804.396000", "110804.399000", "110804.402000", "110804.405000", "110804.409000", "110804.412000", "110804.415000", "110804.418000", "110804.421000", "110804.424000", "110804.427000", "110804.430000", "110824.256000", "110824.259000", "110824.262000", "110824.266000", "110824.269000", "110824.279000", "110824.282000", "110824.285000", "110824.288000", "110824.291000", "110824.294000", "110824.297000", "110824.300000", "110824.303000", "110824.307000", "110824.310000", "110824.313000", "110824.316000", "110824.319000", "110824.322000", "110824.325000", "110824.328000", "110824.331000", "110824.335000", "110824.338000", "110824.341000", "110824.344000", "110824.347000", "110844.256000", "110844.259000", "110844.262000", "110844.266000", "110844.269000", "110844.272000", "110844.275000", "110844.278000", "110844.281000", "110844.284000", "110844.287000", "110844.290000", "110844.294000", "110844.298000", "110844.303000", "110844.307000", "110844.310000", "110844.314000", "110844.317000", "110844.320000", "110844.323000", "110844.326000", "110844.329000", "110844.332000", "110844.336000", "110844.344000", "110844.347000", "110844.350000", "110904.256000", "110904.260000", "110904.263000", "110904.266000", "110904.269000", "110904.272000", "110904.275000", "110904.278000", "110904.281000", "110904.285000", "110904.293000", "110904.296000", "110904.299000", "110904.302000", "110904.306000", "110904.313000", "110904.316000", "110904.319000", "110904.322000", "110904.325000", "110904.328000", "110904.332000", "110904.335000", "110904.338000", "110904.341000", "110904.344000", "110904.347000", "110904.350000", "110904.354000", "110924.256000", "110924.259000", "110924.262000", "110924.265000", "110924.269000", "110924.272000", "110924.275000", "110924.278000", "110924.281000", "110924.284000", "110924.287000", "110924.290000", "110924.293000", "110924.296000", "110924.299000", "110924.303000", "110924.306000", "110924.310000", "110924.313000", "110924.316000", "110924.319000", "110924.322000", "110924.325000", "110924.328000", "110924.332000", "110924.335000", "110924.338000", "110924.341000", "110944.256000", "110944.272000", "110944.275000", "110944.278000", "110944.281000", "110944.284000", "110944.287000", "110944.290000", "110944.293000", "110944.296000", "110944.300000", "110944.303000", "110944.306000", "110944.309000", "110944.313000", "110944.316000", "110944.319000", "110944.322000", "110944.325000", "110944.328000", "110944.332000", "110944.335000", "110944.338000", "111004.256000", "111004.259000", "111004.263000", "111004.266000", "111004.269000", "111004.272000", "111004.275000", "111004.278000", "111004.281000", "111004.284000", "111004.287000", "111004.291000", "111004.294000", "111004.297000", "111004.300000", "111004.303000", "111004.306000", "111004.310000", "111004.313000", "111004.316000", "111024.256000", "111024.259000", "111024.262000", "111024.266000", "111024.269000", "111024.272000", "111024.275000", "111024.278000", "111024.281000", "111024.284000", "111024.287000", "111024.291000", "111024.294000", "111024.297000", "111024.300000", "111024.303000", "111024.306000", "111024.309000", "111024.313000", "111024.316000", "111044.256000", "111044.259000", "111044.262000", "111044.266000", "111044.269000", "111044.272000", "111044.275000", "111044.278000", "111044.281000", "111044.284000", "111044.287000", "111044.291000", "111044.294000", "111044.297000", "111044.300000", "111044.303000", "111044.306000", "111044.309000", "111044.312000", "111044.316000", "111104.256000", "111104.259000", "111104.262000", "111104.266000", "111104.269000", "111104.272000", "111104.275000", "111104.278000", "111104.285000", "111104.288000", "111104.291000", "111104.295000", "111104.298000", "111104.301000", "111104.304000", "111104.308000", "111104.311000", "111104.314000", "111104.317000", "111104.320000", "111124.256000", "111124.259000", "111124.262000", "111124.266000", "111124.269000", "111124.272000", "111124.275000", "111124.278000", "111124.281000", "111124.285000", "111124.288000", "111124.291000", "111124.294000", "111124.297000", "111124.300000", "111124.303000", "111124.306000", "111124.309000", "111124.313000", "111124.316000", "111144.256000", "111144.259000", "111144.262000", "111144.266000", "111144.270000", "111144.273000", "111144.276000", "111144.280000", "111144.283000", "111144.286000", "111144.290000", "111144.293000", "111144.296000", "111144.300000", "111144.303000", "111144.306000", "111144.309000", "111144.312000", "111144.315000", "111144.319000", "111144.445000"],
      "InstanceCreationTime": ["110804.290000", "110804.294000", "110804.297000", "110804.300000", "110804.303000", "110804.307000", "110804.310000", "110804.321000", "110804.324000", "110804.327000", "110804.330000", "110804.334000", "110804.337000", "110804.340000", "110804.343000", "110804.346000", "110804.349000", "110804.353000", "110804.356000", "110804.359000", "110804.362000", "110804.365000", "110804.368000", "110804.371000", "110804.375000", "110804.378000", "110804.381000", "110804.384000", "110804.387000", "110804.390000", "110804.393000", "110804.396000", "110804.399000", "110804.402000", "110804.405000", "110804.409000", "110804.412000", "110804.415000", "110804.418000", "110804.421000", "110804.424000", "110804.427000", "110804.430000", "110824.256000", "110824.259000", "110824.262000", "110824.266000", "110824.269000", "110824.279000", "110824.282000", "110824.285000", "110824.288000", "110824.291000", "110824.294000", "110824.297000", "110824.300000", "110824.303000", "110824.307000", "110824.310000", "110824.313000", "110824.316000", "110824.319000", "110824.322000", "110824.325000", "110824.328000", "110824.331000", "110824.335000", "110824.338000", "110824.341000", "110824.344000", "110824.347000", "110844.256000", "110844.259000", "110844.262000", "110844.266000", "110844.269000", "110844.272000", "110844.275000", "110844.278000", "110844.281000", "110844.284000", "110844.287000", "110844.290000", "110844.294000", "110844.298000", "110844.303000", "110844.307000", "110844.310000", "110844.314000", "110844.317000", "110844.320000", "110844.323000", "110844.326000", "110844.329000", "110844.332000", "110844.336000", "110844.344000", "110844.347000", "110844.350000", "110904.256000", "110904.260000", "110904.263000", "110904.266000", "110904.269000", "110904.272000", "110904.275000", "110904.278000", "110904.281000", "110904.285000", "110904.293000", "110904.296000", "110904.299000", "110904.302000", "110904.306000", "110904.313000", "110904.316000", "110904.319000", "110904.322000", "110904.325000", "110904.328000", "110904.332000", "110904.335000", "110904.338000", "110904.341000", "110904.344000", "110904.347000", "110904.350000", "110904.354000", "110924.256000", "110924.259000", "110924.262000", "110924.265000", "110924.269000", "110924.272000", "110924.275000", "110924.278000", "110924.281000", "110924.284000", "110924.287000", "110924.290000", "110924.293000", "110924.296000", "110924.299000", "110924.303000", "110924.306000", "110924.310000", "110924.313000", "110924.316000", "110924.319000", "110924.322000", "110924.325000", "110924.328000", "110924.332000", "110924.335000", "110924.338000", "110924.341000", "110944.256000", "110944.272000", "110944.275000", "110944.278000", "110944.281000", "110944.284000", "110944.287000", "110944.290000", "110944.293000", "110944.296000", "110944.300000", "110944.303000", "110944.306000", "110944.309000", "110944.313000", "110944.316000", "110944.319000", "110944.322000", "110944.325000", "110944.328000", "110944.332000", "110944.335000", "110944.338000", "111004.256000", "111004.259000", "111004.263000", "111004.266000", "111004.269000", "111004.272000", "111004.275000", "111004.278000", "111004.281000", "111004.284000", "111004.287000", "111004.291000", "111004.294000", "111004.297000", "111004.300000", "111004.303000", "111004.306000", "111004.310000", "111004.313000", "111004.316000", "111024.256000", "111024.259000", "111024.262000", "111024.266000", "111024.269000", "111024.272000", "111024.275000", "111024.278000", "111024.281000", "111024.284000", "111024.287000", "111024.291000", "111024.294000", "111024.297000", "111024.300000", "111024.303000", "111024.306000", "111024.309000", "111024.313000", "111024.316000", "111044.256000", "111044.259000", "111044.262000", "111044.266000", "111044.269000", "111044.272000", "111044.275000", "111044.278000", "111044.281000", "111044.284000", "111044.287000", "111044.291000", "111044.294000", "111044.297000", "111044.300000", "111044.303000", "111044.306000", "111044.309000", "111044.312000", "111044.316000", "111104.256000", "111104.259000", "111104.262000", "111104.266000", "111104.269000", "111104.272000", "111104.275000", "111104.278000", "111104.285000", "111104.288000", "111104.291000", "111104.295000", "111104.298000", "111104.301000", "111104.304000", "111104.308000", "111104.311000", "111104.314000", "111104.317000", "111104.320000", "111124.256000", "111124.259000", "111124.262000", "111124.266000", "111124.269000", "111124.272000", "111124.275000", "111124.278000", "111124.281000", "111124.285000", "111124.288000", "111124.291000", "111124.294000", "111124.297000", "111124.300000", "111124.303000", "111124.306000", "111124.309000", "111124.313000", "111124.316000", "111144.256000", "111144.259000", "111144.262000", "111144.266000", "111144.270000", "111144.273000", "111144.276000", "111144.280000", "111144.283000", "111144.286000", "111144.290000", "111144.293000", "111144.296000", "111144.300000", "111144.303000", "111144.306000", "111144.309000", "111144.312000", "111144.315000", "111144.319000", "111144.445000"],
      "InstanceNumber": [1, 2, 3, 4, 5, 6, 7, 8, 9, 10, 11, 12, 13, 14, 15, 16, 17, 18, 19, 20, 21, 22, 23, 24, 25, 26, 27, 28, 29, 30, 31, 32, 33, 34, 35, 36, 37, 38, 39, 40, 41, 42, 43, 44, 45, 46, 47, 48, 49, 50, 51, 52, 53, 54, 55, 56, 57, 58, 59, 60, 61, 62, 63, 64, 65, 66, 67, 68, 69, 70, 71, 72, 73, 74, 75, 76, 77, 78, 79, 80, 81, 82, 83, 84, 85, 86, 87, 88, 89, 90, 91, 92, 93, 94, 95, 96, 97, 98, 99, 100, 101, 102, 103, 104, 105, 106, 107, 108, 109, 110, 111, 112, 113, 114, 115, 116, 117, 118, 119, 120, 121, 122, 123, 124, 125, 126, 127, 128, 129, 130, 131, 132, 133, 134, 135, 136, 137, 138, 139, 140, 141, 142, 143, 144, 145, 146, 147, 148, 149, 150, 151, 152, 153, 154, 155, 156, 157, 158, 159, 160, 161, 162, 163, 164, 165, 166, 167, 168, 169, 170, 171, 172, 173, 174, 175, 176, 177, 178, 179, 180, 181, 182, 183, 184, 185, 186, 187, 188, 189, 190, 191, 192, 193, 194, 195, 196, 197, 198, 199, 200, 201, 202, 203, 204, 205, 206, 207, 208, 209, 210, 211, 212, 213, 214, 215, 216, 217, 218, 219, 220, 221, 222, 223, 224, 225, 226, 227, 228, 229, 230, 231, 232, 233, 234, 235, 236, 237, 238, 239, 240, 241, 242, 243, 244, 245, 246, 247, 248, 249, 250, 251, 252, 253, 254, 255, 256, 257, 258, 259, 260, 261, 262, 263, 264, 265, 266, 267, 268, 269, 270, 271, 272, 273, 274, 275, 276, 277, 278, 279, 280, 281, 282, 283, 284, 285, 286, 287, 288, 289, 290, 291, 292, 293, 294, 295, 296, 297, 298, 299, 300],
      "LargestImagePixelValue": [41289, 40945, 40215, 39467, 38703, 39752, 39748, 39543, 38690, 39232, 39249, 39476, 38799, 39348, 39001, 39780, 38896, 39372, 39692, 39762, 39513, 39135, 39228, 39517, 39027, 39348, 39509, 39501, 39492, 39670, 39987, 39095, 39044, 39174, 39380, 39117, 38928, 39246, 39340, 39179, 39286, 39592, 39919, 39412, 39282, 40010, 39580, 39328, 38722, 40001, 39461, 39256, 39785, 39843, 39814, 39502, 39457, 39351, 39072, 39287, 39366, 39564, 39336, 38898, 39348, 38879, 38202, 39227, 39184, 39770, 38932, 39162, 38748, 38734, 39078, 39013, 39013, 39271, 39191, 39204, 39488, 38829, 39397, 39847, 39572, 39668, 39741, 39748, 39604, 39448, 39302, 38900, 39700, 39658, 39682, 38954, 39023, 39267, 39105, 38640, 38816, 38831, 38941, 38585, 38548, 38994, 38976, 39035, 39102, 39778, 39672, 39470, 39400, 39191, 39740, 39714, 40069, 40258, 39837, 39720, 39652, 39505, 39696, 39925, 38924, 39201, 40262, 39840, 40105, 38541, 39097, 39373, 40252, 39976, 40147, 40247, 39150, 39528, 40425, 40694, 39906, 39821, 40594, 40377, 41617, 41107, 39760, 39779, 40188, 40795, 40774, 40654, 39986, 40854, 40828, 41083, 40946, 39616, 40041, 40110, 40670, 41393, 40684, 40284, 41318, 39740, 40278, 40769, 40596, 39276, 39868, 39444, 39533, 39452, 40408, 41254, 41443, 39616, 39811, 40147, 40787, 40386, 38835, 38902, 40310, 41213, 40539, 40294, 40476, 40516, 39955, 40587, 40400, 40552, 40762, 40757, 38805, 40230, 39746, 40297, 41176, 41171, 41006, 40470, 39292, 39302, 39109, 40706, 40501, 41122, 40903, 39523, 40043, 40441, 40420, 40695, 41239, 40188, 40510, 40562, 40711, 39406, 39433, 39527, 39953, 41019, 39979, 40809, 40626, 38918, 40238, 40145, 40424, 41099, 40896, 40628, 39574, 41077, 40757, 39260, 39753, 40105, 41062, 40549, 40153, 40565, 40323, 40681, 40344, 39795, 40104, 40946, 41279, 39668, 40583, 40820, 39868, 40562, 41009, 40587, 40574, 39191, 39518, 40856, 41219, 39422, 41084, 39661, 39809, 40754, 41524, 41379, 40698, 40112, 40380, 39503, 39880, 39999, 41160, 40335, 40744, 41484, 40209, 41041, 41010, 40682, 39921, 39835, 39748, 40295, 40659, 41314, 40960, 40797, 40626, 41641, 40325, 39287, 40677, 41189],
      "WindowCenter": [10249.0, 10228.0, 10219.0, 10199.0, 10179.0, 10186.0, 10187.0, 10185.0, 10167.0, 10171.0, 10171.0, 10169.0, 10154.0, 10170.0, 10165.0, 10189.0, 10182.0, 10195.0, 10204.0, 10205.0, 10204.0, 10190.0, 10182.0, 10171.0, 10154.0, 10146.0, 10152.0, 10160.0, 10168.0, 10176.0, 10182.0, 10167.0, 10166.0, 10167.0, 10174.0, 10174.0, 10165.0, 10177.0, 10188.0, 10198.0, 10204.0, 10203.0, 10209.0, 10197.0, 10187.0, 10184.0, 10177.0, 10170.0, 10164.0, 10181.0, 10179.0, 10180.0, 10185.0, 10191.0, 10185.0, 10173.0, 10173.0, 10178.0, 10174.0, 10179.0, 10177.0, 10183.0, 10180.0, 10174.0, 10181.0, 10182.0, 10172.0, 10186.0, 10187.0, 10194.0, 10183.0, 10198.0, 10199.0, 10200.0, 10200.0, 10207.0, 10202.0, 10198.0, 10182.0, 10185.0, 10181.0, 10180.0, 10192.0, 10201.0, 10202.0, 10195.0, 10195.0, 10200.0, 10194.0, 10195.0, 10201.0, 10202.0, 10216.0, 10221.0, 10221.0, 10210.0, 10199.0, 10189.0, 10174.0, 10164.0, 10158.0, 10164.0, 10178.0, 10181.0, 10183.0, 10196.0, 10199.0, 10198.0, 10197.0, 10208.0, 10209.0, 10212.0, 10228.0, 10232.0, 10235.0, 10229.0, 10227.0, 10224.0, 10210.0, 10217.0, 10218.0, 10210.0, 10211.0, 10217.0, 10215.0, 10221.0, 10231.0, 10231.0, 10219.0, 10194.0, 10197.0, 10195.0, 10192.0, 10184.0, 10197.0, 10205.0, 10198.0, 10204.0, 10223.0, 10229.0, 10211.0, 10205.0, 10213.0, 10199.0, 10200.0, 10194.0, 10186.0, 10195.0, 10205.0, 10205.0, 10206.0, 10207.0, 10195.0, 10206.0, 10204.0, 10201.0, 10193.0, 10176.0, 10191.0, 10200.0, 10206.0, 10215.0, 10206.0, 10213.0, 10219.0, 10195.0, 10201.0, 10207.0, 10198.0, 10173.0, 10181.0, 10179.0, 10177.0, 10171.0, 10188.0, 10194.0, 10192.0, 10168.0, 10162.0, 10166.0, 10169.0, 10157.0, 10147.0, 10156.0, 10190.0, 10211.0, 10216.0, 10216.0, 10209.0, 10201.0, 10192.0, 10190.0, 10176.0, 10179.0, 10186.0, 10195.0, 10178.0, 10201.0, 10203.0, 10209.0, 10213.0, 10205.0, 10204.0, 10193.0, 10195.0, 10197.0, 10208.0, 10232.0, 10233.0, 10233.0, 10231.0, 10208.0, 10202.0, 10200.0, 10207.0, 10216.0, 10223.0, 10215.0, 10222.0, 10224.0, 10217.0, 10199.0, 10197.0, 10195.0, 10191.0, 10195.0, 10191.0, 10203.0, 10196.0, 10184.0, 10209.0, 10217.0, 10234.0, 10240.0, 10239.0, 10224.0, 10212.0, 10221.0, 10208.0, 10197.0, 10204.0, 10209.0, 10212.0, 10213.0, 10217.0, 10223.0, 10224.0, 10214.0, 10200.0, 10187.0, 10194.0, 10205.0, 10209.0, 10195.0, 10208.0, 10214.0, 10200.0, 10212.0, 10220.0, 10210.0, 10209.0, 10197.0, 10192.0, 10205.0, 10209.0, 10190.0, 10214.0, 10204.0, 10214.0, 10225.0, 10222.0, 10207.0, 10199.0, 10186.0, 10183.0, 10166.0, 10191.0, 10202.0, 10222.0, 10219.0, 10239.0, 10252.0, 10235.0, 10225.0, 10214.0, 10198.0, 10178.0, 10169.0, 10168.0, 10174.0, 10184.0, 10185.0, 10194.0, 10212.0, 10224.0, 10243.0, 10241.0, 10239.0, 10252.0, 10255.0],
