{
  "AcquisitionMatrixPE": 104,
  "AcquisitionNumber": 1,
  "AcquisitionTime": "10:38:25.455000",
  "BandwidthPerPixelPhaseEncode": 16.297,
  "BaseResolution": 104,
  "BodyPartExamined": "BRAIN",
  "ConsistencyInfo": "N4_VE11C_LATEST_20160120",
  "ConversionSoftware": "dcm2niix",
  "ConversionSoftwareVersion": "v1.0.20210317",
  "DerivedVendorReportedEchoSpacing": 0.000590009,
  "DeviceSerialNumber": "166018",
  "DwellTime": 2.1e-06,
  "EchoTime": 0.0376,
  "EchoTrainLength": 104,
  "EffectiveEchoSpacing": 0.000590009,
  "FlipAngle": 68,
  "ImageComments": "Unaliased MB6/PE3/LB",
  "ImageOrientationPatientDICOM": [0.999948, -0.00454475, 0.00913205, 0.00628292, 0.979692, -0.200408],
  "ImageType": [
    "ORIGINAL",
    "PRIMARY",
    "M",
    "MB",
    "ND",
    "MOSAIC"
],
  "ImagingFrequency": 123.197,
  "InPlanePhaseEncodingDirectionDICOM": "COL",
  "InstitutionAddress": "Washington Place 6,NYC,NYC,US,10003",
  "InstitutionName": "NYU - CBI",
  "InstitutionalDepartmentName": "Department",
  "MRAcquisitionType": "2D",
  "MagneticFieldStrength": 3,
  "Manufacturer": "Siemens",
  "ManufacturersModelName": "Prisma",
  "Modality": "MR",
  "MultibandAccelerationFactor": 6,
  "PartialFourier": 1,
  "PatientPosition": "HFS",
  "PercentPhaseFOV": 100,
  "PercentSampling": 100,
  "PhaseEncodingDirection": "j",
  "PhaseEncodingSteps": 104,
  "PhaseResolution": 1,
  "PixelBandwidth": 2290,
  "ProcedureStepDescription": "Investigators^Winawer",
  "ProtocolName": "cmrr_mbepi_s6_2mm_66sl_PA_task-wedgering1",
  "PulseSequenceDetails": "%CustomerSeq%\\cmrr_mbep2d_bold",
  "ReceiveCoilActiveElements": "HC1-7",
  "ReceiveCoilName": "HeadNeck_64",
  "ReconMatrixPE": 104,
  "RepetitionTime": 1,
  "SAR": 0.0764483,
  "ScanOptions": "FS",
  "ScanningSequence": "EP",
  "SequenceName": "epfid2d1_104",
  "SequenceVariant": "SK\\SS",
  "SeriesDescription": "cmrr_mbepi_s6_2mm_66sl_PA_task-wedgering1",
  "SeriesNumber": 10,
  "ShimSetting": [280, -12676, -8514, 136, -33, -157, -203, 74],
  "SliceThickness": 2,
  "SliceTiming": [0, 0.535, 0.0875, 0.6225, 0.1775, 0.7125, 0.2675, 0.8, 0.355, 0.89, 0.445, 0, 0.535, 0.0875, 0.6225, 0.1775, 0.7125, 0.2675, 0.8, 0.355, 0.89, 0.445, 0, 0.535, 0.0875, 0.6225, 0.1775, 0.7125, 0.2675, 0.8, 0.355, 0.89, 0.445, 0, 0.535, 0.0875, 0.6225, 0.1775, 0.7125, 0.2675, 0.8, 0.355, 0.89, 0.445, 0, 0.535, 0.0875, 0.6225, 0.1775, 0.7125, 0.2675, 0.8, 0.355, 0.89, 0.445, 0, 0.535, 0.0875, 0.6225, 0.1775, 0.7125, 0.2675, 0.8, 0.355, 0.89, 0.445],
  "SoftwareVersions": "syngo MR E11",
  "SpacingBetweenSlices": 2,
  "StationName": "AWP166018",
  "TaskName": "wedgering1",
  "TotalReadoutTime": 0.060771,
  "TxRefAmp": 205.472,
  "VendorReportedEchoSpacing": 0.00059,
  "WipMemBlock": "0010dfc7-2282-4613-a69d-381a814279c4||Sequence: R016 ve11c/master r/8780670; Nov 27 2017 15:05:12 by eja",
  "dcmmeta_affine": [
    [-1.9998959302902222, 0.012565836310386658, 0.016071578487753868, 106.30741119384766],
    [0.00908949039876461, 1.959384560585022, -0.4009108543395996, -70.38555908203125],
    [0.01826409064233303, 0.4008169174194336, 1.9593397378921509, -60.479225158691406],
    [0.0, 0.0, 0.0, 1.0]
],
  "dcmmeta_reorient_transform": [
    [0.0, -1.0, 0.0, 103.0],
    [1.0, 0.0, 0.0, 0.0],
    [0.0, 0.0, 1.0, 0.0],
    [0.0, 0.0, 0.0, 1.0]
],
  "dcmmeta_shape": [104, 104, 66, 300],
  "dcmmeta_slice_dim": 2,
  "dcmmeta_version": 0.6,
  "global": {
    "const": {
      "AccessionNumber": "Lebywuid",
      "AcquisitionMatrix": [104, 0, 0, 104],
      "AngioFlag": "N",
      "BitsAllocated": 16,
      "BitsStored": 16,
      "BodyPartExamined": "BRAIN",
      "Columns": 936,
      "EchoNumbers": 1,
      "EchoTime": 37.6,
      "EchoTrainLength": 104,
      "FlipAngle": 68.0,
      "HighBit": 15,
      "ImageOrientationPatient": [0.99994797416428, -0.0045447453845, 0.00913204545185, 0.00628291807953, 0.97969228423199, -0.2004084657811],
      "ImagePositionPatient": [-944.7857982781, -942.75380146987, 139.9468998383],
      "ImageType": [
        "ORIGINAL",
        "PRIMARY",
        "M",
        "MB",
        "ND",
        "MOSAIC"
],
      "ImagedNucleus": "1H",
      "ImagingFrequency": 123.19683,
      "InPlanePhaseEncodingDirection": "COL",
      "MRAcquisitionType": "2D",
      "MagneticFieldStrength": 3.0,
      "Manufacturer": "SIEMENS",
      "ManufacturerModelName": "Prisma",
      "Modality": "MR",
      "NumberOfAverages": 1.0,
      "NumberOfPhaseEncodingSteps": 104,
      "PercentPhaseFieldOfView": 100.0,
      "PercentSampling": 100.0,
      "PerformedProcedureStepStartTime": "101845.016000",
      "PhotometricInterpretation": "MONOCHROME2",
      "PixelBandwidth": 2290.0,
      "PixelRepresentation": 0,
      "PixelSpacing": [2.0, 2.0],
      "ProtocolName": "cmrr_mbepi_s6_2mm_66sl_PA_task-wedgering1",
      "RepetitionTime": 1000.0,
      "Rows": 936,
      "SAR": 0.07644829730466,
      "SamplesPerPixel": 1,
      "ScanOptions": "FS",
      "ScanningSequence": "EP",
      "SequenceName": "epfid2d1_104",
      "SequenceVariant": [
        "SK",
        "SS"
],
      "SeriesDescription": "cmrr_mbepi_s6_2mm_66sl_PA_task-wedgering1",
      "SeriesNumber": 10,
      "SeriesTime": "103944.436000",
      "SliceLocation": -44.286244358261,
      "SliceThickness": 2.0,
      "SmallestImagePixelValue": 0,
      "SoftwareVersions": "syngo MR E11",
      "SpacingBetweenSlices": 2.0000000476583,
      "SpecificCharacterSet": "ISO_IR 100",
      "StudyID": "1",
      "StudyTime": "101844.844000",
      "TransmitCoilName": "Body",
      "VariableFlipAngleFlag": "N",
      "WindowCenterWidthExplanation": "Algo1",
      "dBdt": 0.0},
    "slices": {}
  },
  "time": {
    "samples": {
      "AcquisitionNumber": [1, 2, 3, 4, 5, 6, 7, 8, 9, 10, 11, 12, 13, 14, 15, 16, 17, 18, 19, 20, 21, 22, 23, 24, 25, 26, 27, 28, 29, 30, 31, 32, 33, 34, 35, 36, 37, 38, 39, 40, 41, 42, 43, 44, 45, 46, 47, 48, 49, 50, 51, 52, 53, 54, 55, 56, 57, 58, 59, 60, 61, 62, 63, 64, 65, 66, 67, 68, 69, 70, 71, 72, 73, 74, 75, 76, 77, 78, 79, 80, 81, 82, 83, 84, 85, 86, 87, 88, 89, 90, 91, 92, 93, 94, 95, 96, 97, 98, 99, 100, 101, 102, 103, 104, 105, 106, 107, 108, 109, 110, 111, 112, 113, 114, 115, 116, 117, 118, 119, 120, 121, 122, 123, 124, 125, 126, 127, 128, 129, 130, 131, 132, 133, 134, 135, 136, 137, 138, 139, 140, 141, 142, 143, 144, 145, 146, 147, 148, 149, 150, 151, 152, 153, 154, 155, 156, 157, 158, 159, 160, 161, 162, 163, 164, 165, 166, 167, 168, 169, 170, 171, 172, 173, 174, 175, 176, 177, 178, 179, 180, 181, 182, 183, 184, 185, 186, 187, 188, 189, 190, 191, 192, 193, 194, 195, 196, 197, 198, 199, 200, 201, 202, 203, 204, 205, 206, 207, 208, 209, 210, 211, 212, 213, 214, 215, 216, 217, 218, 219, 220, 221, 222, 223, 224, 225, 226, 227, 228, 229, 230, 231, 232, 233, 234, 235, 236, 237, 238, 239, 240, 241, 242, 243, 244, 245, 246, 247, 248, 249, 250, 251, 252, 253, 254, 255, 256, 257, 258, 259, 260, 261, 262, 263, 264, 265, 266, 267, 268, 269, 270, 271, 272, 273, 274, 275, 276, 277, 278, 279, 280, 281, 282, 283, 284, 285, 286, 287, 288, 289, 290, 291, 292, 293, 294, 295, 296, 297, 298, 299, 300],
      "AcquisitionTime": ["103825.455000", "103826.455000", "103827.455000", "103828.455000", "103829.455000", "103830.455000", "103831.455000", "103832.455000", "103833.455000", "103834.455000", "103835.455000", "103836.455000", "103837.455000", "103838.455000", "103839.455000", "103840.455000", "103841.455000", "103842.455000", "103843.455000", "103844.455000", "103845.455000", "103846.455000", "103847.455000", "103848.455000", "103849.455000", "103850.455000", "103851.455000", "103852.455000", "103853.455000", "103854.455000", "103855.455000", "103856.455000", "103857.455000", "103858.455000", "103859.455000", "103900.455000", "103901.455000", "103902.455000", "103903.455000", "103904.455000", "103905.455000", "103906.455000", "103907.455000", "103908.455000", "103909.455000", "103910.455000", "103911.455000", "103912.455000", "103913.455000", "103914.455000", "103915.455000", "103916.455000", "103917.455000", "103918.455000", "103919.455000", "103920.455000", "103921.455000", "103922.455000", "103923.455000", "103924.455000", "103925.455000", "103926.455000", "103927.455000", "103928.455000", "103929.455000", "103930.455000", "103931.455000", "103932.455000", "103933.455000", "103934.455000", "103935.455000", "103936.455000", "103937.455000", "103938.455000", "103939.455000", "103940.455000", "103941.455000", "103942.455000", "103943.455000", "103944.455000", "103945.455000", "103946.455000", "103947.455000", "103948.455000", "103949.455000", "103950.455000", "103951.455000", "103952.455000", "103953.455000", "103954.455000", "103955.455000", "103956.455000", "103957.455000", "103958.455000", "103959.455000", "104000.455000", "104001.455000", "104002.455000", "104003.455000", "104004.455000", "104005.455000", "104006.455000", "104007.455000", "104008.455000", "104009.455000", "104010.455000", "104011.455000", "104012.455000", "104013.455000", "104014.455000", "104015.455000", "104016.455000", "104017.455000", "104018.455000", "104019.455000", "104020.455000", "104021.455000", "104022.455000", "104023.455000", "104024.455000", "104025.455000", "104026.455000", "104027.455000", "104028.455000", "104029.455000", "104030.455000", "104031.455000", "104032.455000", "104033.455000", "104034.455000", "104035.455000", "104036.455000", "104037.455000", "104038.455000", "104039.455000", "104040.455000", "104041.455000", "104042.455000", "104043.455000", "104044.455000", "104045.455000", "104046.455000", "104047.455000", "104048.455000", "104049.455000", "104050.455000", "104051.455000", "104052.455000", "104053.455000", "104054.455000", "104055.455000", "104056.455000", "104057.455000", "104058.455000", "104059.455000", "104100.455000", "104101.455000", "104102.455000", "104103.455000", "104104.455000", "104105.455000", "104106.455000", "104107.455000", "104108.455000", "104109.455000", "104110.455000", "104111.455000", "104112.455000", "104113.455000", "104114.455000", "104115.455000", "104116.455000", "104117.455000", "104118.455000", "104119.455000", "104120.455000", "104121.455000", "104122.455000", "104123.455000", "104124.455000", "104125.455000", "104126.455000", "104127.455000", "104128.455000", "104129.455000", "104130.455000", "104131.455000", "104132.455000", "104133.455000", "104134.455000", "104135.455000", "104136.455000", "104137.455000", "104138.455000", "104139.455000", "104140.455000", "104141.455000", "104142.455000", "104143.455000", "104144.455000", "104145.455000", "104146.455000", "104147.455000", "104148.455000", "104149.455000", "104150.455000", "104151.455000", "104152.455000", "104153.455000", "104154.455000", "104155.455000", "104156.455000", "104157.455000", "104158.455000", "104159.455000", "104200.455000", "104201.455000", "104202.455000", "104203.455000", "104204.455000", "104205.455000", "104206.455000", "104207.455000", "104208.455000", "104209.455000", "104210.455000", "104211.455000", "104212.455000", "104213.455000", "104214.455000", "104215.455000", "104216.455000", "104217.455000", "104218.455000", "104219.455000", "104220.455000", "104221.455000", "104222.455000", "104223.455000", "104224.455000", "104225.455000", "104226.455000", "104227.455000", "104228.455000", "104229.455000", "104230.455000", "104231.455000", "104232.455000", "104233.455000", "104234.455000", "104235.455000", "104236.455000", "104237.455000", "104238.455000", "104239.455000", "104240.455000", "104241.455000", "104242.455000", "104243.455000", "104244.455000", "104245.455000", "104246.455000", "104247.455000", "104248.455000", "104249.455000", "104250.455000", "104251.455000", "104252.455000", "104253.455000", "104254.455000", "104255.455000", "104256.455000", "104257.455000", "104258.455000", "104259.455000", "104300.455000", "104301.455000", "104302.455000", "104303.455000", "104304.455000", "104305.455000", "104306.455000", "104307.455000", "104308.455000", "104309.455000", "104310.455000", "104311.455000", "104312.455000", "104313.455000", "104314.455000", "104315.455000", "104316.455000", "104317.455000", "104318.455000", "104319.455000", "104320.455000", "104321.455000", "104322.455000", "104323.455000", "104324.455000"],
      "ContentTime": ["103944.439000", "103944.445000", "103944.448000", "103944.451000", "103944.454000", "103944.457000", "103944.461000", "103944.464000", "103944.467000", "103944.474000", "103944.477000", "103944.481000", "103944.484000", "103944.487000", "103944.490000", "103944.493000", "103944.496000", "103944.499000", "103944.502000", "103944.505000", "103944.508000", "103944.511000", "103944.514000", "103944.518000", "103944.521000", "103944.524000", "103944.527000", "103944.530000", "103944.533000", "103944.536000", "103944.539000", "103944.543000", "103944.546000", "103944.549000", "103944.552000", "103944.555000", "103944.558000", "103944.561000", "103944.564000", "103944.568000", "103944.571000", "104004.401000", "104004.405000", "104004.408000", "104004.411000", "104004.414000", "104004.417000", "104004.420000", "104004.423000", "104004.426000", "104004.429000", "104004.432000", "104004.435000", "104004.438000", "104004.442000", "104004.445000", "104004.448000", "104004.451000", "104004.455000", "104004.458000", "104004.461000", "104004.464000", "104004.473000", "104004.476000", "104004.479000", "104004.482000", "104004.485000", "104004.488000", "104004.491000", "104024.401000", "104024.404000", "104024.407000", "104024.411000", "104024.414000", "104024.417000", "104024.420000", "104024.423000", "104024.426000", "104024.429000", "104024.432000", "104024.435000", "104024.438000", "104024.441000", "104024.445000", "104024.448000", "104024.451000", "104024.454000", "104024.457000", "104024.460000", "104024.463000", "104024.466000", "104024.470000", "104024.473000", "104024.476000", "104024.479000", "104024.482000", "104024.485000", "104024.488000", "104044.401000", "104044.404000", "104044.408000", "104044.411000", "104044.414000", "104044.417000", "104044.420000", "104044.423000", "104044.426000", "104044.429000", "104044.432000", "104044.435000", "104044.438000", "104044.442000", "104044.445000", "104044.448000", "104044.451000", "104044.454000", "104044.457000", "104044.460000", "104044.463000", "104044.466000", "104044.470000", "104044.473000", "104044.476000", "104044.479000", "104044.482000", "104044.485000", "104104.400000", "104104.403000", "104104.407000", "104104.410000", "104104.413000", "104104.416000", "104104.419000", "104104.422000", "104104.425000", "104104.428000", "104104.431000", "104104.434000", "104104.437000", "104104.440000", "104104.444000", "104104.447000", "104104.450000", "104104.453000", "104104.456000", "104104.459000", "104104.462000", "104104.466000", "104104.469000", "104104.472000", "104104.475000", "104104.478000", "104104.481000", "104104.484000", "104124.401000", "104124.404000", "104124.408000", "104124.418000", "104124.421000", "104124.424000", "104124.428000", "104124.431000", "104124.434000", "104124.437000", "104124.440000", "104124.443000", "104124.446000", "104124.449000", "104124.452000", "104124.455000", "104124.459000", "104124.462000", "104124.465000", "104124.468000", "104124.471000", "104124.474000", "104124.477000", "104144.401000", "104144.405000", "104144.408000", "104144.411000", "104144.414000", "104144.417000", "104144.420000", "104144.423000", "104144.426000", "104144.429000", "104144.432000", "104144.435000", "104144.439000", "104144.442000", "104144.445000", "104144.448000", "104144.451000", "104144.454000", "104144.457000", "104144.460000", "104204.401000", "104204.405000", "104204.408000", "104204.411000", "104204.414000", "104204.417000", "104204.420000", "104204.423000", "104204.426000", "104204.434000", "104204.437000", "104204.440000", "104204.444000", "104204.447000", "104204.450000", "104204.453000", "104204.456000", "104204.459000", "104204.462000", "104204.466000", "104224.401000", "104224.405000", "104224.408000", "104224.411000", "104224.414000", "104224.417000", "104224.420000", "104224.423000", "104224.426000", "104224.429000", "104224.432000", "104224.435000", "104224.439000", "104224.442000", "104224.445000", "104224.448000", "104224.451000", "104224.455000", "104224.458000", "104224.461000", "104244.401000", "104244.405000", "104244.408000", "104244.411000", "104244.414000", "104244.417000", "104244.420000", "104244.423000", "104244.426000", "104244.437000", "104244.440000", "104244.443000", "104244.447000", "104244.450000", "104244.453000", "104244.456000", "104244.459000", "104244.462000", "104244.465000", "104244.469000", "104304.401000", "104304.405000", "104304.408000", "104304.411000", "104304.414000", "104304.417000", "104304.420000", "104304.423000", "104304.426000", "104304.429000", "104304.432000", "104304.436000", "104304.439000", "104304.442000", "104304.445000", "104304.448000", "104304.451000", "104304.454000", "104304.458000", "104304.461000", "104324.400000", "104324.404000", "104324.407000", "104324.410000", "104324.413000", "104324.416000", "104324.419000", "104324.422000", "104324.425000", "104324.429000", "104324.432000", "104324.435000", "104324.438000", "104324.442000", "104324.445000", "104324.448000", "104324.451000", "104324.454000", "104324.457000", "104324.460000", "104326.588000", "104326.592000", "104326.595000"],
      "InstanceCreationTime": ["103944.439000", "103944.445000", "103944.448000", "103944.451000", "103944.454000", "103944.457000", "103944.461000", "103944.464000", "103944.467000", "103944.474000", "103944.477000", "103944.481000", "103944.484000", "103944.487000", "103944.490000", "103944.493000", "103944.496000", "103944.499000", "103944.502000", "103944.505000", "103944.508000", "103944.511000", "103944.514000", "103944.518000", "103944.521000", "103944.524000", "103944.527000", "103944.530000", "103944.533000", "103944.536000", "103944.539000", "103944.543000", "103944.546000", "103944.549000", "103944.552000", "103944.555000", "103944.558000", "103944.561000", "103944.564000", "103944.568000", "103944.571000", "104004.401000", "104004.405000", "104004.408000", "104004.411000", "104004.414000", "104004.417000", "104004.420000", "104004.423000", "104004.426000", "104004.429000", "104004.432000", "104004.435000", "104004.438000", "104004.442000", "104004.445000", "104004.448000", "104004.451000", "104004.455000", "104004.458000", "104004.461000", "104004.464000", "104004.473000", "104004.476000", "104004.479000", "104004.482000", "104004.485000", "104004.488000", "104004.491000", "104024.401000", "104024.404000", "104024.407000", "104024.411000", "104024.414000", "104024.417000", "104024.420000", "104024.423000", "104024.426000", "104024.429000", "104024.432000", "104024.435000", "104024.438000", "104024.441000", "104024.445000", "104024.448000", "104024.451000", "104024.454000", "104024.457000", "104024.460000", "104024.463000", "104024.466000", "104024.470000", "104024.473000", "104024.476000", "104024.479000", "104024.482000", "104024.485000", "104024.488000", "104044.401000", "104044.404000", "104044.408000", "104044.411000", "104044.414000", "104044.417000", "104044.420000", "104044.423000", "104044.426000", "104044.429000", "104044.432000", "104044.435000", "104044.438000", "104044.442000", "104044.445000", "104044.448000", "104044.451000", "104044.454000", "104044.457000", "104044.460000", "104044.463000", "104044.466000", "104044.470000", "104044.473000", "104044.476000", "104044.479000", "104044.482000", "104044.485000", "104104.400000", "104104.403000", "104104.407000", "104104.410000", "104104.413000", "104104.416000", "104104.419000", "104104.422000", "104104.425000", "104104.428000", "104104.431000", "104104.434000", "104104.437000", "104104.440000", "104104.444000", "104104.447000", "104104.450000", "104104.453000", "104104.456000", "104104.459000", "104104.462000", "104104.466000", "104104.469000", "104104.472000", "104104.475000", "104104.478000", "104104.481000", "104104.484000", "104124.401000", "104124.404000", "104124.408000", "104124.418000", "104124.421000", "104124.424000", "104124.428000", "104124.431000", "104124.434000", "104124.437000", "104124.440000", "104124.443000", "104124.446000", "104124.449000", "104124.452000", "104124.455000", "104124.459000", "104124.462000", "104124.465000", "104124.468000", "104124.471000", "104124.474000", "104124.477000", "104144.401000", "104144.405000", "104144.408000", "104144.411000", "104144.414000", "104144.417000", "104144.420000", "104144.423000", "104144.426000", "104144.429000", "104144.432000", "104144.435000", "104144.439000", "104144.442000", "104144.445000", "104144.448000", "104144.451000", "104144.454000", "104144.457000", "104144.460000", "104204.401000", "104204.405000", "104204.408000", "104204.411000", "104204.414000", "104204.417000", "104204.420000", "104204.423000", "104204.426000", "104204.434000", "104204.437000", "104204.440000", "104204.444000", "104204.447000", "104204.450000", "104204.453000", "104204.456000", "104204.459000", "104204.462000", "104204.466000", "104224.401000", "104224.405000", "104224.408000", "104224.411000", "104224.414000", "104224.417000", "104224.420000", "104224.423000", "104224.426000", "104224.429000", "104224.432000", "104224.435000", "104224.439000", "104224.442000", "104224.445000", "104224.448000", "104224.451000", "104224.455000", "104224.458000", "104224.461000", "104244.401000", "104244.405000", "104244.408000", "104244.411000", "104244.414000", "104244.417000", "104244.420000", "104244.423000", "104244.426000", "104244.437000", "104244.440000", "104244.443000", "104244.447000", "104244.450000", "104244.453000", "104244.456000", "104244.459000", "104244.462000", "104244.465000", "104244.469000", "104304.401000", "104304.405000", "104304.408000", "104304.411000", "104304.414000", "104304.417000", "104304.420000", "104304.423000", "104304.426000", "104304.429000", "104304.432000", "104304.436000", "104304.439000", "104304.442000", "104304.445000", "104304.448000", "104304.451000", "104304.454000", "104304.458000", "104304.461000", "104324.400000", "104324.404000", "104324.407000", "104324.410000", "104324.413000", "104324.416000", "104324.419000", "104324.422000", "104324.425000", "104324.429000", "104324.432000", "104324.435000", "104324.438000", "104324.442000", "104324.445000", "104324.448000", "104324.451000", "104324.454000", "104324.457000", "104324.460000", "104326.588000", "104326.592000", "104326.595000"],
      "InstanceNumber": [1, 2, 3, 4, 5, 6, 7, 8, 9, 10, 11, 12, 13, 14, 15, 16, 17, 18, 19, 20, 21, 22, 23, 24, 25, 26, 27, 28, 29, 30, 31, 32, 33, 34, 35, 36, 37, 38, 39, 40, 41, 42, 43, 44, 45, 46, 47, 48, 49, 50, 51, 52, 53, 54, 55, 56, 57, 58, 59, 60, 61, 62, 63, 64, 65, 66, 67, 68, 69, 70, 71, 72, 73, 74, 75, 76, 77, 78, 79, 80, 81, 82, 83, 84, 85, 86, 87, 88, 89, 90, 91, 92, 93, 94, 95, 96, 97, 98, 99, 100, 101, 102, 103, 104, 105, 106, 107, 108, 109, 110, 111, 112, 113, 114, 115, 116, 117, 118, 119, 120, 121, 122, 123, 124, 125, 126, 127, 128, 129, 130, 131, 132, 133, 134, 135, 136, 137, 138, 139, 140, 141, 142, 143, 144, 145, 146, 147, 148, 149, 150, 151, 152, 153, 154, 155, 156, 157, 158, 159, 160, 161, 162, 163, 164, 165, 166, 167, 168, 169, 170, 171, 172, 173, 174, 175, 176, 177, 178, 179, 180, 181, 182, 183, 184, 185, 186, 187, 188, 189, 190, 191, 192, 193, 194, 195, 196, 197, 198, 199, 200, 201, 202, 203, 204, 205, 206, 207, 208, 209, 210, 211, 212, 213, 214, 215, 216, 217, 218, 219, 220, 221, 222, 223, 224, 225, 226, 227, 228, 229, 230, 231, 232, 233, 234, 235, 236, 237, 238, 239, 240, 241, 242, 243, 244, 245, 246, 247, 248, 249, 250, 251, 252, 253, 254, 255, 256, 257, 258, 259, 260, 261, 262, 263, 264, 265, 266, 267, 268, 269, 270, 271, 272, 273, 274, 275, 276, 277, 278, 279, 280, 281, 282, 283, 284, 285, 286, 287, 288, 289, 290, 291, 292, 293, 294, 295, 296, 297, 298, 299, 300],
      "LargestImagePixelValue": [41044, 40034, 39020, 39068, 37874, 38639, 38847, 39502, 37760, 38358, 38985, 39253, 38899, 38611, 37452, 38967, 39070, 37707, 38280, 38454, 38915, 37816, 37964, 37922, 38665, 37815, 38330, 38834, 39177, 37443, 38877, 38312, 39034, 38622, 37665, 38224, 39074, 38956, 37892, 37866, 37702, 38515, 38413, 37081, 37465, 38350, 38352, 38265, 37437, 37759, 37986, 37975, 37355, 37628, 37800, 37549, 37422, 37647, 37833, 38023, 37488, 37453, 37996, 38211, 38011, 37544, 37658, 38558, 38493, 38476, 38054, 39267, 38247, 37459, 37609, 38468, 38533, 37933, 38104, 37903, 37658, 37791, 38301, 37741, 38052, 37770, 38676, 39002, 37855, 37500, 38047, 38161, 38742, 38151, 37177, 38320, 37791, 37434, 37291, 37370, 38105, 38128, 38092, 37928, 37298, 37724, 37544, 38003, 37232, 38558, 39199, 38550, 37577, 38236, 38955, 38772, 38339, 38548, 38041, 38854, 38384, 37661, 37664, 38499, 38481, 37555, 37147, 37415, 38035, 37313, 38306, 38448, 38865, 37938, 37307, 37535, 37921, 37623, 37552, 38304, 38183, 36920, 37555, 37615, 37547, 37186, 37898, 37935, 37421, 37192, 37508, 37528, 37350, 37625, 39251, 38132, 37192, 37168, 37757, 37992, 38774, 36878, 37752, 38254, 38389, 36700, 38484, 38947, 38499, 37075, 38736, 38710, 36825, 38282, 38846, 38825, 37121, 38065, 38809, 39202, 36768, 38149, 38665, 38814, 36827, 38530, 38262, 38893, 39513, 39270, 38794, 38408, 39277, 38210, 38671, 37439, 38882, 37635, 37216, 37354, 39185, 38879, 37154, 37284, 37328, 38085, 38507, 37288, 38016, 38034, 39280, 37148, 38067, 38830, 38541, 37462, 38297, 38728, 38048, 38365, 38558, 38373, 37504, 37988, 37846, 38603, 37256, 38947, 38032, 37940, 38085, 37710, 37649, 37145, 37382, 37638, 37270, 37832, 37286, 37543, 37312, 37925, 37381, 37921, 38710, 37784, 37518, 37384, 37702, 38124, 37415, 37551, 38243, 37656, 37851, 38065, 37646, 37669, 37725, 38940, 37684, 37285, 37551, 37633, 37388, 37850, 37963, 37804, 37450, 38074, 38110, 37914, 38241, 37486, 37711, 38150, 38143, 38298, 38213, 37900, 37806, 38519, 38300, 38538, 37670, 37946, 37992, 38313, 37508, 38278, 37877, 37224, 37651, 37861, 37458, 38334, 37396, 37981, 37653, 37314],
      "WindowCenter": [10254.0, 10232.0, 10225.0, 10233.0, 10227.0, 10244.0, 10233.0, 10237.0, 10209.0, 10211.0, 10204.0, 10226.0, 10230.0, 10241.0, 10222.0, 10225.0, 10223.0, 10192.0, 10178.0, 10150.0, 10152.0, 10138.0, 10142.0, 10140.0, 10152.0, 10150.0, 10162.0, 10170.0, 10179.0, 10164.0, 10179.0, 10172.0, 10178.0, 10173.0, 10163.0, 10166.0, 10184.0, 10201.0, 10196.0, 10203.0, 10203.0, 10215.0, 10202.0, 10183.0, 10180.0, 10189.0, 10205.0, 10223.0, 10224.0, 10229.0, 10228.0, 10213.0, 10196.0, 10187.0, 10187.0, 10181.0, 10178.0, 10183.0, 10186.0, 10194.0, 10189.0, 10186.0, 10187.0, 10200.0, 10202.0, 10191.0, 10189.0, 10207.0, 10199.0, 10191.0, 10184.0, 10200.0, 10183.0, 10170.0, 10169.0, 10184.0, 10195.0, 10192.0, 10193.0, 10196.0, 10196.0, 10192.0, 10192.0, 10187.0, 10187.0, 10178.0, 10189.0, 10195.0, 10178.0, 10164.0, 10173.0, 10179.0, 10196.0, 10209.0, 10216.0, 10224.0, 10213.0, 10200.0, 10190.0, 10182.0, 10184.0, 10176.0, 10175.0, 10183.0, 10179.0, 10191.0, 10188.0, 10193.0, 10175.0, 10182.0, 10186.0, 10179.0, 10161.0, 10168.0, 10184.0, 10194.0, 10199.0, 10208.0, 10202.0, 10200.0, 10194.0, 10181.0, 10173.0, 10181.0, 10191.0, 10190.0, 10185.0, 10181.0, 10192.0, 10182.0, 10192.0, 10183.0, 10181.0, 10168.0, 10155.0, 10161.0, 10182.0, 10194.0, 10199.0, 10215.0, 10210.0, 10187.0, 10183.0, 10186.0, 10173.0, 10159.0, 10168.0, 10176.0, 10181.0, 10177.0, 10192.0, 10193.0, 10194.0, 10196.0, 10212.0, 10204.0, 10187.0, 10179.0, 10187.0, 10186.0, 10191.0, 10176.0, 10181.0, 10191.0, 10200.0, 10180.0, 10201.0, 10213.0, 10209.0, 10188.0, 10207.0, 10211.0, 10198.0, 10211.0, 10215.0, 10217.0, 10186.0, 10179.0, 10181.0, 10189.0, 10159.0, 10172.0, 10184.0, 10184.0, 10157.0, 10172.0, 10171.0, 10176.0, 10175.0, 10187.0, 10184.0, 10178.0, 10195.0, 10182.0, 10198.0, 10174.0, 10188.0, 10180.0, 10177.0, 10175.0, 10188.0, 10183.0, 10169.0, 10166.0, 10157.0, 10166.0, 10173.0, 10165.0, 10170.0, 10177.0, 10196.0, 10178.0, 10189.0, 10209.0, 10218.0, 10211.0, 10221.0, 10227.0, 10216.0, 10221.0, 10214.0, 10208.0, 10195.0, 10203.0, 10189.0, 10191.0, 10177.0, 10205.0, 10197.0, 10197.0, 10206.0, 10199.0, 10190.0, 10177.0, 10183.0, 10181.0, 10167.0, 10172.0, 10175.0, 10175.0, 10168.0, 10178.0, 10182.0, 10196.0, 10213.0, 10200.0, 10185.0, 10182.0, 10173.0, 10178.0, 10167.0, 10175.0, 10180.0, 10175.0, 10182.0, 10194.0, 10193.0, 10193.0, 10201.0, 10215.0, 10199.0, 10189.0, 10185.0, 10190.0, 10186.0, 10191.0, 10196.0, 10185.0, 10184.0, 10182.0, 10172.0, 10172.0, 10178.0, 10169.0, 10181.0, 10189.0, 10180.0, 10178.0, 10174.0, 10177.0, 10183.0, 10187.0, 10193.0, 10203.0, 10201.0, 10217.0, 10225.0, 10224.0, 10206.0, 10207.0, 10190.0, 10163.0, 10159.0, 10159.0, 10160.0, 10168.0, 10158.0, 10166.0, 10173.0, 10170.0],
