{
  "AcquisitionMatrixPE": 104,
  "AcquisitionNumber": 1,
  "AcquisitionTime": "12:00:31.930000",
  "BandwidthPerPixelPhaseEncode": 16.297,
  "BaseResolution": 104,
  "BodyPartExamined": "BRAIN",
  "ConsistencyInfo": "N4_VE11C_LATEST_20160120",
  "ConversionSoftware": "dcm2niix",
  "ConversionSoftwareVersion": "v1.0.20210317",
  "DerivedVendorReportedEchoSpacing": 0.000590009,
  "DeviceSerialNumber": "166018",
  "DwellTime": 2.1e-06,
  "EchoTime": 0.0376,
  "EchoTrainLength": 104,
  "EffectiveEchoSpacing": 0.000590009,
  "FlipAngle": 68,
  "ImageComments": "Unaliased MB6/PE3/LB",
  "ImageOrientationPatientDICOM": [0.99898, -0.0439155, 0.0105375, 0.0444898, 0.997055, -0.0624653],
  "ImageType": [
    "ORIGINAL",
    "PRIMARY",
    "M",
    "MB",
    "ND",
    "MOSAIC"
],
  "ImagingFrequency": 123.197,
  "InPlanePhaseEncodingDirectionDICOM": "COL",
  "InstitutionAddress": "Washington Place 6,NYC,NYC,US,10003",
  "InstitutionName": "NYU - CBI",
  "InstitutionalDepartmentName": "Department",
  "MRAcquisitionType": "2D",
  "MagneticFieldStrength": 3,
  "Manufacturer": "Siemens",
  "ManufacturersModelName": "Prisma",
  "Modality": "MR",
  "MultibandAccelerationFactor": 6,
  "PartialFourier": 1,
  "PatientPosition": "HFS",
  "PercentPhaseFOV": 100,
  "PercentSampling": 100,
  "PhaseEncodingDirection": "j",
  "PhaseEncodingSteps": 104,
  "PhaseResolution": 1,
  "PixelBandwidth": 2290,
  "ProcedureStepDescription": "Investigators^Winawer",
  "ProtocolName": "cmrr_mbepi_s6_2mm_66sl_PA_task-wedgering2",
  "PulseSequenceDetails": "%CustomerSeq%\\cmrr_mbep2d_bold",
  "ReceiveCoilActiveElements": "HC1-7",
  "ReceiveCoilName": "HeadNeck_64",
  "ReconMatrixPE": 104,
  "RepetitionTime": 1,
  "SAR": 0.0745475,
  "ScanOptions": "FS",
  "ScanningSequence": "EP",
  "SequenceName": "epfid2d1_104",
  "SequenceVariant": "SK\\SS",
  "SeriesDescription": "cmrr_mbepi_s6_2mm_66sl_PA_task-wedgering2",
  "SeriesNumber": 14,
  "ShimSetting": [283, -12639, -8484, 280, -31, -62, -36, 86],
  "SliceThickness": 2,
  "SliceTiming": [0, 0.535, 0.09, 0.625, 0.18, 0.7125, 0.2675, 0.8025, 0.3575, 0.8925, 0.4475, 0, 0.535, 0.09, 0.625, 0.18, 0.7125, 0.2675, 0.8025, 0.3575, 0.8925, 0.4475, 0, 0.535, 0.09, 0.625, 0.18, 0.7125, 0.2675, 0.8025, 0.3575, 0.8925, 0.4475, 0, 0.535, 0.09, 0.625, 0.18, 0.7125, 0.2675, 0.8025, 0.3575, 0.8925, 0.4475, 0, 0.535, 0.09, 0.625, 0.18, 0.7125, 0.2675, 0.8025, 0.3575, 0.8925, 0.4475, 0, 0.535, 0.09, 0.625, 0.18, 0.7125, 0.2675, 0.8025, 0.3575, 0.8925, 0.4475],
  "SoftwareVersions": "syngo MR E11",
  "SpacingBetweenSlices": 2,
  "StationName": "AWP166018",
  "TaskName": "wedgering2",
  "TotalReadoutTime": 0.060771,
  "TxRefAmp": 208.96,
  "VendorReportedEchoSpacing": 0.00059,
  "WipMemBlock": "74037ea1-f6c1-4ec6-804b-f834f443a53d||Sequence: R016 ve11c/master r/8780670; Nov 27 2017 15:05:12 by eja",
  "dcmmeta_affine": [
    [-1.9979593753814697, 0.08897966146469116, 0.015526468865573406, 106.88592529296875],
    [0.08783107995986938, 1.994110107421875, -0.12574076652526855, -86.77977752685547],
    [0.0210749302059412, 0.12493062019348145, 1.9959830045700073, -46.41769790649414],
    [0.0, 0.0, 0.0, 1.0]
],
  "dcmmeta_reorient_transform": [
    [0.0, -1.0, 0.0, 103.0],
    [1.0, 0.0, 0.0, 0.0],
    [0.0, 0.0, 1.0, 0.0],
    [0.0, 0.0, 0.0, 1.0]
],
  "dcmmeta_shape": [104, 104, 66, 300],
  "dcmmeta_slice_dim": 2,
  "dcmmeta_version": 0.6,
  "global": {
    "const": {
      "AccessionNumber": "Litbm0vs",
      "AcquisitionMatrix": [104, 0, 0, 104],
      "AngioFlag": "N",
      "BitsAllocated": 16,
      "BitsStored": 16,
      "BodyPartExamined": "BRAIN",
      "Columns": 936,
      "EchoNumbers": 1,
      "EchoTime": 37.6,
      "EchoTrainLength": 104,
      "FlipAngle": 68.0,
      "HighBit": 15,
      "ImageOrientationPatient": [0.99897967303393, -0.0439155404765, 0.01053746505056, 0.04448983088785, 0.99705503351853, -0.062465311037],
      "ImagePositionPatient": [-984.21745921845, -911.62561459015, 9.654123572279],
      "ImageType": [
        "ORIGINAL",
        "PRIMARY",
        "M",
        "MB",
        "ND",
        "MOSAIC"
],
      "ImagedNucleus": "1H",
      "ImagingFrequency": 123.196791,
      "InPlanePhaseEncodingDirection": "COL",
      "MRAcquisitionType": "2D",
      "MagneticFieldStrength": 3.0,
      "Manufacturer": "SIEMENS",
      "ManufacturerModelName": "Prisma",
      "Modality": "MR",
      "NumberOfAverages": 1.0,
      "NumberOfPhaseEncodingSteps": 104,
      "PercentPhaseFieldOfView": 100.0,
      "PercentSampling": 100.0,
      "PerformedProcedureStepStartTime": "113000.110000",
      "PhotometricInterpretation": "MONOCHROME2",
      "PixelBandwidth": 2290.0,
      "PixelRepresentation": 0,
      "PixelSpacing": [2.0, 2.0],
      "ProtocolName": "cmrr_mbepi_s6_2mm_66sl_PA_task-wedgering2",
      "RepetitionTime": 1000.0,
      "Rows": 936,
      "SAR": 0.07454751776401,
      "SamplesPerPixel": 1,
      "ScanOptions": "FS",
      "ScanningSequence": "EP",
      "SequenceName": "epfid2d1_104",
      "SequenceVariant": [
        "SK",
        "SS"
],
      "SeriesDescription": "cmrr_mbepi_s6_2mm_66sl_PA_task-wedgering2",
      "SeriesNumber": 14,
      "SeriesTime": "120145.505000",
      "SliceLocation": -40.038809875023,
      "SliceThickness": 2.0,
      "SmallestImagePixelValue": 0,
      "SoftwareVersions": "syngo MR E11",
      "SpacingBetweenSlices": 1.9999999349825,
      "SpecificCharacterSet": "ISO_IR 100",
      "StudyID": "1",
      "StudyTime": "112959.991000",
      "TransmitCoilName": "Body",
      "VariableFlipAngleFlag": "N",
      "WindowCenterWidthExplanation": "Algo1",
      "dBdt": 0.0},
    "slices": {}
  },
  "time": {
    "samples": {
      "AcquisitionNumber": [1, 2, 3, 4, 5, 6, 7, 8, 9, 10, 11, 12, 13, 14, 15, 16, 17, 18, 19, 20, 21, 22, 23, 24, 25, 26, 27, 28, 29, 30, 31, 32, 33, 34, 35, 36, 37, 38, 39, 40, 41, 42, 43, 44, 45, 46, 47, 48, 49, 50, 51, 52, 53, 54, 55, 56, 57, 58, 59, 60, 61, 62, 63, 64, 65, 66, 67, 68, 69, 70, 71, 72, 73, 74, 75, 76, 77, 78, 79, 80, 81, 82, 83, 84, 85, 86, 87, 88, 89, 90, 91, 92, 93, 94, 95, 96, 97, 98, 99, 100, 101, 102, 103, 104, 105, 106, 107, 108, 109, 110, 111, 112, 113, 114, 115, 116, 117, 118, 119, 120, 121, 122, 123, 124, 125, 126, 127, 128, 129, 130, 131, 132, 133, 134, 135, 136, 137, 138, 139, 140, 141, 142, 143, 144, 145, 146, 147, 148, 149, 150, 151, 152, 153, 154, 155, 156, 157, 158, 159, 160, 161, 162, 163, 164, 165, 166, 167, 168, 169, 170, 171, 172, 173, 174, 175, 176, 177, 178, 179, 180, 181, 182, 183, 184, 185, 186, 187, 188, 189, 190, 191, 192, 193, 194, 195, 196, 197, 198, 199, 200, 201, 202, 203, 204, 205, 206, 207, 208, 209, 210, 211, 212, 213, 214, 215, 216, 217, 218, 219, 220, 221, 222, 223, 224, 225, 226, 227, 228, 229, 230, 231, 232, 233, 234, 235, 236, 237, 238, 239, 240, 241, 242, 243, 244, 245, 246, 247, 248, 249, 250, 251, 252, 253, 254, 255, 256, 257, 258, 259, 260, 261, 262, 263, 264, 265, 266, 267, 268, 269, 270, 271, 272, 273, 274, 275, 276, 277, 278, 279, 280, 281, 282, 283, 284, 285, 286, 287, 288, 289, 290, 291, 292, 293, 294, 295, 296, 297, 298, 299, 300],
      "AcquisitionTime": ["120031.930000", "120032.930000", "120033.930000", "120034.930000", "120035.930000", "120036.930000", "120037.930000", "120038.930000", "120039.930000", "120040.930000", "120041.930000", "120042.930000", "120043.930000", "120044.930000", "120045.930000", "120046.930000", "120047.930000", "120048.930000", "120049.930000", "120050.930000", "120051.930000", "120052.930000", "120053.930000", "120054.930000", "120055.930000", "120056.930000", "120057.930000", "120058.930000", "120059.930000", "120100.930000", "120101.930000", "120102.930000", "120103.930000", "120104.930000", "120105.930000", "120106.930000", "120107.930000", "120108.930000", "120109.930000", "120110.930000", "120111.930000", "120112.930000", "120113.930000", "120114.930000", "120115.930000", "120116.930000", "120117.930000", "120118.930000", "120119.930000", "120120.930000", "120121.930000", "120122.930000", "120123.930000", "120124.930000", "120125.930000", "120126.930000", "120127.930000", "120128.930000", "120129.930000", "120130.930000", "120131.930000", "120132.930000", "120133.930000", "120134.930000", "120135.930000", "120136.930000", "120137.930000", "120138.930000", "120139.930000", "120140.930000", "120141.930000", "120142.930000", "120143.930000", "120144.930000", "120145.930000", "120146.930000", "120147.930000", "120148.930000", "120149.930000", "120150.930000", "120151.930000", "120152.930000", "120153.930000", "120154.930000", "120155.930000", "120156.930000", "120157.930000", "120158.930000", "120159.930000", "120200.930000", "120201.930000", "120202.930000", "120203.930000", "120204.930000", "120205.930000", "120206.930000", "120207.930000", "120208.930000", "120209.930000", "120210.930000", "120211.930000", "120212.930000", "120213.930000", "120214.930000", "120215.930000", "120216.930000", "120217.930000", "120218.930000", "120219.930000", "120220.930000", "120221.930000", "120222.930000", "120223.930000", "120224.930000", "120225.930000", "120226.930000", "120227.930000", "120228.930000", "120229.930000", "120230.930000", "120231.930000", "120232.930000", "120233.930000", "120234.930000", "120235.930000", "120236.930000", "120237.930000", "120238.930000", "120239.930000", "120240.930000", "120241.930000", "120242.930000", "120243.930000", "120244.930000", "120245.930000", "120246.930000", "120247.930000", "120248.930000", "120249.930000", "120250.930000", "120251.930000", "120252.930000", "120253.930000", "120254.930000", "120255.930000", "120256.930000", "120257.930000", "120258.930000", "120259.930000", "120300.930000", "120301.930000", "120302.930000", "120303.930000", "120304.930000", "120305.930000", "120306.930000", "120307.930000", "120308.930000", "120309.930000", "120310.930000", "120311.930000", "120312.930000", "120313.930000", "120314.930000", "120315.930000", "120316.930000", "120317.930000", "120318.930000", "120319.930000", "120320.930000", "120321.930000", "120322.930000", "120323.930000", "120324.930000", "120325.930000", "120326.930000", "120327.930000", "120328.930000", "120329.930000", "120330.930000", "120331.930000", "120332.930000", "120333.930000", "120334.930000", "120335.930000", "120336.930000", "120337.930000", "120338.930000", "120339.930000", "120340.930000", "120341.930000", "120342.930000", "120343.930000", "120344.930000", "120345.930000", "120346.930000", "120347.930000", "120348.930000", "120349.930000", "120350.930000", "120351.930000", "120352.930000", "120353.930000", "120354.930000", "120355.930000", "120356.930000", "120357.930000", "120358.930000", "120359.930000", "120400.930000", "120401.930000", "120402.930000", "120403.930000", "120404.930000", "120405.930000", "120406.930000", "120407.930000", "120408.930000", "120409.930000", "120410.930000", "120411.930000", "120412.930000", "120413.930000", "120414.930000", "120415.930000", "120416.930000", "120417.930000", "120418.930000", "120419.930000", "120420.930000", "120421.930000", "120422.930000", "120423.930000", "120424.930000", "120425.930000", "120426.930000", "120427.930000", "120428.930000", "120429.930000", "120430.930000", "120431.930000", "120432.930000", "120433.930000", "120434.930000", "120435.930000", "120436.930000", "120437.930000", "120438.930000", "120439.930000", "120440.930000", "120441.930000", "120442.930000", "120443.930000", "120444.930000", "120445.930000", "120446.930000", "120447.930000", "120448.930000", "120449.930000", "120450.930000", "120451.930000", "120452.930000", "120453.930000", "120454.930000", "120455.930000", "120456.930000", "120457.930000", "120458.930000", "120459.930000", "120500.930000", "120501.930000", "120502.930000", "120503.930000", "120504.930000", "120505.930000", "120506.930000", "120507.930000", "120508.930000", "120509.930000", "120510.930000", "120511.930000", "120512.930000", "120513.930000", "120514.930000", "120515.930000", "120516.930000", "120517.930000", "120518.930000", "120519.930000", "120520.930000", "120521.930000", "120522.930000", "120523.930000", "120524.930000", "120525.930000", "120526.930000", "120527.930000", "120528.930000", "120529.930000", "120530.930000"],
      "ContentTime": ["120145.508000", "120145.512000", "120145.515000", "120145.518000", "120145.521000", "120145.524000", "120145.527000", "120145.530000", "120145.533000", "120145.544000", "120145.547000", "120145.550000", "120145.553000", "120145.556000", "120145.560000", "120145.563000", "120145.566000", "120145.569000", "120145.572000", "120145.575000", "120145.578000", "120145.581000", "120145.584000", "120145.615000", "120145.626000", "120145.629000", "120145.632000", "120205.045000", "120205.049000", "120205.052000", "120205.055000", "120205.062000", "120205.065000", "120205.068000", "120205.071000", "120205.075000", "120205.078000", "120205.081000", "120205.084000", "120205.087000", "120205.090000", "120205.093000", "120205.096000", "120205.099000", "120205.102000", "120205.105000", "120205.108000", "120205.112000", "120205.115000", "120205.118000", "120205.121000", "120205.124000", "120205.127000", "120205.130000", "120205.133000", "120225.045000", "120225.048000", "120225.051000", "120225.055000", "120225.058000", "120225.061000", "120225.064000", "120225.067000", "120225.070000", "120225.073000", "120225.076000", "120225.079000", "120225.082000", "120225.085000", "120225.088000", "120225.092000", "120225.095000", "120225.098000", "120225.101000", "120225.104000", "120225.107000", "120225.110000", "120225.113000", "120225.116000", "120225.119000", "120225.122000", "120225.125000", "120225.128000", "120245.045000", "120245.831000", "120245.879000", "120245.905000", "120245.922000", "120245.930000", "120245.936000", "120245.945000", "120245.956000", "120245.960000", "120245.974000", "120245.980000", "120245.986000", "120245.990000", "120245.993000", "120245.997000", "120246.001000", "120246.004000", "120246.013000", "120246.017000", "120246.020000", "120246.023000", "120246.033000", "120246.036000", "120246.040000", "120246.043000", "120246.046000", "120246.050000", "120305.044000", "120305.047000", "120305.051000", "120305.054000", "120305.057000", "120305.060000", "120305.063000", "120305.066000", "120305.069000", "120305.072000", "120305.075000", "120305.078000", "120305.081000", "120305.085000", "120305.088000", "120305.091000", "120305.094000", "120305.097000", "120305.100000", "120305.103000", "120305.106000", "120305.109000", "120305.112000", "120305.115000", "120305.118000", "120305.122000", "120305.125000", "120305.128000", "120305.131000", "120325.044000", "120325.047000", "120325.050000", "120325.053000", "120325.057000", "120325.060000", "120325.063000", "120325.066000", "120325.069000", "120325.072000", "120325.075000", "120325.078000", "120325.082000", "120325.085000", "120325.088000", "120325.091000", "120325.094000", "120325.097000", "120325.100000", "120325.103000", "120325.106000", "120325.109000", "120325.113000", "120325.116000", "120325.119000", "120325.122000", "120325.125000", "120325.128000", "120345.045000", "120345.048000", "120345.051000", "120345.054000", "120345.058000", "120345.061000", "120345.064000", "120345.068000", "120345.071000", "120345.074000", "120345.077000", "120345.080000", "120345.083000", "120345.086000", "120345.089000", "120345.092000", "120345.096000", "120345.099000", "120345.102000", "120345.105000", "120345.108000", "120345.111000", "120345.114000", "120345.117000", "120405.045000", "120405.048000", "120405.051000", "120405.055000", "120405.058000", "120405.061000", "120405.064000", "120405.067000", "120405.070000", "120405.073000", "120405.076000", "120405.079000", "120405.083000", "120405.099000", "120405.102000", "120405.105000", "120405.108000", "120405.111000", "120405.114000", "120405.118000", "120425.045000", "120425.048000", "120425.051000", "120425.054000", "120425.058000", "120425.061000", "120425.064000", "120425.067000", "120425.070000", "120425.073000", "120425.076000", "120425.079000", "120425.083000", "120425.086000", "120425.089000", "120425.092000", "120425.095000", "120425.098000", "120425.101000", "120425.104000", "120445.045000", "120445.048000", "120445.052000", "120445.055000", "120445.058000", "120445.061000", "120445.064000", "120445.067000", "120445.070000", "120445.073000", "120445.076000", "120445.079000", "120445.083000", "120445.086000", "120445.089000", "120445.092000", "120445.095000", "120445.098000", "120445.101000", "120445.104000", "120505.045000", "120505.048000", "120505.051000", "120505.055000", "120505.074000", "120505.077000", "120505.081000", "120505.084000", "120505.087000", "120505.090000", "120505.093000", "120505.096000", "120505.099000", "120505.102000", "120505.105000", "120505.109000", "120505.112000", "120505.115000", "120505.118000", "120505.121000", "120525.044000", "120525.047000", "120525.050000", "120525.054000", "120525.057000", "120525.060000", "120525.063000", "120525.066000", "120525.069000", "120525.072000", "120525.075000", "120525.078000", "120525.082000", "120525.085000", "120525.088000", "120525.091000", "120525.094000", "120525.097000", "120525.100000", "120525.103000", "120532.653000", "120532.661000", "120532.664000", "120532.668000", "120532.671000", "120532.674000", "120532.677000", "120532.680000"],
      "InstanceCreationTime": ["120145.508000", "120145.512000", "120145.515000", "120145.518000", "120145.521000", "120145.524000", "120145.527000", "120145.530000", "120145.533000", "120145.544000", "120145.547000", "120145.550000", "120145.553000", "120145.556000", "120145.560000", "120145.563000", "120145.566000", "120145.569000", "120145.572000", "120145.575000", "120145.578000", "120145.581000", "120145.584000", "120145.615000", "120145.626000", "120145.629000", "120145.632000", "120205.045000", "120205.049000", "120205.052000", "120205.055000", "120205.062000", "120205.065000", "120205.068000", "120205.071000", "120205.075000", "120205.078000", "120205.081000", "120205.084000", "120205.087000", "120205.090000", "120205.093000", "120205.096000", "120205.099000", "120205.102000", "120205.105000", "120205.108000", "120205.112000", "120205.115000", "120205.118000", "120205.121000", "120205.124000", "120205.127000", "120205.130000", "120205.133000", "120225.045000", "120225.048000", "120225.051000", "120225.055000", "120225.058000", "120225.061000", "120225.064000", "120225.067000", "120225.070000", "120225.073000", "120225.076000", "120225.079000", "120225.082000", "120225.085000", "120225.088000", "120225.092000", "120225.095000", "120225.098000", "120225.101000", "120225.104000", "120225.107000", "120225.110000", "120225.113000", "120225.116000", "120225.119000", "120225.122000", "120225.125000", "120225.128000", "120245.045000", "120245.831000", "120245.879000", "120245.905000", "120245.922000", "120245.930000", "120245.936000", "120245.945000", "120245.956000", "120245.960000", "120245.974000", "120245.980000", "120245.986000", "120245.990000", "120245.993000", "120245.997000", "120246.001000", "120246.004000", "120246.013000", "120246.017000", "120246.020000", "120246.023000", "120246.033000", "120246.036000", "120246.040000", "120246.043000", "120246.046000", "120246.050000", "120305.044000", "120305.047000", "120305.051000", "120305.054000", "120305.057000", "120305.060000", "120305.063000", "120305.066000", "120305.069000", "120305.072000", "120305.075000", "120305.078000", "120305.081000", "120305.085000", "120305.088000", "120305.091000", "120305.094000", "120305.097000", "120305.100000", "120305.103000", "120305.106000", "120305.109000", "120305.112000", "120305.115000", "120305.118000", "120305.122000", "120305.125000", "120305.128000", "120305.131000", "120325.044000", "120325.047000", "120325.050000", "120325.053000", "120325.057000", "120325.060000", "120325.063000", "120325.066000", "120325.069000", "120325.072000", "120325.075000", "120325.078000", "120325.082000", "120325.085000", "120325.088000", "120325.091000", "120325.094000", "120325.097000", "120325.100000", "120325.103000", "120325.106000", "120325.109000", "120325.113000", "120325.116000", "120325.119000", "120325.122000", "120325.125000", "120325.128000", "120345.045000", "120345.048000", "120345.051000", "120345.054000", "120345.058000", "120345.061000", "120345.064000", "120345.068000", "120345.071000", "120345.074000", "120345.077000", "120345.080000", "120345.083000", "120345.086000", "120345.089000", "120345.092000", "120345.096000", "120345.099000", "120345.102000", "120345.105000", "120345.108000", "120345.111000", "120345.114000", "120345.117000", "120405.045000", "120405.048000", "120405.051000", "120405.055000", "120405.058000", "120405.061000", "120405.064000", "120405.067000", "120405.070000", "120405.073000", "120405.076000", "120405.079000", "120405.083000", "120405.099000", "120405.102000", "120405.105000", "120405.108000", "120405.111000", "120405.114000", "120405.118000", "120425.045000", "120425.048000", "120425.051000", "120425.054000", "120425.058000", "120425.061000", "120425.064000", "120425.067000", "120425.070000", "120425.073000", "120425.076000", "120425.079000", "120425.083000", "120425.086000", "120425.089000", "120425.092000", "120425.095000", "120425.098000", "120425.101000", "120425.104000", "120445.045000", "120445.048000", "120445.052000", "120445.055000", "120445.058000", "120445.061000", "120445.064000", "120445.067000", "120445.070000", "120445.073000", "120445.076000", "120445.079000", "120445.083000", "120445.086000", "120445.089000", "120445.092000", "120445.095000", "120445.098000", "120445.101000", "120445.104000", "120505.045000", "120505.048000", "120505.051000", "120505.055000", "120505.074000", "120505.077000", "120505.081000", "120505.084000", "120505.087000", "120505.090000", "120505.093000", "120505.096000", "120505.099000", "120505.102000", "120505.105000", "120505.109000", "120505.112000", "120505.115000", "120505.118000", "120505.121000", "120525.044000", "120525.047000", "120525.050000", "120525.054000", "120525.057000", "120525.060000", "120525.063000", "120525.066000", "120525.069000", "120525.072000", "120525.075000", "120525.078000", "120525.082000", "120525.085000", "120525.088000", "120525.091000", "120525.094000", "120525.097000", "120525.100000", "120525.103000", "120532.653000", "120532.661000", "120532.664000", "120532.668000", "120532.671000", "120532.674000", "120532.677000", "120532.680000"],
      "InstanceNumber": [1, 2, 3, 4, 5, 6, 7, 8, 9, 10, 11, 12, 13, 14, 15, 16, 17, 18, 19, 20, 21, 22, 23, 24, 25, 26, 27, 28, 29, 30, 31, 32, 33, 34, 35, 36, 37, 38, 39, 40, 41, 42, 43, 44, 45, 46, 47, 48, 49, 50, 51, 52, 53, 54, 55, 56, 57, 58, 59, 60, 61, 62, 63, 64, 65, 66, 67, 68, 69, 70, 71, 72, 73, 74, 75, 76, 77, 78, 79, 80, 81, 82, 83, 84, 85, 86, 87, 88, 89, 90, 91, 92, 93, 94, 95, 96, 97, 98, 99, 100, 101, 102, 103, 104, 105, 106, 107, 108, 109, 110, 111, 112, 113, 114, 115, 116, 117, 118, 119, 120, 121, 122, 123, 124, 125, 126, 127, 128, 129, 130, 131, 132, 133, 134, 135, 136, 137, 138, 139, 140, 141, 142, 143, 144, 145, 146, 147, 148, 149, 150, 151, 152, 153, 154, 155, 156, 157, 158, 159, 160, 161, 162, 163, 164, 165, 166, 167, 168, 169, 170, 171, 172, 173, 174, 175, 176, 177, 178, 179, 180, 181, 182, 183, 184, 185, 186, 187, 188, 189, 190, 191, 192, 193, 194, 195, 196, 197, 198, 199, 200, 201, 202, 203, 204, 205, 206, 207, 208, 209, 210, 211, 212, 213, 214, 215, 216, 217, 218, 219, 220, 221, 222, 223, 224, 225, 226, 227, 228, 229, 230, 231, 232, 233, 234, 235, 236, 237, 238, 239, 240, 241, 242, 243, 244, 245, 246, 247, 248, 249, 250, 251, 252, 253, 254, 255, 256, 257, 258, 259, 260, 261, 262, 263, 264, 265, 266, 267, 268, 269, 270, 271, 272, 273, 274, 275, 276, 277, 278, 279, 280, 281, 282, 283, 284, 285, 286, 287, 288, 289, 290, 291, 292, 293, 294, 295, 296, 297, 298, 299, 300],
      "LargestImagePixelValue": [42144, 40382, 40538, 39079, 38560, 38795, 38762, 39136, 38625, 38946, 40280, 39249, 39654, 39728, 38736, 39643, 39994, 39045, 39844, 39994, 39735, 40550, 39808, 40050, 40781, 39816, 40372, 40984, 40053, 40188, 40416, 40268, 40522, 40130, 40009, 40261, 39895, 40143, 40370, 39955, 40709, 40193, 40101, 40322, 39956, 40023, 40291, 39945, 39973, 40548, 39959, 39974, 40338, 39771, 39633, 40396, 39578, 40571, 40304, 40225, 39946, 40109, 39351, 40179, 40371, 40270, 40901, 40241, 40450, 40701, 40403, 40255, 40248, 39473, 39448, 40088, 40167, 39886, 39657, 39602, 40074, 39950, 39555, 40320, 39632, 39423, 39848, 39732, 39298, 39950, 39708, 38916, 40062, 39320, 39342, 39915, 39453, 39411, 40059, 39637, 39708, 40293, 39195, 40225, 39766, 39623, 40051, 40556, 39495, 39323, 39654, 38876, 38481, 38186, 38086, 37864, 37788, 37528, 38507, 38340, 37739, 38929, 38625, 38207, 38645, 38258, 39816, 39570, 39765, 39474, 38963, 38898, 38345, 38786, 38123, 38583, 38557, 38068, 38251, 38668, 38700, 38446, 38787, 39018, 38198, 38458, 38527, 38385, 38806, 38816, 38184, 38467, 38575, 37991, 38377, 38732, 38060, 38098, 37835, 38367, 38358, 38665, 38444, 38752, 38337, 37992, 38010, 37897, 37394, 37630, 37623, 37008, 37647, 37866, 37464, 38101, 38220, 37932, 38016, 38545, 37981, 38272, 38118, 37708, 38042, 38826, 38620, 39354, 38823, 38076, 38560, 38911, 38597, 38721, 39387, 39727, 39357, 39279, 39749, 39655, 39795, 39627, 39005, 38747, 38369, 38166, 38370, 38104, 38436, 38306, 38266, 38586, 38438, 38037, 38223, 38001, 37568, 38078, 37875, 37417, 38028, 38398, 38555, 37877, 38843, 39158, 38838, 41121, 40753, 38631, 36671, 37849, 37783, 37496, 37235, 37288, 37160, 36945, 36926, 37139, 37041, 37378, 37140, 37410, 36928, 37462, 37117, 37120, 37239, 37893, 37620, 37282, 38285, 38726, 37954, 39368, 38588, 36816, 36450, 37362, 37270, 36837, 36979, 36668, 37008, 37137, 36755, 36856, 37228, 37425, 37653, 37653, 37451, 37671, 38054, 37767, 37575, 37878, 37338, 37470, 37750, 37352, 37567, 37520, 37813, 37169, 37317, 37453, 37216, 37188, 37064, 37160, 36990, 37307, 37337, 37176, 37062, 37129, 37197, 37465],
      "WindowCenter": [10326.0, 10263.0, 10252.0, 10227.0, 10217.0, 10215.0, 10199.0, 10201.0, 10202.0, 10207.0, 10214.0, 10211.0, 10218.0, 10220.0, 10217.0, 10229.0, 10234.0, 10226.0, 10232.0, 10226.0, 10226.0, 10229.0, 10212.0, 10224.0, 10224.0, 10228.0, 10247.0, 10254.0, 10248.0, 10241.0, 10236.0, 10232.0, 10226.0, 10215.0, 10210.0, 10205.0, 10199.0, 10198.0, 10188.0, 10204.0, 10216.0, 10211.0, 10214.0, 10203.0, 10188.0, 10197.0, 10199.0, 10196.0, 10188.0, 10190.0, 10194.0, 10192.0, 10192.0, 10188.0, 10186.0, 10184.0, 10179.0, 10188.0, 10182.0, 10191.0, 10193.0, 10200.0, 10205.0, 10223.0, 10210.0, 10212.0, 10210.0, 10201.0, 10195.0, 10192.0, 10185.0, 10186.0, 10187.0, 10173.0, 10173.0, 10192.0, 10198.0, 10203.0, 10199.0, 10199.0, 10204.0, 10194.0, 10183.0, 10191.0, 10175.0, 10180.0, 10177.0, 10163.0, 10163.0, 10173.0, 10167.0, 10172.0, 10187.0, 10181.0, 10176.0, 10178.0, 10164.0, 10163.0, 10161.0, 10162.0, 10163.0, 10170.0, 10162.0, 10186.0, 10165.0, 10168.0, 10174.0, 10187.0, 10178.0, 10191.0, 10196.0, 10189.0, 10182.0, 10168.0, 10162.0, 10159.0, 10153.0, 10160.0, 10182.0, 10189.0, 10189.0, 10200.0, 10185.0, 10175.0, 10176.0, 10163.0, 10183.0, 10177.0, 10177.0, 10172.0, 10175.0, 10175.0, 10167.0, 10166.0, 10161.0, 10174.0, 10176.0, 10182.0, 10186.0, 10193.0, 10197.0, 10194.0, 10199.0, 10196.0, 10181.0, 10182.0, 10176.0, 10184.0, 10184.0, 10184.0, 10172.0, 10169.0, 10174.0, 10171.0, 10177.0, 10188.0, 10185.0, 10180.0, 10171.0, 10176.0, 10174.0, 10180.0, 10177.0, 10174.0, 10168.0, 10162.0, 10162.0, 10156.0, 10151.0, 10155.0, 10154.0, 10151.0, 10162.0, 10171.0, 10174.0, 10187.0, 10187.0, 10189.0, 10180.0, 10171.0, 10175.0, 10162.0, 10162.0, 10164.0, 10170.0, 10182.0, 10182.0, 10184.0, 10179.0, 10178.0, 10181.0, 10186.0, 10191.0, 10190.0, 10194.0, 10214.0, 10210.0, 10198.0, 10201.0, 10195.0, 10192.0, 10178.0, 10173.0, 10161.0, 10161.0, 10160.0, 10162.0, 10163.0, 10168.0, 10164.0, 10169.0, 10167.0, 10161.0, 10161.0, 10164.0, 10156.0, 10151.0, 10156.0, 10157.0, 10150.0, 10156.0, 10161.0, 10167.0, 10149.0, 10166.0, 10172.0, 10173.0, 10205.0, 10196.0, 10175.0, 10147.0, 10150.0, 10147.0, 10141.0, 10135.0, 10140.0, 10136.0, 10138.0, 10132.0, 10137.0, 10139.0, 10137.0, 10139.0, 10135.0, 10124.0, 10129.0, 10131.0, 10128.0, 10128.0, 10148.0, 10158.0, 10162.0, 10186.0, 10186.0, 10172.0, 10186.0, 10162.0, 10141.0, 10142.0, 10159.0, 10176.0, 10175.0, 10180.0, 10174.0, 10167.0, 10157.0, 10153.0, 10148.0, 10141.0, 10157.0, 10152.0, 10158.0, 10152.0, 10152.0, 10157.0, 10150.0, 10143.0, 10148.0, 10138.0, 10138.0, 10144.0, 10137.0, 10120.0, 10114.0, 10117.0, 10115.0, 10129.0, 10127.0, 10125.0, 10136.0, 10134.0, 10141.0, 10148.0, 10157.0, 10149.0, 10151.0, 10142.0, 10135.0, 10140.0, 10132.0],
