{
  "AcquisitionMatrixPE": 104,
  "AcquisitionNumber": 1,
  "AcquisitionTime": "11:47:52.137500",
  "BandwidthPerPixelPhaseEncode": 16.297,
  "BaseResolution": 104,
  "BodyPartExamined": "BRAIN",
  "ConsistencyInfo": "N4_VE11C_LATEST_20160120",
  "ConversionSoftware": "dcm2niix",
  "ConversionSoftwareVersion": "v1.0.20210317",
  "DerivedVendorReportedEchoSpacing": 0.000590009,
  "DeviceSerialNumber": "166018",
  "DwellTime": 2.1e-06,
  "EchoTime": 0.0376,
  "EchoTrainLength": 104,
  "EffectiveEchoSpacing": 0.000590009,
  "FlipAngle": 68,
  "ImageComments": "Unaliased MB6/PE3/LB",
  "ImageOrientationPatientDICOM": [0.99898, -0.0439155, 0.0105375, 0.0444898, 0.997055, -0.0624653],
  "ImageType": [
    "ORIGINAL",
    "PRIMARY",
    "M",
    "MB",
    "ND",
    "MOSAIC"
],
  "ImagingFrequency": 123.197,
  "InPlanePhaseEncodingDirectionDICOM": "COL",
  "InstitutionAddress": "Washington Place 6,NYC,NYC,US,10003",
  "InstitutionName": "NYU - CBI",
  "InstitutionalDepartmentName": "Department",
  "MRAcquisitionType": "2D",
  "MagneticFieldStrength": 3,
  "Manufacturer": "Siemens",
  "ManufacturersModelName": "Prisma",
  "Modality": "MR",
  "MultibandAccelerationFactor": 6,
  "PartialFourier": 1,
  "PatientPosition": "HFS",
  "PercentPhaseFOV": 100,
  "PercentSampling": 100,
  "PhaseEncodingDirection": "j",
  "PhaseEncodingSteps": 104,
  "PhaseResolution": 1,
  "PixelBandwidth": 2290,
  "ProcedureStepDescription": "Investigators^Winawer",
  "ProtocolName": "cmrr_mbepi_s6_2mm_66sl_PA_task-wedgering1",
  "PulseSequenceDetails": "%CustomerSeq%\\cmrr_mbep2d_bold",
  "ReceiveCoilActiveElements": "HC1-7",
  "ReceiveCoilName": "HeadNeck_64",
  "ReconMatrixPE": 104,
  "RepetitionTime": 1,
  "SAR": 0.0745475,
  "ScanOptions": "FS",
  "ScanningSequence": "EP",
  "SequenceName": "epfid2d1_104",
  "SequenceVariant": "SK\\SS",
  "SeriesDescription": "cmrr_mbepi_s6_2mm_66sl_PA_task-wedgering1",
  "SeriesNumber": 10,
  "ShimSetting": [283, -12639, -8484, 280, -31, -62, -36, 86],
  "SliceThickness": 2,
  "SliceTiming": [0, 0.535, 0.09, 0.625, 0.1775, 0.7125, 0.2675, 0.8025, 0.3575, 0.89, 0.445, 0, 0.535, 0.09, 0.625, 0.1775, 0.7125, 0.2675, 0.8025, 0.3575, 0.89, 0.445, 0, 0.535, 0.09, 0.625, 0.1775, 0.7125, 0.2675, 0.8025, 0.3575, 0.89, 0.445, 0, 0.535, 0.09, 0.625, 0.1775, 0.7125, 0.2675, 0.8025, 0.3575, 0.89, 0.445, 0, 0.535, 0.09, 0.625, 0.1775, 0.7125, 0.2675, 0.8025, 0.3575, 0.89, 0.445, 0, 0.535, 0.09, 0.625, 0.1775, 0.7125, 0.2675, 0.8025, 0.3575, 0.89, 0.445],
  "SoftwareVersions": "syngo MR E11",
  "SpacingBetweenSlices": 2,
  "StationName": "AWP166018",
  "TaskName": "wedgering1",
  "TotalReadoutTime": 0.060771,
  "TxRefAmp": 208.96,
  "VendorReportedEchoSpacing": 0.00059,
  "WipMemBlock": "2e2c6a23-41b1-4e30-abb3-ffa855d4acab||Sequence: R016 ve11c/master r/8780670; Nov 27 2017 15:05:12 by eja",
  "dcmmeta_affine": [
    [-1.9979593753814697, 0.08897966146469116, 0.015526468865573406, 106.88592529296875],
    [0.08783107995986938, 1.994110107421875, -0.12574076652526855, -86.77977752685547],
    [0.0210749302059412, 0.12493062019348145, 1.9959830045700073, -46.41769790649414],
    [0.0, 0.0, 0.0, 1.0]
],
  "dcmmeta_reorient_transform": [
    [0.0, -1.0, 0.0, 103.0],
    [1.0, 0.0, 0.0, 0.0],
    [0.0, 0.0, 1.0, 0.0],
    [0.0, 0.0, 0.0, 1.0]
],
  "dcmmeta_shape": [104, 104, 66, 300],
  "dcmmeta_slice_dim": 2,
  "dcmmeta_version": 0.6,
  "global": {
    "const": {
      "AccessionNumber": "Litbm0vs",
      "AcquisitionMatrix": [104, 0, 0, 104],
      "AngioFlag": "N",
      "BitsAllocated": 16,
      "BitsStored": 16,
      "BodyPartExamined": "BRAIN",
      "Columns": 936,
      "EchoNumbers": 1,
      "EchoTime": 37.6,
      "EchoTrainLength": 104,
      "FlipAngle": 68.0,
      "HighBit": 15,
      "ImageOrientationPatient": [0.99897967303393, -0.0439155404765, 0.01053746505056, 0.04448983088785, 0.99705503351853, -0.062465311037],
      "ImagePositionPatient": [-984.21745921845, -911.62561459015, 9.654123572279],
      "ImageType": [
        "ORIGINAL",
        "PRIMARY",
        "M",
        "MB",
        "ND",
        "MOSAIC"
],
      "ImagedNucleus": "1H",
      "ImagingFrequency": 123.196784,
      "InPlanePhaseEncodingDirection": "COL",
      "MRAcquisitionType": "2D",
      "MagneticFieldStrength": 3.0,
      "Manufacturer": "SIEMENS",
      "ManufacturerModelName": "Prisma",
      "Modality": "MR",
      "NumberOfAverages": 1.0,
      "NumberOfPhaseEncodingSteps": 104,
      "PercentPhaseFieldOfView": 100.0,
      "PercentSampling": 100.0,
      "PerformedProcedureStepStartTime": "113000.110000",
      "PhotometricInterpretation": "MONOCHROME2",
      "PixelBandwidth": 2290.0,
      "PixelRepresentation": 0,
      "PixelSpacing": [2.0, 2.0],
      "ProtocolName": "cmrr_mbepi_s6_2mm_66sl_PA_task-wedgering1",
      "RepetitionTime": 1000.0,
      "Rows": 936,
      "SAR": 0.07454751776401,
      "SamplesPerPixel": 1,
      "ScanOptions": "FS",
      "ScanningSequence": "EP",
      "SequenceName": "epfid2d1_104",
      "SequenceVariant": [
        "SK",
        "SS"
],
      "SeriesDescription": "cmrr_mbepi_s6_2mm_66sl_PA_task-wedgering1",
      "SeriesNumber": 10,
      "SeriesTime": "114905.146000",
      "SliceLocation": -40.038809875023,
      "SliceThickness": 2.0,
      "SmallestImagePixelValue": 0,
      "SoftwareVersions": "syngo MR E11",
      "SpacingBetweenSlices": 1.9999999349825,
      "SpecificCharacterSet": "ISO_IR 100",
      "StudyID": "1",
      "StudyTime": "112959.991000",
      "TransmitCoilName": "Body",
      "VariableFlipAngleFlag": "N",
      "WindowCenterWidthExplanation": "Algo1",
      "dBdt": 0.0},
    "slices": {}
  },
  "time": {
    "samples": {
      "AcquisitionNumber": [1, 2, 3, 4, 5, 6, 7, 8, 9, 10, 11, 12, 13, 14, 15, 16, 17, 18, 19, 20, 21, 22, 23, 24, 25, 26, 27, 28, 29, 30, 31, 32, 33, 34, 35, 36, 37, 38, 39, 40, 41, 42, 43, 44, 45, 46, 47, 48, 49, 50, 51, 52, 53, 54, 55, 56, 57, 58, 59, 60, 61, 62, 63, 64, 65, 66, 67, 68, 69, 70, 71, 72, 73, 74, 75, 76, 77, 78, 79, 80, 81, 82, 83, 84, 85, 86, 87, 88, 89, 90, 91, 92, 93, 94, 95, 96, 97, 98, 99, 100, 101, 102, 103, 104, 105, 106, 107, 108, 109, 110, 111, 112, 113, 114, 115, 116, 117, 118, 119, 120, 121, 122, 123, 124, 125, 126, 127, 128, 129, 130, 131, 132, 133, 134, 135, 136, 137, 138, 139, 140, 141, 142, 143, 144, 145, 146, 147, 148, 149, 150, 151, 152, 153, 154, 155, 156, 157, 158, 159, 160, 161, 162, 163, 164, 165, 166, 167, 168, 169, 170, 171, 172, 173, 174, 175, 176, 177, 178, 179, 180, 181, 182, 183, 184, 185, 186, 187, 188, 189, 190, 191, 192, 193, 194, 195, 196, 197, 198, 199, 200, 201, 202, 203, 204, 205, 206, 207, 208, 209, 210, 211, 212, 213, 214, 215, 216, 217, 218, 219, 220, 221, 222, 223, 224, 225, 226, 227, 228, 229, 230, 231, 232, 233, 234, 235, 236, 237, 238, 239, 240, 241, 242, 243, 244, 245, 246, 247, 248, 249, 250, 251, 252, 253, 254, 255, 256, 257, 258, 259, 260, 261, 262, 263, 264, 265, 266, 267, 268, 269, 270, 271, 272, 273, 274, 275, 276, 277, 278, 279, 280, 281, 282, 283, 284, 285, 286, 287, 288, 289, 290, 291, 292, 293, 294, 295, 296, 297, 298, 299, 300],
      "AcquisitionTime": ["114752.137500", "114753.137500", "114754.137500", "114755.137500", "114756.137500", "114757.137500", "114758.137500", "114759.137500", "114800.137500", "114801.137500", "114802.137500", "114803.137500", "114804.137500", "114805.137500", "114806.137500", "114807.137500", "114808.137500", "114809.137500", "114810.137500", "114811.137500", "114812.137500", "114813.137500", "114814.137500", "114815.137500", "114816.137500", "114817.137500", "114818.137500", "114819.137500", "114820.137500", "114821.137500", "114822.137500", "114823.137500", "114824.137500", "114825.137500", "114826.137500", "114827.137500", "114828.137500", "114829.137500", "114830.137500", "114831.137500", "114832.137500", "114833.137500", "114834.137500", "114835.137500", "114836.137500", "114837.137500", "114838.137500", "114839.137500", "114840.137500", "114841.137500", "114842.137500", "114843.137500", "114844.137500", "114845.137500", "114846.137500", "114847.137500", "114848.137500", "114849.137500", "114850.137500", "114851.137500", "114852.137500", "114853.137500", "114854.137500", "114855.137500", "114856.137500", "114857.137500", "114858.137500", "114859.137500", "114900.137500", "114901.137500", "114902.137500", "114903.137500", "114904.137500", "114905.137500", "114906.137500", "114907.137500", "114908.137500", "114909.137500", "114910.137500", "114911.137500", "114912.137500", "114913.137500", "114914.137500", "114915.137500", "114916.137500", "114917.137500", "114918.137500", "114919.137500", "114920.137500", "114921.137500", "114922.137500", "114923.137500", "114924.137500", "114925.137500", "114926.137500", "114927.137500", "114928.137500", "114929.137500", "114930.137500", "114931.137500", "114932.137500", "114933.137500", "114934.137500", "114935.137500", "114936.137500", "114937.137500", "114938.137500", "114939.137500", "114940.137500", "114941.137500", "114942.137500", "114943.137500", "114944.137500", "114945.137500", "114946.137500", "114947.137500", "114948.137500", "114949.137500", "114950.137500", "114951.137500", "114952.137500", "114953.137500", "114954.137500", "114955.137500", "114956.137500", "114957.137500", "114958.137500", "114959.137500", "115000.137500", "115001.137500", "115002.137500", "115003.137500", "115004.137500", "115005.137500", "115006.137500", "115007.137500", "115008.137500", "115009.137500", "115010.137500", "115011.137500", "115012.137500", "115013.137500", "115014.137500", "115015.137500", "115016.137500", "115017.137500", "115018.137500", "115019.137500", "115020.137500", "115021.137500", "115022.137500", "115023.137500", "115024.137500", "115025.137500", "115026.137500", "115027.137500", "115028.137500", "115029.137500", "115030.137500", "115031.137500", "115032.137500", "115033.137500", "115034.137500", "115035.137500", "115036.137500", "115037.137500", "115038.137500", "115039.137500", "115040.137500", "115041.137500", "115042.137500", "115043.137500", "115044.137500", "115045.137500", "115046.137500", "115047.137500", "115048.137500", "115049.137500", "115050.137500", "115051.137500", "115052.137500", "115053.137500", "115054.137500", "115055.137500", "115056.137500", "115057.137500", "115058.137500", "115059.137500", "115100.137500", "115101.137500", "115102.137500", "115103.137500", "115104.137500", "115105.137500", "115106.137500", "115107.137500", "115108.137500", "115109.137500", "115110.137500", "115111.137500", "115112.137500", "115113.137500", "115114.137500", "115115.137500", "115116.137500", "115117.137500", "115118.137500", "115119.137500", "115120.137500", "115121.137500", "115122.137500", "115123.137500", "115124.137500", "115125.137500", "115126.137500", "115127.137500", "115128.137500", "115129.137500", "115130.137500", "115131.137500", "115132.137500", "115133.137500", "115134.137500", "115135.137500", "115136.137500", "115137.137500", "115138.137500", "115139.137500", "115140.137500", "115141.137500", "115142.137500", "115143.137500", "115144.137500", "115145.137500", "115146.137500", "115147.137500", "115148.137500", "115149.137500", "115150.137500", "115151.137500", "115152.137500", "115153.137500", "115154.137500", "115155.137500", "115156.137500", "115157.137500", "115158.137500", "115159.137500", "115200.137500", "115201.137500", "115202.137500", "115203.137500", "115204.137500", "115205.137500", "115206.137500", "115207.137500", "115208.137500", "115209.137500", "115210.137500", "115211.137500", "115212.137500", "115213.137500", "115214.137500", "115215.137500", "115216.137500", "115217.137500", "115218.137500", "115219.137500", "115220.137500", "115221.137500", "115222.137500", "115223.137500", "115224.137500", "115225.137500", "115226.137500", "115227.137500", "115228.137500", "115229.137500", "115230.137500", "115231.137500", "115232.137500", "115233.137500", "115234.137500", "115235.137500", "115236.137500", "115237.137500", "115238.137500", "115239.137500", "115240.137500", "115241.137500", "115242.137500", "115243.137500", "115244.137500", "115245.137500", "115246.137500", "115247.137500", "115248.137500", "115249.137500", "115250.137500", "115251.137500"],
      "ContentTime": ["114905.149000", "114905.153000", "114905.156000", "114905.159000", "114905.162000", "114905.165000", "114905.169000", "114905.172000", "114905.175000", "114905.178000", "114905.181000", "114905.184000", "114905.187000", "114905.190000", "114905.193000", "114905.196000", "114905.199000", "114905.203000", "114905.206000", "114905.209000", "114905.212000", "114905.216000", "114905.219000", "114905.223000", "114905.226000", "114905.229000", "114925.116000", "114925.119000", "114925.122000", "114925.126000", "114925.129000", "114925.132000", "114925.135000", "114925.138000", "114925.141000", "114925.144000", "114925.147000", "114925.150000", "114925.153000", "114925.156000", "114925.160000", "114925.163000", "114925.166000", "114925.169000", "114925.172000", "114925.175000", "114925.178000", "114925.181000", "114925.184000", "114925.187000", "114925.190000", "114925.193000", "114925.196000", "114925.200000", "114945.116000", "114945.119000", "114945.122000", "114945.126000", "114945.129000", "114945.132000", "114945.135000", "114945.138000", "114945.141000", "114945.144000", "114945.147000", "114945.150000", "114945.153000", "114945.156000", "114945.159000", "114945.163000", "114945.166000", "114945.169000", "114945.172000", "114945.175000", "114945.178000", "114945.181000", "114945.184000", "114945.187000", "114945.190000", "114945.193000", "114945.196000", "114945.199000", "115005.117000", "115005.120000", "115005.123000", "115005.127000", "115005.130000", "115005.133000", "115005.136000", "115005.139000", "115005.142000", "115005.145000", "115005.148000", "115005.151000", "115005.154000", "115005.157000", "115005.161000", "115005.164000", "115005.167000", "115005.170000", "115005.173000", "115005.176000", "115005.179000", "115005.182000", "115005.185000", "115005.188000", "115005.191000", "115005.194000", "115005.218000", "115005.223000", "115025.117000", "115025.120000", "115025.123000", "115025.126000", "115025.129000", "115025.133000", "115025.136000", "115025.139000", "115025.142000", "115025.145000", "115025.148000", "115025.151000", "115025.154000", "115025.157000", "115025.160000", "115025.163000", "115025.166000", "115025.170000", "115025.173000", "115025.176000", "115025.179000", "115025.182000", "115025.185000", "115025.188000", "115025.191000", "115025.194000", "115025.198000", "115025.201000", "115025.204000", "115045.117000", "115045.120000", "115045.124000", "115045.127000", "115045.130000", "115045.133000", "115045.136000", "115045.139000", "115045.142000", "115045.145000", "115045.149000", "115045.152000", "115045.155000", "115045.158000", "115045.161000", "115045.164000", "115045.167000", "115045.170000", "115045.173000", "115045.185000", "115045.188000", "115045.191000", "115045.194000", "115045.197000", "115045.201000", "115045.204000", "115045.207000", "115045.210000", "115105.117000", "115105.120000", "115105.124000", "115105.127000", "115105.130000", "115105.133000", "115105.136000", "115105.139000", "115105.142000", "115105.145000", "115105.148000", "115105.151000", "115105.154000", "115105.157000", "115105.161000", "115105.164000", "115105.167000", "115105.170000", "115105.173000", "115105.176000", "115105.179000", "115105.182000", "115105.185000", "115105.188000", "115105.191000", "115125.116000", "115125.120000", "115125.123000", "115125.126000", "115125.129000", "115125.132000", "115125.135000", "115125.138000", "115125.141000", "115125.144000", "115125.147000", "115125.150000", "115125.154000", "115125.157000", "115125.160000", "115125.163000", "115125.166000", "115125.169000", "115125.172000", "115125.175000", "115145.116000", "115145.119000", "115145.123000", "115145.126000", "115145.129000", "115145.132000", "115145.135000", "115145.138000", "115145.141000", "115145.145000", "115145.148000", "115145.151000", "115145.154000", "115145.157000", "115145.160000", "115145.163000", "115145.166000", "115145.170000", "115145.173000", "115145.176000", "115205.116000", "115205.119000", "115205.123000", "115205.126000", "115205.129000", "115205.132000", "115205.135000", "115205.138000", "115205.141000", "115205.144000", "115205.147000", "115205.150000", "115205.154000", "115205.157000", "115205.160000", "115205.163000", "115205.166000", "115205.169000", "115205.172000", "115205.175000", "115225.117000", "115225.121000", "115225.124000", "115225.127000", "115225.130000", "115225.133000", "115225.136000", "115225.139000", "115225.142000", "115225.145000", "115225.148000", "115225.151000", "115225.155000", "115225.158000", "115225.161000", "115225.164000", "115225.167000", "115225.170000", "115225.173000", "115225.176000", "115245.117000", "115245.120000", "115245.123000", "115245.127000", "115245.130000", "115245.133000", "115245.136000", "115245.139000", "115245.142000", "115245.145000", "115245.148000", "115245.152000", "115245.155000", "115245.158000", "115245.161000", "115245.164000", "115245.168000", "115245.171000", "115245.187000", "115245.190000", "115252.401000", "115252.404000", "115252.407000", "115252.410000", "115252.414000", "115252.417000", "115252.420000", "115252.423000"],
      "InstanceCreationTime": ["114905.149000", "114905.153000", "114905.156000", "114905.159000", "114905.162000", "114905.165000", "114905.169000", "114905.172000", "114905.175000", "114905.178000", "114905.181000", "114905.184000", "114905.187000", "114905.190000", "114905.193000", "114905.196000", "114905.199000", "114905.203000", "114905.206000", "114905.209000", "114905.212000", "114905.216000", "114905.219000", "114905.223000", "114905.226000", "114905.229000", "114925.116000", "114925.119000", "114925.122000", "114925.126000", "114925.129000", "114925.132000", "114925.135000", "114925.138000", "114925.141000", "114925.144000", "114925.147000", "114925.150000", "114925.153000", "114925.156000", "114925.160000", "114925.163000", "114925.166000", "114925.169000", "114925.172000", "114925.175000", "114925.178000", "114925.181000", "114925.184000", "114925.187000", "114925.190000", "114925.193000", "114925.196000", "114925.200000", "114945.116000", "114945.119000", "114945.122000", "114945.126000", "114945.129000", "114945.132000", "114945.135000", "114945.138000", "114945.141000", "114945.144000", "114945.147000", "114945.150000", "114945.153000", "114945.156000", "114945.159000", "114945.163000", "114945.166000", "114945.169000", "114945.172000", "114945.175000", "114945.178000", "114945.181000", "114945.184000", "114945.187000", "114945.190000", "114945.193000", "114945.196000", "114945.199000", "115005.117000", "115005.120000", "115005.123000", "115005.127000", "115005.130000", "115005.133000", "115005.136000", "115005.139000", "115005.142000", "115005.145000", "115005.148000", "115005.151000", "115005.154000", "115005.157000", "115005.161000", "115005.164000", "115005.167000", "115005.170000", "115005.173000", "115005.176000", "115005.179000", "115005.182000", "115005.185000", "115005.188000", "115005.191000", "115005.194000", "115005.218000", "115005.223000", "115025.117000", "115025.120000", "115025.123000", "115025.126000", "115025.129000", "115025.133000", "115025.136000", "115025.139000", "115025.142000", "115025.145000", "115025.148000", "115025.151000", "115025.154000", "115025.157000", "115025.160000", "115025.163000", "115025.166000", "115025.170000", "115025.173000", "115025.176000", "115025.179000", "115025.182000", "115025.185000", "115025.188000", "115025.191000", "115025.194000", "115025.198000", "115025.201000", "115025.204000", "115045.117000", "115045.120000", "115045.124000", "115045.127000", "115045.130000", "115045.133000", "115045.136000", "115045.139000", "115045.142000", "115045.145000", "115045.149000", "115045.152000", "115045.155000", "115045.158000", "115045.161000", "115045.164000", "115045.167000", "115045.170000", "115045.173000", "115045.185000", "115045.188000", "115045.191000", "115045.194000", "115045.197000", "115045.201000", "115045.204000", "115045.207000", "115045.210000", "115105.117000", "115105.120000", "115105.124000", "115105.127000", "115105.130000", "115105.133000", "115105.136000", "115105.139000", "115105.142000", "115105.145000", "115105.148000", "115105.151000", "115105.154000", "115105.157000", "115105.161000", "115105.164000", "115105.167000", "115105.170000", "115105.173000", "115105.176000", "115105.179000", "115105.182000", "115105.185000", "115105.188000", "115105.191000", "115125.116000", "115125.120000", "115125.123000", "115125.126000", "115125.129000", "115125.132000", "115125.135000", "115125.138000", "115125.141000", "115125.144000", "115125.147000", "115125.150000", "115125.154000", "115125.157000", "115125.160000", "115125.163000", "115125.166000", "115125.169000", "115125.172000", "115125.175000", "115145.116000", "115145.119000", "115145.123000", "115145.126000", "115145.129000", "115145.132000", "115145.135000", "115145.138000", "115145.141000", "115145.145000", "115145.148000", "115145.151000", "115145.154000", "115145.157000", "115145.160000", "115145.163000", "115145.166000", "115145.170000", "115145.173000", "115145.176000", "115205.116000", "115205.119000", "115205.123000", "115205.126000", "115205.129000", "115205.132000", "115205.135000", "115205.138000", "115205.141000", "115205.144000", "115205.147000", "115205.150000", "115205.154000", "115205.157000", "115205.160000", "115205.163000", "115205.166000", "115205.169000", "115205.172000", "115205.175000", "115225.117000", "115225.121000", "115225.124000", "115225.127000", "115225.130000", "115225.133000", "115225.136000", "115225.139000", "115225.142000", "115225.145000", "115225.148000", "115225.151000", "115225.155000", "115225.158000", "115225.161000", "115225.164000", "115225.167000", "115225.170000", "115225.173000", "115225.176000", "115245.117000", "115245.120000", "115245.123000", "115245.127000", "115245.130000", "115245.133000", "115245.136000", "115245.139000", "115245.142000", "115245.145000", "115245.148000", "115245.152000", "115245.155000", "115245.158000", "115245.161000", "115245.164000", "115245.168000", "115245.171000", "115245.187000", "115245.190000", "115252.401000", "115252.404000", "115252.407000", "115252.410000", "115252.414000", "115252.417000", "115252.420000", "115252.423000"],
      "InstanceNumber": [1, 2, 3, 4, 5, 6, 7, 8, 9, 10, 11, 12, 13, 14, 15, 16, 17, 18, 19, 20, 21, 22, 23, 24, 25, 26, 27, 28, 29, 30, 31, 32, 33, 34, 35, 36, 37, 38, 39, 40, 41, 42, 43, 44, 45, 46, 47, 48, 49, 50, 51, 52, 53, 54, 55, 56, 57, 58, 59, 60, 61, 62, 63, 64, 65, 66, 67, 68, 69, 70, 71, 72, 73, 74, 75, 76, 77, 78, 79, 80, 81, 82, 83, 84, 85, 86, 87, 88, 89, 90, 91, 92, 93, 94, 95, 96, 97, 98, 99, 100, 101, 102, 103, 104, 105, 106, 107, 108, 109, 110, 111, 112, 113, 114, 115, 116, 117, 118, 119, 120, 121, 122, 123, 124, 125, 126, 127, 128, 129, 130, 131, 132, 133, 134, 135, 136, 137, 138, 139, 140, 141, 142, 143, 144, 145, 146, 147, 148, 149, 150, 151, 152, 153, 154, 155, 156, 157, 158, 159, 160, 161, 162, 163, 164, 165, 166, 167, 168, 169, 170, 171, 172, 173, 174, 175, 176, 177, 178, 179, 180, 181, 182, 183, 184, 185, 186, 187, 188, 189, 190, 191, 192, 193, 194, 195, 196, 197, 198, 199, 200, 201, 202, 203, 204, 205, 206, 207, 208, 209, 210, 211, 212, 213, 214, 215, 216, 217, 218, 219, 220, 221, 222, 223, 224, 225, 226, 227, 228, 229, 230, 231, 232, 233, 234, 235, 236, 237, 238, 239, 240, 241, 242, 243, 244, 245, 246, 247, 248, 249, 250, 251, 252, 253, 254, 255, 256, 257, 258, 259, 260, 261, 262, 263, 264, 265, 266, 267, 268, 269, 270, 271, 272, 273, 274, 275, 276, 277, 278, 279, 280, 281, 282, 283, 284, 285, 286, 287, 288, 289, 290, 291, 292, 293, 294, 295, 296, 297, 298, 299, 300],
      "LargestImagePixelValue": [41927, 40806, 39973, 39682, 39860, 39231, 39744, 39611, 39569, 39896, 39516, 39508, 39973, 39485, 39233, 39758, 39321, 39673, 39705, 39684, 40159, 40566, 40280, 40818, 40593, 40175, 40528, 40788, 40662, 41215, 40986, 41464, 41517, 41112, 41068, 41311, 41361, 41385, 41343, 41612, 41162, 41433, 41725, 41100, 41025, 41505, 41073, 41118, 41675, 41443, 41566, 41890, 41631, 41316, 41603, 41844, 41196, 41823, 41553, 41471, 41966, 41773, 41618, 42016, 41787, 41230, 41910, 41741, 41934, 42254, 42135, 41751, 41972, 41821, 42204, 42176, 41980, 41826, 41923, 42492, 41648, 41788, 41959, 41911, 42448, 41649, 41640, 42500, 42083, 41624, 42269, 41826, 42562, 41895, 42229, 42489, 42160, 41839, 41780, 41477, 41789, 41776, 41486, 41242, 41524, 41730, 40839, 40983, 40607, 39794, 39789, 38995, 38902, 38659, 38042, 38288, 38337, 38033, 38990, 38845, 38574, 38861, 38314, 39148, 39133, 39415, 39477, 39070, 39013, 39959, 39018, 39496, 39691, 39016, 39079, 39629, 38363, 38454, 38431, 38266, 39682, 39228, 38543, 39658, 39507, 40986, 41360, 40351, 40241, 40805, 40517, 40147, 40744, 40554, 40746, 41090, 40022, 39277, 40289, 40509, 40274, 40622, 40293, 40447, 40996, 40261, 39781, 40594, 40104, 40301, 40723, 40416, 40599, 40756, 40416, 41177, 40365, 40920, 41427, 40971, 40872, 41712, 41398, 40822, 41055, 41253, 41136, 41567, 41748, 41616, 41666, 41983, 41850, 41862, 42294, 42112, 42203, 42006, 41919, 42068, 42127, 41782, 42614, 42361, 42254, 42558, 42440, 42524, 42533, 41663, 42164, 42637, 41989, 41693, 42042, 41899, 42166, 41573, 41531, 42044, 41882, 41096, 41448, 41856, 41687, 41638, 41830, 41741, 41812, 42007, 41577, 41990, 41240, 41351, 41795, 41541, 41863, 42089, 41800, 41841, 41975, 41649, 41562, 41607, 42024, 41781, 42298, 42622, 42072, 42644, 42696, 42187, 42585, 42441, 42355, 42303, 42414, 42050, 42310, 42477, 42437, 42519, 42720, 42011, 42131, 42155, 42103, 41555, 42061, 41824, 42190, 41518, 41656, 41909, 42116, 41804, 41814, 42063, 41700, 42017, 42350, 42318, 42366, 42386, 41903, 42031, 41906, 42172, 42253, 42211, 42259, 42481, 41844, 42636, 42436, 42447, 42685, 42432, 42471, 42454],
      "WindowCenter": [10335.0, 10270.0, 10229.0, 10225.0, 10206.0, 10199.0, 10212.0, 10218.0, 10213.0, 10220.0, 10212.0, 10206.0, 10208.0, 10197.0, 10203.0, 10226.0, 10230.0, 10245.0, 10255.0, 10254.0, 10253.0, 10257.0, 10249.0, 10243.0, 10229.0, 10215.0, 10228.0, 10235.0, 10228.0, 10246.0, 10243.0, 10253.0, 10259.0, 10250.0, 10258.0, 10266.0, 10264.0, 10267.0, 10264.0, 10267.0, 10261.0, 10254.0, 10266.0, 10275.0, 10274.0, 10277.0, 10267.0, 10268.0, 10272.0, 10263.0, 10255.0, 10259.0, 10246.0, 10239.0, 10244.0, 10250.0, 10239.0, 10251.0, 10253.0, 10253.0, 10259.0, 10255.0, 10241.0, 10246.0, 10251.0, 10239.0, 10247.0, 10248.0, 10245.0, 10244.0, 10239.0, 10239.0, 10246.0, 10255.0, 10261.0, 10280.0, 10273.0, 10266.0, 10266.0, 10278.0, 10261.0, 10259.0, 10259.0, 10258.0, 10260.0, 10249.0, 10248.0, 10261.0, 10253.0, 10251.0, 10264.0, 10257.0, 10268.0, 10274.0, 10266.0, 10271.0, 10266.0, 10254.0, 10253.0, 10261.0, 10265.0, 10276.0, 10261.0, 10255.0, 10253.0, 10245.0, 10239.0, 10240.0, 10241.0, 10234.0, 10233.0, 10228.0, 10225.0, 10217.0, 10221.0, 10227.0, 10227.0, 10230.0, 10234.0, 10243.0, 10234.0, 10227.0, 10223.0, 10220.0, 10219.0, 10230.0, 10222.0, 10216.0, 10217.0, 10225.0, 10216.0, 10222.0, 10221.0, 10217.0, 10224.0, 10236.0, 10227.0, 10235.0, 10242.0, 10252.0, 10255.0, 10240.0, 10223.0, 10229.0, 10222.0, 10252.0, 10243.0, 10230.0, 10237.0, 10243.0, 10253.0, 10257.0, 10250.0, 10242.0, 10242.0, 10244.0, 10235.0, 10238.0, 10240.0, 10253.0, 10249.0, 10246.0, 10249.0, 10256.0, 10260.0, 10264.0, 10260.0, 10272.0, 10275.0, 10280.0, 10280.0, 10275.0, 10275.0, 10279.0, 10274.0, 10278.0, 10257.0, 10261.0, 10259.0, 10259.0, 10260.0, 10262.0, 10261.0, 10259.0, 10269.0, 10275.0, 10275.0, 10265.0, 10247.0, 10230.0, 10221.0, 10225.0, 10232.0, 10241.0, 10250.0, 10265.0, 10274.0, 10270.0, 10271.0, 10262.0, 10261.0, 10249.0, 10257.0, 10259.0, 10254.0, 10259.0, 10266.0, 10267.0, 10260.0, 10243.0, 10253.0, 10251.0, 10243.0, 10243.0, 10241.0, 10244.0, 10255.0, 10244.0, 10252.0, 10265.0, 10267.0, 10258.0, 10267.0, 10273.0, 10263.0, 10260.0, 10266.0, 10268.0, 10265.0, 10272.0, 10270.0, 10275.0, 10277.0, 10280.0, 10288.0, 10291.0, 10291.0, 10281.0, 10280.0, 10275.0, 10271.0, 10266.0, 10268.0, 10259.0, 10271.0, 10266.0, 10257.0, 10259.0, 10242.0, 10235.0, 10235.0, 10231.0, 10240.0, 10234.0, 10238.0, 10238.0, 10256.0, 10255.0, 10259.0, 10261.0, 10266.0, 10251.0, 10256.0, 10238.0, 10241.0, 10249.0, 10240.0, 10226.0, 10232.0, 10225.0, 10231.0, 10214.0, 10211.0, 10222.0, 10211.0, 10215.0, 10216.0, 10228.0, 10231.0, 10234.0, 10227.0, 10226.0, 10216.0, 10223.0, 10212.0, 10211.0, 10223.0, 10222.0, 10224.0, 10235.0, 10227.0, 10232.0, 10226.0, 10237.0, 10233.0, 10230.0, 10224.0, 10225.0, 10231.0, 10231.0],
