{
  "AcquisitionMatrixPE": 104,
  "AcquisitionNumber": 1,
  "AcquisitionTime": "11:41:42.342500",
  "BandwidthPerPixelPhaseEncode": 16.297,
  "BaseResolution": 104,
  "BodyPartExamined": "BRAIN",
  "ConsistencyInfo": "N4_VE11C_LATEST_20160120",
  "ConversionSoftware": "dcm2niix",
  "ConversionSoftwareVersion": "v1.0.20210317",
  "DerivedVendorReportedEchoSpacing": 0.000590009,
  "DeviceSerialNumber": "166018",
  "DwellTime": 2.1e-06,
  "EchoTime": 0.0376,
  "EchoTrainLength": 104,
  "EffectiveEchoSpacing": 0.000590009,
  "FlipAngle": 68,
  "ImageComments": "Unaliased MB6/PE3/LB",
  "ImageOrientationPatientDICOM": [0.99898, -0.0439155, 0.0105375, 0.0444898, 0.997055, -0.0624653],
  "ImageType": [
    "ORIGINAL",
    "PRIMARY",
    "M",
    "MB",
    "ND",
    "MOSAIC"
],
  "ImagingFrequency": 123.197,
  "InPlanePhaseEncodingDirectionDICOM": "COL",
  "InstitutionAddress": "Washington Place 6,NYC,NYC,US,10003",
  "InstitutionName": "NYU - CBI",
  "InstitutionalDepartmentName": "Department",
  "MRAcquisitionType": "2D",
  "MagneticFieldStrength": 3,
  "Manufacturer": "Siemens",
  "ManufacturersModelName": "Prisma",
  "Modality": "MR",
  "MultibandAccelerationFactor": 6,
  "PartialFourier": 1,
  "PatientPosition": "HFS",
  "PercentPhaseFOV": 100,
  "PercentSampling": 100,
  "PhaseEncodingDirection": "j",
  "PhaseEncodingSteps": 104,
  "PhaseResolution": 1,
  "PixelBandwidth": 2290,
  "ProcedureStepDescription": "Investigators^Winawer",
  "ProtocolName": "cmrr_mbepi_s6_2mm_66sl_PA_task-bar1",
  "PulseSequenceDetails": "%CustomerSeq%\\cmrr_mbep2d_bold",
  "ReceiveCoilActiveElements": "HC1-7",
  "ReceiveCoilName": "HeadNeck_64",
  "ReconMatrixPE": 104,
  "RepetitionTime": 1,
  "SAR": 0.0745475,
  "ScanOptions": "FS",
  "ScanningSequence": "EP",
  "SequenceName": "epfid2d1_104",
  "SequenceVariant": "SK\\SS",
  "SeriesDescription": "cmrr_mbepi_s6_2mm_66sl_PA_task-bar1",
  "SeriesNumber": 8,
  "ShimSetting": [283, -12639, -8484, 280, -31, -62, -36, 86],
  "SliceThickness": 2,
  "SliceTiming": [0, 0.5325, 0.0875, 0.6225, 0.1775, 0.7125, 0.265, 0.8, 0.355, 0.89, 0.445, 0, 0.5325, 0.0875, 0.6225, 0.1775, 0.7125, 0.265, 0.8, 0.355, 0.89, 0.445, 0, 0.5325, 0.0875, 0.6225, 0.1775, 0.7125, 0.265, 0.8, 0.355, 0.89, 0.445, 0, 0.5325, 0.0875, 0.6225, 0.1775, 0.7125, 0.265, 0.8, 0.355, 0.89, 0.445, 0, 0.5325, 0.0875, 0.6225, 0.1775, 0.7125, 0.265, 0.8, 0.355, 0.89, 0.445, 0, 0.5325, 0.0875, 0.6225, 0.1775, 0.7125, 0.265, 0.8, 0.355, 0.89, 0.445],
  "SoftwareVersions": "syngo MR E11",
  "SpacingBetweenSlices": 2,
  "StationName": "AWP166018",
  "TaskName": "bar1",
  "TotalReadoutTime": 0.060771,
  "TxRefAmp": 208.96,
  "VendorReportedEchoSpacing": 0.00059,
  "WipMemBlock": "50c0a34a-0f2a-49e8-b2ef-a7069d066b75||Sequence: R016 ve11c/master r/8780670; Nov 27 2017 15:05:12 by eja",
  "dcmmeta_affine": [
    [-1.9979593753814697, 0.08897966146469116, 0.015526468865573406, 106.88592529296875],
    [0.08783107995986938, 1.994110107421875, -0.12574076652526855, -86.77977752685547],
    [0.0210749302059412, 0.12493062019348145, 1.9959830045700073, -46.41769790649414],
    [0.0, 0.0, 0.0, 1.0]
],
  "dcmmeta_reorient_transform": [
    [0.0, -1.0, 0.0, 103.0],
    [1.0, 0.0, 0.0, 0.0],
    [0.0, 0.0, 1.0, 0.0],
    [0.0, 0.0, 0.0, 1.0]
],
  "dcmmeta_shape": [104, 104, 66, 300],
  "dcmmeta_slice_dim": 2,
  "dcmmeta_version": 0.6,
  "global": {
    "const": {
      "AccessionNumber": "Litbm0vs",
      "AcquisitionMatrix": [104, 0, 0, 104],
      "AngioFlag": "N",
      "BitsAllocated": 16,
      "BitsStored": 16,
      "BodyPartExamined": "BRAIN",
      "Columns": 936,
      "EchoNumbers": 1,
      "EchoTime": 37.6,
      "EchoTrainLength": 104,
      "FlipAngle": 68.0,
      "HighBit": 15,
      "ImageOrientationPatient": [0.99897967303393, -0.0439155404765, 0.01053746505056, 0.04448983088785, 0.99705503351853, -0.062465311037],
      "ImagePositionPatient": [-984.21745921845, -911.62561459015, 9.654123572279],
      "ImageType": [
        "ORIGINAL",
        "PRIMARY",
        "M",
        "MB",
        "ND",
        "MOSAIC"
],
      "ImagedNucleus": "1H",
      "ImagingFrequency": 123.196779,
      "InPlanePhaseEncodingDirection": "COL",
      "MRAcquisitionType": "2D",
      "MagneticFieldStrength": 3.0,
      "Manufacturer": "SIEMENS",
      "ManufacturerModelName": "Prisma",
      "Modality": "MR",
      "NumberOfAverages": 1.0,
      "NumberOfPhaseEncodingSteps": 104,
      "PercentPhaseFieldOfView": 100.0,
      "PercentSampling": 100.0,
      "PerformedProcedureStepStartTime": "113000.110000",
      "PhotometricInterpretation": "MONOCHROME2",
      "PixelBandwidth": 2290.0,
      "PixelRepresentation": 0,
      "PixelSpacing": [2.0, 2.0],
      "ProtocolName": "cmrr_mbepi_s6_2mm_66sl_PA_task-bar1",
      "RepetitionTime": 1000.0,
      "Rows": 936,
      "SAR": 0.07454751776401,
      "SamplesPerPixel": 1,
      "ScanOptions": "FS",
      "ScanningSequence": "EP",
      "SequenceName": "epfid2d1_104",
      "SequenceVariant": [
        "SK",
        "SS"
],
      "SeriesDescription": "cmrr_mbepi_s6_2mm_66sl_PA_task-bar1",
      "SeriesNumber": 8,
      "SeriesTime": "114305.078000",
      "SliceLocation": -40.038809875023,
      "SliceThickness": 2.0,
      "SmallestImagePixelValue": 0,
      "SoftwareVersions": "syngo MR E11",
      "SpacingBetweenSlices": 1.9999999349825,
      "SpecificCharacterSet": "ISO_IR 100",
      "StudyID": "1",
      "StudyTime": "112959.991000",
      "TransmitCoilName": "Body",
      "VariableFlipAngleFlag": "N",
      "WindowCenterWidthExplanation": "Algo1",
      "dBdt": 0.0},
    "slices": {}
  },
  "time": {
    "samples": {
      "AcquisitionNumber": [1, 2, 3, 4, 5, 6, 7, 8, 9, 10, 11, 12, 13, 14, 15, 16, 17, 18, 19, 20, 21, 22, 23, 24, 25, 26, 27, 28, 29, 30, 31, 32, 33, 34, 35, 36, 37, 38, 39, 40, 41, 42, 43, 44, 45, 46, 47, 48, 49, 50, 51, 52, 53, 54, 55, 56, 57, 58, 59, 60, 61, 62, 63, 64, 65, 66, 67, 68, 69, 70, 71, 72, 73, 74, 75, 76, 77, 78, 79, 80, 81, 82, 83, 84, 85, 86, 87, 88, 89, 90, 91, 92, 93, 94, 95, 96, 97, 98, 99, 100, 101, 102, 103, 104, 105, 106, 107, 108, 109, 110, 111, 112, 113, 114, 115, 116, 117, 118, 119, 120, 121, 122, 123, 124, 125, 126, 127, 128, 129, 130, 131, 132, 133, 134, 135, 136, 137, 138, 139, 140, 141, 142, 143, 144, 145, 146, 147, 148, 149, 150, 151, 152, 153, 154, 155, 156, 157, 158, 159, 160, 161, 162, 163, 164, 165, 166, 167, 168, 169, 170, 171, 172, 173, 174, 175, 176, 177, 178, 179, 180, 181, 182, 183, 184, 185, 186, 187, 188, 189, 190, 191, 192, 193, 194, 195, 196, 197, 198, 199, 200, 201, 202, 203, 204, 205, 206, 207, 208, 209, 210, 211, 212, 213, 214, 215, 216, 217, 218, 219, 220, 221, 222, 223, 224, 225, 226, 227, 228, 229, 230, 231, 232, 233, 234, 235, 236, 237, 238, 239, 240, 241, 242, 243, 244, 245, 246, 247, 248, 249, 250, 251, 252, 253, 254, 255, 256, 257, 258, 259, 260, 261, 262, 263, 264, 265, 266, 267, 268, 269, 270, 271, 272, 273, 274, 275, 276, 277, 278, 279, 280, 281, 282, 283, 284, 285, 286, 287, 288, 289, 290, 291, 292, 293, 294, 295, 296, 297, 298, 299, 300],
      "AcquisitionTime": ["114142.342500", "114143.342500", "114144.342500", "114145.342500", "114146.342500", "114147.342500", "114148.342500", "114149.342500", "114150.342500", "114151.342500", "114152.342500", "114153.342500", "114154.342500", "114155.342500", "114156.342500", "114157.342500", "114158.342500", "114159.342500", "114200.342500", "114201.342500", "114202.342500", "114203.342500", "114204.342500", "114205.342500", "114206.342500", "114207.342500", "114208.342500", "114209.342500", "114210.342500", "114211.342500", "114212.342500", "114213.342500", "114214.342500", "114215.342500", "114216.342500", "114217.342500", "114218.342500", "114219.342500", "114220.342500", "114221.342500", "114222.342500", "114223.342500", "114224.342500", "114225.342500", "114226.342500", "114227.342500", "114228.342500", "114229.342500", "114230.342500", "114231.342500", "114232.342500", "114233.342500", "114234.342500", "114235.342500", "114236.342500", "114237.342500", "114238.342500", "114239.342500", "114240.342500", "114241.342500", "114242.342500", "114243.342500", "114244.342500", "114245.342500", "114246.342500", "114247.342500", "114248.342500", "114249.342500", "114250.342500", "114251.342500", "114252.342500", "114253.342500", "114254.342500", "114255.342500", "114256.342500", "114257.342500", "114258.342500", "114259.342500", "114300.342500", "114301.342500", "114302.342500", "114303.342500", "114304.342500", "114305.342500", "114306.342500", "114307.342500", "114308.342500", "114309.342500", "114310.342500", "114311.342500", "114312.342500", "114313.342500", "114314.342500", "114315.342500", "114316.342500", "114317.342500", "114318.342500", "114319.342500", "114320.342500", "114321.342500", "114322.342500", "114323.342500", "114324.342500", "114325.342500", "114326.342500", "114327.342500", "114328.342500", "114329.342500", "114330.342500", "114331.342500", "114332.342500", "114333.342500", "114334.342500", "114335.342500", "114336.342500", "114337.342500", "114338.342500", "114339.342500", "114340.342500", "114341.342500", "114342.342500", "114343.342500", "114344.342500", "114345.342500", "114346.342500", "114347.342500", "114348.342500", "114349.342500", "114350.342500", "114351.342500", "114352.342500", "114353.342500", "114354.342500", "114355.342500", "114356.342500", "114357.342500", "114358.342500", "114359.342500", "114400.342500", "114401.342500", "114402.342500", "114403.342500", "114404.342500", "114405.342500", "114406.342500", "114407.342500", "114408.342500", "114409.342500", "114410.342500", "114411.342500", "114412.342500", "114413.342500", "114414.342500", "114415.342500", "114416.342500", "114417.342500", "114418.342500", "114419.342500", "114420.342500", "114421.342500", "114422.342500", "114423.342500", "114424.342500", "114425.342500", "114426.342500", "114427.342500", "114428.342500", "114429.342500", "114430.342500", "114431.342500", "114432.342500", "114433.342500", "114434.342500", "114435.342500", "114436.342500", "114437.342500", "114438.342500", "114439.342500", "114440.342500", "114441.342500", "114442.342500", "114443.342500", "114444.342500", "114445.342500", "114446.342500", "114447.342500", "114448.342500", "114449.342500", "114450.342500", "114451.342500", "114452.342500", "114453.342500", "114454.342500", "114455.342500", "114456.342500", "114457.342500", "114458.342500", "114459.342500", "114500.342500", "114501.342500", "114502.342500", "114503.342500", "114504.342500", "114505.342500", "114506.342500", "114507.342500", "114508.342500", "114509.342500", "114510.342500", "114511.342500", "114512.342500", "114513.342500", "114514.342500", "114515.342500", "114516.342500", "114517.342500", "114518.342500", "114519.342500", "114520.342500", "114521.342500", "114522.342500", "114523.342500", "114524.342500", "114525.342500", "114526.342500", "114527.342500", "114528.342500", "114529.342500", "114530.342500", "114531.342500", "114532.342500", "114533.342500", "114534.342500", "114535.342500", "114536.342500", "114537.342500", "114538.342500", "114539.342500", "114540.342500", "114541.342500", "114542.342500", "114543.342500", "114544.342500", "114545.342500", "114546.342500", "114547.342500", "114548.342500", "114549.342500", "114550.342500", "114551.342500", "114552.342500", "114553.342500", "114554.342500", "114555.342500", "114556.342500", "114557.342500", "114558.342500", "114559.342500", "114600.342500", "114601.342500", "114602.342500", "114603.342500", "114604.342500", "114605.342500", "114606.342500", "114607.342500", "114608.342500", "114609.342500", "114610.342500", "114611.342500", "114612.342500", "114613.342500", "114614.342500", "114615.342500", "114616.342500", "114617.342500", "114618.342500", "114619.342500", "114620.342500", "114621.342500", "114622.342500", "114623.342500", "114624.342500", "114625.342500", "114626.342500", "114627.342500", "114628.342500", "114629.342500", "114630.342500", "114631.342500", "114632.342500", "114633.342500", "114634.342500", "114635.342500", "114636.342500", "114637.342500", "114638.342500", "114639.342500", "114640.342500", "114641.342500"],
      "ContentTime": ["114305.081000", "114305.085000", "114305.088000", "114305.091000", "114305.100000", "114305.103000", "114305.106000", "114305.109000", "114305.117000", "114305.120000", "114305.123000", "114305.126000", "114305.129000", "114305.133000", "114305.136000", "114305.139000", "114305.142000", "114305.145000", "114305.148000", "114305.151000", "114305.154000", "114305.157000", "114305.160000", "114305.163000", "114305.167000", "114305.170000", "114305.173000", "114305.176000", "114305.179000", "114305.182000", "114305.185000", "114305.193000", "114305.197000", "114305.200000", "114305.203000", "114305.206000", "114305.209000", "114305.212000", "114305.215000", "114305.218000", "114305.221000", "114305.224000", "114305.227000", "114305.230000", "114305.233000", "114305.236000", "114305.239000", "114325.045000", "114325.048000", "114325.051000", "114325.055000", "114325.058000", "114325.061000", "114325.064000", "114325.067000", "114325.070000", "114325.073000", "114325.076000", "114325.079000", "114325.082000", "114325.085000", "114325.088000", "114325.092000", "114325.095000", "114325.098000", "114325.101000", "114325.104000", "114325.107000", "114325.110000", "114325.113000", "114325.116000", "114325.137000", "114325.140000", "114325.143000", "114325.146000", "114345.045000", "114345.048000", "114345.051000", "114345.054000", "114345.058000", "114345.061000", "114345.064000", "114345.067000", "114345.070000", "114345.073000", "114345.076000", "114345.079000", "114345.082000", "114345.085000", "114345.089000", "114345.091000", "114345.095000", "114345.098000", "114345.101000", "114345.104000", "114345.107000", "114345.110000", "114345.113000", "114345.116000", "114345.119000", "114345.122000", "114345.125000", "114345.129000", "114405.045000", "114405.048000", "114405.052000", "114405.055000", "114405.058000", "114405.061000", "114405.064000", "114405.067000", "114405.070000", "114405.073000", "114405.076000", "114405.079000", "114405.082000", "114405.085000", "114405.089000", "114405.092000", "114405.095000", "114405.098000", "114405.101000", "114405.104000", "114405.107000", "114405.110000", "114405.113000", "114405.116000", "114405.119000", "114405.122000", "114405.125000", "114405.128000", "114405.131000", "114425.045000", "114425.048000", "114425.052000", "114425.055000", "114425.058000", "114425.061000", "114425.064000", "114425.067000", "114425.070000", "114425.073000", "114425.076000", "114425.079000", "114425.082000", "114425.086000", "114425.089000", "114425.092000", "114425.095000", "114425.098000", "114425.101000", "114425.104000", "114425.107000", "114425.110000", "114425.113000", "114425.117000", "114425.120000", "114425.123000", "114425.126000", "114425.129000", "114445.044000", "114445.047000", "114445.050000", "114445.054000", "114445.057000", "114445.060000", "114445.063000", "114445.066000", "114445.069000", "114445.072000", "114445.075000", "114445.078000", "114445.081000", "114445.084000", "114445.087000", "114445.091000", "114445.094000", "114445.097000", "114445.100000", "114445.107000", "114445.110000", "114505.044000", "114505.047000", "114505.051000", "114505.054000", "114505.057000", "114505.060000", "114505.063000", "114505.066000", "114505.069000", "114505.072000", "114505.075000", "114505.078000", "114505.081000", "114505.085000", "114505.088000", "114505.091000", "114505.094000", "114505.097000", "114505.100000", "114505.103000", "114525.045000", "114525.048000", "114525.052000", "114525.055000", "114525.058000", "114525.061000", "114525.064000", "114525.067000", "114525.070000", "114525.073000", "114525.076000", "114525.079000", "114525.083000", "114525.086000", "114525.089000", "114525.092000", "114525.095000", "114525.098000", "114525.101000", "114525.104000", "114545.045000", "114545.048000", "114545.052000", "114545.055000", "114545.058000", "114545.061000", "114545.064000", "114545.067000", "114545.070000", "114545.073000", "114545.076000", "114545.080000", "114545.083000", "114545.086000", "114545.089000", "114545.092000", "114545.095000", "114545.098000", "114545.101000", "114545.104000", "114605.045000", "114605.058000", "114605.061000", "114605.064000", "114605.067000", "114605.070000", "114605.073000", "114605.076000", "114605.079000", "114605.082000", "114605.086000", "114605.089000", "114605.092000", "114605.095000", "114605.098000", "114605.101000", "114605.104000", "114605.107000", "114605.120000", "114605.123000", "114625.045000", "114625.048000", "114625.052000", "114625.055000", "114625.058000", "114625.061000", "114625.064000", "114625.067000", "114625.070000", "114625.073000", "114625.076000", "114625.080000", "114625.083000", "114625.086000", "114625.089000", "114625.092000", "114625.095000", "114625.098000", "114625.101000", "114625.104000", "114643.494000", "114643.497000", "114643.500000", "114643.504000", "114643.511000", "114643.514000", "114643.518000", "114643.521000", "114643.524000", "114643.527000", "114643.530000", "114643.533000", "114643.537000", "114643.540000", "114643.543000", "114643.546000", "114643.549000", "114643.552000", "114643.555000"],
      "InstanceCreationTime": ["114305.081000", "114305.085000", "114305.088000", "114305.091000", "114305.100000", "114305.103000", "114305.106000", "114305.109000", "114305.117000", "114305.120000", "114305.123000", "114305.126000", "114305.129000", "114305.133000", "114305.136000", "114305.139000", "114305.142000", "114305.145000", "114305.148000", "114305.151000", "114305.154000", "114305.157000", "114305.160000", "114305.163000", "114305.167000", "114305.170000", "114305.173000", "114305.176000", "114305.179000", "114305.182000", "114305.185000", "114305.193000", "114305.197000", "114305.200000", "114305.203000", "114305.206000", "114305.209000", "114305.212000", "114305.215000", "114305.218000", "114305.221000", "114305.224000", "114305.227000", "114305.230000", "114305.233000", "114305.236000", "114305.239000", "114325.045000", "114325.048000", "114325.051000", "114325.055000", "114325.058000", "114325.061000", "114325.064000", "114325.067000", "114325.070000", "114325.073000", "114325.076000", "114325.079000", "114325.082000", "114325.085000", "114325.088000", "114325.092000", "114325.095000", "114325.098000", "114325.101000", "114325.104000", "114325.107000", "114325.110000", "114325.113000", "114325.116000", "114325.137000", "114325.140000", "114325.143000", "114325.146000", "114345.045000", "114345.048000", "114345.051000", "114345.054000", "114345.058000", "114345.061000", "114345.064000", "114345.067000", "114345.070000", "114345.073000", "114345.076000", "114345.079000", "114345.082000", "114345.085000", "114345.089000", "114345.091000", "114345.095000", "114345.098000", "114345.101000", "114345.104000", "114345.107000", "114345.110000", "114345.113000", "114345.116000", "114345.119000", "114345.122000", "114345.125000", "114345.129000", "114405.045000", "114405.048000", "114405.052000", "114405.055000", "114405.058000", "114405.061000", "114405.064000", "114405.067000", "114405.070000", "114405.073000", "114405.076000", "114405.079000", "114405.082000", "114405.085000", "114405.089000", "114405.092000", "114405.095000", "114405.098000", "114405.101000", "114405.104000", "114405.107000", "114405.110000", "114405.113000", "114405.116000", "114405.119000", "114405.122000", "114405.125000", "114405.128000", "114405.131000", "114425.045000", "114425.048000", "114425.052000", "114425.055000", "114425.058000", "114425.061000", "114425.064000", "114425.067000", "114425.070000", "114425.073000", "114425.076000", "114425.079000", "114425.082000", "114425.086000", "114425.089000", "114425.092000", "114425.095000", "114425.098000", "114425.101000", "114425.104000", "114425.107000", "114425.110000", "114425.113000", "114425.117000", "114425.120000", "114425.123000", "114425.126000", "114425.129000", "114445.044000", "114445.047000", "114445.050000", "114445.054000", "114445.057000", "114445.060000", "114445.063000", "114445.066000", "114445.069000", "114445.072000", "114445.075000", "114445.078000", "114445.081000", "114445.084000", "114445.087000", "114445.091000", "114445.094000", "114445.097000", "114445.100000", "114445.107000", "114445.110000", "114505.044000", "114505.047000", "114505.051000", "114505.054000", "114505.057000", "114505.060000", "114505.063000", "114505.066000", "114505.069000", "114505.072000", "114505.075000", "114505.078000", "114505.081000", "114505.085000", "114505.088000", "114505.091000", "114505.094000", "114505.097000", "114505.100000", "114505.103000", "114525.045000", "114525.048000", "114525.052000", "114525.055000", "114525.058000", "114525.061000", "114525.064000", "114525.067000", "114525.070000", "114525.073000", "114525.076000", "114525.079000", "114525.083000", "114525.086000", "114525.089000", "114525.092000", "114525.095000", "114525.098000", "114525.101000", "114525.104000", "114545.045000", "114545.048000", "114545.052000", "114545.055000", "114545.058000", "114545.061000", "114545.064000", "114545.067000", "114545.070000", "114545.073000", "114545.076000", "114545.080000", "114545.083000", "114545.086000", "114545.089000", "114545.092000", "114545.095000", "114545.098000", "114545.101000", "114545.104000", "114605.045000", "114605.058000", "114605.061000", "114605.064000", "114605.067000", "114605.070000", "114605.073000", "114605.076000", "114605.079000", "114605.082000", "114605.086000", "114605.089000", "114605.092000", "114605.095000", "114605.098000", "114605.101000", "114605.104000", "114605.107000", "114605.120000", "114605.123000", "114625.045000", "114625.048000", "114625.052000", "114625.055000", "114625.058000", "114625.061000", "114625.064000", "114625.067000", "114625.070000", "114625.073000", "114625.076000", "114625.080000", "114625.083000", "114625.086000", "114625.089000", "114625.092000", "114625.095000", "114625.098000", "114625.101000", "114625.104000", "114643.494000", "114643.497000", "114643.500000", "114643.504000", "114643.511000", "114643.514000", "114643.518000", "114643.521000", "114643.524000", "114643.527000", "114643.530000", "114643.533000", "114643.537000", "114643.540000", "114643.543000", "114643.546000", "114643.549000", "114643.552000", "114643.555000"],
      "InstanceNumber": [1, 2, 3, 4, 5, 6, 7, 8, 9, 10, 11, 12, 13, 14, 15, 16, 17, 18, 19, 20, 21, 22, 23, 24, 25, 26, 27, 28, 29, 30, 31, 32, 33, 34, 35, 36, 37, 38, 39, 40, 41, 42, 43, 44, 45, 46, 47, 48, 49, 50, 51, 52, 53, 54, 55, 56, 57, 58, 59, 60, 61, 62, 63, 64, 65, 66, 67, 68, 69, 70, 71, 72, 73, 74, 75, 76, 77, 78, 79, 80, 81, 82, 83, 84, 85, 86, 87, 88, 89, 90, 91, 92, 93, 94, 95, 96, 97, 98, 99, 100, 101, 102, 103, 104, 105, 106, 107, 108, 109, 110, 111, 112, 113, 114, 115, 116, 117, 118, 119, 120, 121, 122, 123, 124, 125, 126, 127, 128, 129, 130, 131, 132, 133, 134, 135, 136, 137, 138, 139, 140, 141, 142, 143, 144, 145, 146, 147, 148, 149, 150, 151, 152, 153, 154, 155, 156, 157, 158, 159, 160, 161, 162, 163, 164, 165, 166, 167, 168, 169, 170, 171, 172, 173, 174, 175, 176, 177, 178, 179, 180, 181, 182, 183, 184, 185, 186, 187, 188, 189, 190, 191, 192, 193, 194, 195, 196, 197, 198, 199, 200, 201, 202, 203, 204, 205, 206, 207, 208, 209, 210, 211, 212, 213, 214, 215, 216, 217, 218, 219, 220, 221, 222, 223, 224, 225, 226, 227, 228, 229, 230, 231, 232, 233, 234, 235, 236, 237, 238, 239, 240, 241, 242, 243, 244, 245, 246, 247, 248, 249, 250, 251, 252, 253, 254, 255, 256, 257, 258, 259, 260, 261, 262, 263, 264, 265, 266, 267, 268, 269, 270, 271, 272, 273, 274, 275, 276, 277, 278, 279, 280, 281, 282, 283, 284, 285, 286, 287, 288, 289, 290, 291, 292, 293, 294, 295, 296, 297, 298, 299, 300],
      "LargestImagePixelValue": [40359, 39387, 39215, 37890, 37860, 38512, 37927, 38391, 38466, 37496, 38258, 38284, 37969, 38419, 37986, 38430, 38904, 37681, 38365, 37900, 37913, 38885, 38318, 38004, 38728, 39108, 39085, 37993, 38720, 37558, 38266, 38689, 37990, 38615, 39357, 38300, 38856, 39058, 39405, 38508, 38906, 39720, 38091, 38684, 39449, 38327, 39074, 38484, 39068, 39434, 38301, 38881, 39919, 38082, 39192, 39110, 38397, 38820, 38170, 38782, 39365, 38490, 38720, 38924, 39357, 38694, 38908, 39068, 38542, 38643, 38769, 38302, 38916, 38705, 38391, 38875, 39348, 38150, 38306, 39109, 40072, 38520, 38758, 39174, 39181, 39341, 38237, 38688, 39394, 39164, 39232, 38391, 38476, 38826, 39261, 38062, 38888, 38719, 38245, 39705, 38557, 39002, 38702, 38286, 38559, 38861, 38187, 38448, 39197, 38129, 38661, 38263, 37780, 38088, 38974, 38902, 39147, 38965, 39423, 38966, 39070, 39052, 39307, 38976, 38722, 39111, 39129, 39189, 39072, 39374, 39148, 39132, 39109, 39230, 38674, 38880, 38872, 39365, 38966, 38866, 38576, 38814, 38722, 39055, 39321, 38918, 38904, 39093, 39358, 39466, 39181, 39540, 39705, 39397, 39405, 39077, 39176, 39533, 39119, 38873, 39320, 39464, 39328, 39082, 38449, 39008, 39440, 39019, 39103, 39518, 39371, 39014, 38888, 39203, 38905, 39348, 39524, 39555, 39461, 39116, 39564, 39633, 39319, 39130, 39588, 39575, 39915, 39911, 39278, 39018, 39512, 39224, 39447, 40005, 39462, 39829, 39766, 39288, 39256, 39159, 39263, 39452, 39577, 39758, 39307, 39343, 39110, 39091, 39090, 39228, 39334, 39086, 39339, 38953, 39052, 39536, 39126, 39042, 39123, 38663, 38693, 38637, 39228, 38999, 39196, 39326, 38856, 38745, 39124, 39002, 38948, 38542, 38833, 38518, 38886, 38712, 38735, 38507, 39123, 38790, 38865, 38841, 38619, 39022, 38632, 38982, 38967, 38940, 38771, 38966, 39048, 39135, 39090, 39065, 39076, 38786, 39053, 39127, 39225, 39311, 39577, 38852, 39188, 39097, 38912, 39152, 38670, 38581, 39162, 38953, 39106, 38848, 38835, 39941, 39110, 38811, 39275, 39191, 38692, 39163, 38907, 39195, 39450, 39401, 38805, 39721, 39225, 39244, 39532, 39336, 39482, 39162, 38855, 39652, 39476, 39529, 39688, 39444, 39581, 39837],
      "WindowCenter": [10257.0, 10224.0, 10208.0, 10186.0, 10195.0, 10198.0, 10197.0, 10183.0, 10179.0, 10174.0, 10187.0, 10186.0, 10188.0, 10200.0, 10179.0, 10187.0, 10197.0, 10188.0, 10193.0, 10187.0, 10191.0, 10204.0, 10199.0, 10186.0, 10189.0, 10194.0, 10203.0, 10194.0, 10221.0, 10215.0, 10232.0, 10246.0, 10234.0, 10241.0, 10245.0, 10217.0, 10213.0, 10211.0, 10210.0, 10199.0, 10208.0, 10209.0, 10194.0, 10197.0, 10208.0, 10198.0, 10211.0, 10209.0, 10217.0, 10224.0, 10207.0, 10213.0, 10222.0, 10195.0, 10208.0, 10208.0, 10191.0, 10197.0, 10193.0, 10197.0, 10203.0, 10190.0, 10188.0, 10196.0, 10193.0, 10187.0, 10201.0, 10206.0, 10207.0, 10217.0, 10218.0, 10219.0, 10217.0, 10211.0, 10209.0, 10201.0, 10210.0, 10189.0, 10200.0, 10206.0, 10213.0, 10175.0, 10167.0, 10177.0, 10180.0, 10195.0, 10180.0, 10194.0, 10197.0, 10189.0, 10187.0, 10170.0, 10174.0, 10190.0, 10202.0, 10187.0, 10218.0, 10221.0, 10200.0, 10234.0, 10203.0, 10208.0, 10201.0, 10202.0, 10195.0, 10201.0, 10195.0, 10201.0, 10206.0, 10188.0, 10189.0, 10197.0, 10180.0, 10194.0, 10206.0, 10224.0, 10215.0, 10216.0, 10214.0, 10222.0, 10218.0, 10223.0, 10222.0, 10210.0, 10211.0, 10214.0, 10222.0, 10230.0, 10238.0, 10253.0, 10249.0, 10242.0, 10235.0, 10233.0, 10228.0, 10239.0, 10228.0, 10231.0, 10211.0, 10202.0, 10201.0, 10195.0, 10195.0, 10200.0, 10207.0, 10201.0, 10207.0, 10202.0, 10208.0, 10214.0, 10195.0, 10205.0, 10196.0, 10197.0, 10196.0, 10192.0, 10193.0, 10206.0, 10200.0, 10201.0, 10214.0, 10215.0, 10213.0, 10207.0, 10197.0, 10216.0, 10212.0, 10215.0, 10217.0, 10214.0, 10215.0, 10210.0, 10207.0, 10214.0, 10223.0, 10224.0, 10231.0, 10237.0, 10224.0, 10219.0, 10223.0, 10216.0, 10212.0, 10211.0, 10220.0, 10214.0, 10212.0, 10211.0, 10193.0, 10194.0, 10213.0, 10207.0, 10215.0, 10229.0, 10210.0, 10214.0, 10215.0, 10202.0, 10200.0, 10203.0, 10206.0, 10216.0, 10221.0, 10220.0, 10214.0, 10207.0, 10201.0, 10203.0, 10201.0, 10200.0, 10197.0, 10191.0, 10197.0, 10195.0, 10201.0, 10213.0, 10214.0, 10201.0, 10202.0, 10197.0, 10196.0, 10204.0, 10201.0, 10199.0, 10201.0, 10199.0, 10194.0, 10195.0, 10187.0, 10193.0, 10206.0, 10188.0, 10210.0, 10205.0, 10210.0, 10212.0, 10209.0, 10212.0, 10229.0, 10225.0, 10221.0, 10220.0, 10219.0, 10231.0, 10217.0, 10217.0, 10224.0, 10225.0, 10228.0, 10231.0, 10220.0, 10219.0, 10210.0, 10204.0, 10210.0, 10210.0, 10210.0, 10213.0, 10216.0, 10224.0, 10235.0, 10218.0, 10223.0, 10227.0, 10225.0, 10232.0, 10238.0, 10238.0, 10259.0, 10261.0, 10261.0, 10265.0, 10257.0, 10269.0, 10251.0, 10238.0, 10243.0, 10228.0, 10220.0, 10220.0, 10226.0, 10234.0, 10240.0, 10243.0, 10225.0, 10231.0, 10218.0, 10213.0, 10218.0, 10224.0, 10233.0, 10228.0, 10222.0, 10233.0, 10226.0, 10222.0, 10225.0, 10228.0, 10233.0, 10235.0],
