{
  "AcquisitionMatrixPE": 104,
  "AcquisitionNumber": 1,
  "AcquisitionTime": "13:09:43.537500",
  "BandwidthPerPixelPhaseEncode": 16.297,
  "BaseResolution": 104,
  "BodyPartExamined": "BRAIN",
  "ConsistencyInfo": "N4_VE11C_LATEST_20160120",
  "ConversionSoftware": "dcm2niix",
  "ConversionSoftwareVersion": "v1.0.20190902",
  "DerivedVendorReportedEchoSpacing": 0.000590009,
  "DeviceSerialNumber": "166018",
  "DwellTime": 2.1e-06,
  "EchoTime": 0.0376,
  "EchoTrainLength": 104,
  "EffectiveEchoSpacing": 0.000590009,
  "FlipAngle": 68,
  "ImageComments": "Unaliased_MB6_PE3_LB",
  "ImageOrientationPatientDICOM": [0.99864, 0.0489022, 0.0180849, -0.0483175, 0.998336, -0.0314649],
  "ImageType": [
    "ORIGINAL",
    "PRIMARY",
    "M",
    "MB",
    "ND",
    "MOSAIC"
],
  "ImagingFrequency": 123.191,
  "InPlanePhaseEncodingDirectionDICOM": "COL",
  "InstitutionAddress": "Washington_Place_6_NYC_NYC_US_10003",
  "InstitutionName": "NYU_Center_for_Brain_Imaging",
  "InstitutionalDepartmentName": "Department",
  "MRAcquisitionType": "2D",
  "MagneticFieldStrength": 3,
  "Manufacturer": "Siemens",
  "ManufacturersModelName": "Prisma",
  "Modality": "MR",
  "MultibandAccelerationFactor": 6,
  "PartialFourier": 1,
  "PatientPosition": "HFS",
  "PercentPhaseFOV": 100,
  "PhaseEncodingDirection": "j",
  "PhaseEncodingSteps": 104,
  "PhaseResolution": 1,
  "PixelBandwidth": 2290,
  "ProcedureStepDescription": "Investigators_Winawer",
  "ProtocolName": "cmrr_mbepi_s6_2mm_66sl_PA_task-prf",
  "PulseSequenceDetails": "%CustomerSeq%_cmrr_mbep2d_bold",
  "ReceiveCoilActiveElements": "HC1-7",
  "ReceiveCoilName": "HeadNeck_64",
  "ReconMatrixPE": 104,
  "RepetitionTime": 1,
  "SAR": 0.0711647,
  "ScanOptions": "FS",
  "ScanningSequence": "EP",
  "SequenceName": "epfid2d1_104",
  "SequenceVariant": "SK_SS",
  "SeriesDescription": "cmrr_mbepi_s6_2mm_66sl_PA_task-prf",
  "SeriesNumber": 26,
  "ShimSetting": [279, -12679, -8483, 321, 13, -314, -99, 15],
  "SliceThickness": 2,
  "SliceTiming": [0, 0.535, 0.09, 0.625, 0.18, 0.7125, 0.2675, 0.8025, 0.3575, 0.8925, 0.445, 0, 0.535, 0.09, 0.625, 0.18, 0.7125, 0.2675, 0.8025, 0.3575, 0.8925, 0.445, 0, 0.535, 0.09, 0.625, 0.18, 0.7125, 0.2675, 0.8025, 0.3575, 0.8925, 0.445, 0, 0.535, 0.09, 0.625, 0.18, 0.7125, 0.2675, 0.8025, 0.3575, 0.8925, 0.445, 0, 0.535, 0.09, 0.625, 0.18, 0.7125, 0.2675, 0.8025, 0.3575, 0.8925, 0.445, 0, 0.535, 0.09, 0.625, 0.18, 0.7125, 0.2675, 0.8025, 0.3575, 0.8925, 0.445],
  "SoftwareVersions": "syngo_MR_E11",
  "SpacingBetweenSlices": 2,
  "StationName": "AWP166018",
  "TaskName": "prf",
  "TotalReadoutTime": 0.060771,
  "TxRefAmp": 205.422,
  "VendorReportedEchoSpacing": 0.00059,
  "WipMemBlock": "4a894a66-c1da-45a3-b556-7b1a654cdc51||Sequence: R016 ve11c/master r/8780670; Nov 27 2017 15:05:12 by eja",
  "dcmmeta_affine": [
    [-1.9972796440124512, -0.09663501381874084, 0.03918701410293579, 108.82646179199219],
    [-0.09780436754226685, 1.9966726303100586, -0.06109648942947388, -71.17427062988281],
    [0.03616978973150253, 0.06292971968650818, 1.9986824989318848, -45.530643463134766],
    [0.0, 0.0, 0.0, 1.0]
],
  "dcmmeta_reorient_transform": [
    [0.0, -1.0, 0.0, 103.0],
    [1.0, 0.0, 0.0, 0.0],
    [0.0, 0.0, 1.0, 0.0],
    [0.0, 0.0, 0.0, 1.0]
],
  "dcmmeta_shape": [104, 104, 66, 192],
  "dcmmeta_slice_dim": 2,
  "dcmmeta_version": 0.6,
  "global": {
    "const": {
      "AccessionNumber": "kr26nbg7",
      "AcquisitionMatrix": [104, 0, 0, 104],
      "AngioFlag": "N",
      "BitsAllocated": 16,
      "BitsStored": 16,
      "BodyPartExamined": "BRAIN",
      "Columns": 936,
      "EchoNumbers": 1,
      "EchoTime": 37.6,
      "EchoTrainLength": 104,
      "FlipAngle": 68.0,
      "HighBit": 15,
      "ImageOrientationPatient": [0.99863983150641, 0.0489021832216, 0.01808489438773, -0.0483175062667, 0.99833630665284, -0.0314648598747],
      "ImagePositionPatient": [-889.54122967071, -1005.785432211, -27.916751474082],
      "ImageType": [
        "ORIGINAL",
        "PRIMARY",
        "M",
        "MB",
        "ND",
        "MOSAIC"
],
      "ImagedNucleus": "1H",
      "ImagingFrequency": 123.190636,
      "InPlanePhaseEncodingDirection": "COL",
      "MRAcquisitionType": "2D",
      "MagneticFieldStrength": 3.0,
      "Manufacturer": "SIEMENS",
      "ManufacturerModelName": "Prisma",
      "Modality": "MR",
      "NumberOfAverages": 1.0,
      "NumberOfPhaseEncodingSteps": 104,
      "PercentPhaseFieldOfView": 100.0,
      "PercentSampling": 100.0,
      "PerformedProcedureStepStartTime": "122909.687000",
      "PhotometricInterpretation": "MONOCHROME2",
      "PixelBandwidth": 2290.0,
      "PixelRepresentation": 0,
      "PixelSpacing": [2.0, 2.0],
      "ProtocolName": "cmrr_mbepi_s6_2mm_66sl_PA_task-prf",
      "RepetitionTime": 1000.0,
      "Rows": 936,
      "SAR": 0.07116466916526,
      "SamplesPerPixel": 1,
      "ScanOptions": "FS",
      "ScanningSequence": "EP",
      "SequenceName": "epfid2d1_104",
      "SequenceVariant": [
        "SK",
        "SS"
],
      "SeriesDescription": "cmrr_mbepi_s6_2mm_66sl_PA_task-prf",
      "SeriesNumber": 26,
      "SeriesTime": "131050.328000",
      "SliceLocation": -41.194108676066,
      "SliceThickness": 2.0,
      "SmallestImagePixelValue": 0,
      "SoftwareVersions": "syngo MR E11",
      "SpacingBetweenSlices": 1.9999999977799,
      "SpecificCharacterSet": "ISO_IR 100",
      "StudyID": "1",
      "StudyTime": "122909.541000",
      "TransmitCoilName": "Body",
      "VariableFlipAngleFlag": "N",
      "WindowCenterWidthExplanation": "Algo1",
      "dBdt": 0.0},
    "slices": {}
  },
  "time": {
    "samples": {
      "AcquisitionNumber": [1, 2, 3, 4, 5, 6, 7, 8, 9, 10, 11, 12, 13, 14, 15, 16, 17, 18, 19, 20, 21, 22, 23, 24, 25, 26, 27, 28, 29, 30, 31, 32, 33, 34, 35, 36, 37, 38, 39, 40, 41, 42, 43, 44, 45, 46, 47, 48, 49, 50, 51, 52, 53, 54, 55, 56, 57, 58, 59, 60, 61, 62, 63, 64, 65, 66, 67, 68, 69, 70, 71, 72, 73, 74, 75, 76, 77, 78, 79, 80, 81, 82, 83, 84, 85, 86, 87, 88, 89, 90, 91, 92, 93, 94, 95, 96, 97, 98, 99, 100, 101, 102, 103, 104, 105, 106, 107, 108, 109, 110, 111, 112, 113, 114, 115, 116, 117, 118, 119, 120, 121, 122, 123, 124, 125, 126, 127, 128, 129, 130, 131, 132, 133, 134, 135, 136, 137, 138, 139, 140, 141, 142, 143, 144, 145, 146, 147, 148, 149, 150, 151, 152, 153, 154, 155, 156, 157, 158, 159, 160, 161, 162, 163, 164, 165, 166, 167, 168, 169, 170, 171, 172, 173, 174, 175, 176, 177, 178, 179, 180, 181, 182, 183, 184, 185, 186, 187, 188, 189, 190, 191, 192],
      "AcquisitionTime": ["130943.537500", "130944.537500", "130945.537500", "130946.537500", "130947.537500", "130948.537500", "130949.537500", "130950.537500", "130951.537500", "130952.537500", "130953.537500", "130954.537500", "130955.537500", "130956.537500", "130957.537500", "130958.537500", "130959.537500", "131000.537500", "131001.537500", "131002.537500", "131003.537500", "131004.537500", "131005.537500", "131006.537500", "131007.537500", "131008.537500", "131009.537500", "131010.537500", "131011.537500", "131012.537500", "131013.537500", "131014.537500", "131015.537500", "131016.537500", "131017.537500", "131018.537500", "131019.537500", "131020.537500", "131021.537500", "131022.537500", "131023.537500", "131024.537500", "131025.537500", "131026.537500", "131027.537500", "131028.537500", "131029.537500", "131030.537500", "131031.537500", "131032.537500", "131033.537500", "131034.537500", "131035.537500", "131036.537500", "131037.537500", "131038.537500", "131039.537500", "131040.537500", "131041.537500", "131042.537500", "131043.537500", "131044.537500", "131045.537500", "131046.537500", "131047.537500", "131048.537500", "131049.537500", "131050.537500", "131051.537500", "131052.537500", "131053.537500", "131054.537500", "131055.537500", "131056.537500", "131057.537500", "131058.537500", "131059.537500", "131100.537500", "131101.537500", "131102.537500", "131103.537500", "131104.537500", "131105.537500", "131106.537500", "131107.537500", "131108.537500", "131109.537500", "131110.537500", "131111.537500", "131112.537500", "131113.537500", "131114.537500", "131115.537500", "131116.537500", "131117.537500", "131118.537500", "131119.537500", "131120.537500", "131121.537500", "131122.537500", "131123.537500", "131124.537500", "131125.537500", "131126.537500", "131127.537500", "131128.537500", "131129.537500", "131130.537500", "131131.537500", "131132.537500", "131133.537500", "131134.537500", "131135.537500", "131136.537500", "131137.537500", "131138.537500", "131139.537500", "131140.537500", "131141.537500", "131142.537500", "131143.537500", "131144.537500", "131145.537500", "131146.537500", "131147.537500", "131148.537500", "131149.537500", "131150.537500", "131151.537500", "131152.537500", "131153.537500", "131154.537500", "131155.537500", "131156.537500", "131157.537500", "131158.537500", "131159.537500", "131200.537500", "131201.537500", "131202.537500", "131203.537500", "131204.537500", "131205.537500", "131206.537500", "131207.537500", "131208.537500", "131209.537500", "131210.537500", "131211.537500", "131212.537500", "131213.537500", "131214.537500", "131215.537500", "131216.537500", "131217.537500", "131218.537500", "131219.537500", "131220.537500", "131221.537500", "131222.537500", "131223.537500", "131224.537500", "131225.537500", "131226.537500", "131227.537500", "131228.537500", "131229.537500", "131230.537500", "131231.537500", "131232.537500", "131233.537500", "131234.537500", "131235.537500", "131236.537500", "131237.537500", "131238.537500", "131239.537500", "131240.537500", "131241.537500", "131242.537500", "131243.537500", "131244.537500", "131245.537500", "131246.537500", "131247.537500", "131248.537500", "131249.537500", "131250.537500", "131251.537500", "131252.537500", "131253.537500", "131254.537500"],
      "ContentTime": ["131050.331000", "131050.334000", "131050.337000", "131050.349000", "131050.352000", "131050.355000", "131050.358000", "131050.366000", "131050.369000", "131050.372000", "131050.384000", "131050.387000", "131050.390000", "131050.393000", "131050.396000", "131050.399000", "131050.402000", "131050.405000", "131050.407000", "131050.410000", "131050.413000", "131050.416000", "131050.419000", "131050.422000", "131110.300000", "131110.303000", "131110.306000", "131110.309000", "131110.312000", "131110.315000", "131110.318000", "131110.321000", "131110.324000", "131110.327000", "131110.330000", "131110.332000", "131110.335000", "131110.338000", "131110.341000", "131110.344000", "131110.347000", "131110.350000", "131110.353000", "131110.356000", "131110.359000", "131110.362000", "131110.365000", "131110.368000", "131110.371000", "131110.374000", "131110.377000", "131110.380000", "131130.299000", "131130.302000", "131130.305000", "131130.308000", "131130.311000", "131130.314000", "131130.317000", "131130.320000", "131130.322000", "131130.326000", "131130.328000", "131130.331000", "131130.334000", "131130.337000", "131130.340000", "131130.343000", "131130.346000", "131130.349000", "131130.352000", "131130.355000", "131130.358000", "131130.361000", "131130.364000", "131130.367000", "131130.369000", "131130.372000", "131130.375000", "131130.378000", "131150.300000", "131150.303000", "131150.306000", "131150.309000", "131150.312000", "131150.315000", "131150.319000", "131150.322000", "131150.325000", "131150.328000", "131150.331000", "131150.334000", "131150.337000", "131150.339000", "131150.342000", "131150.345000", "131150.348000", "131150.351000", "131150.354000", "131150.357000", "131150.360000", "131150.363000", "131150.366000", "131150.369000", "131150.372000", "131150.375000", "131150.378000", "131150.380000", "131210.300000", "131210.303000", "131210.306000", "131210.309000", "131210.312000", "131210.315000", "131210.318000", "131210.321000", "131210.324000", "131210.326000", "131210.329000", "131210.332000", "131210.335000", "131210.338000", "131210.341000", "131210.344000", "131210.347000", "131210.350000", "131210.353000", "131210.356000", "131210.359000", "131210.362000", "131210.365000", "131210.368000", "131210.371000", "131210.374000", "131210.377000", "131210.380000", "131210.383000", "131230.300000", "131230.303000", "131230.306000", "131230.309000", "131230.312000", "131230.315000", "131230.318000", "131230.321000", "131230.324000", "131230.326000", "131230.330000", "131230.333000", "131230.335000", "131230.338000", "131230.341000", "131230.344000", "131230.347000", "131230.350000", "131230.353000", "131230.356000", "131230.359000", "131230.362000", "131230.365000", "131230.368000", "131230.371000", "131230.374000", "131230.377000", "131230.380000", "131250.300000", "131250.303000", "131250.306000", "131250.309000", "131250.312000", "131250.315000", "131250.318000", "131250.321000", "131250.333000", "131250.336000", "131250.339000", "131250.342000", "131250.345000", "131250.348000", "131250.351000", "131250.354000", "131250.356000", "131250.359000", "131250.362000", "131250.365000", "131250.368000", "131256.046000", "131256.050000", "131256.053000", "131256.057000", "131256.062000", "131256.067000"],
      "InstanceCreationTime": ["131050.331000", "131050.334000", "131050.337000", "131050.349000", "131050.352000", "131050.355000", "131050.358000", "131050.366000", "131050.369000", "131050.372000", "131050.384000", "131050.387000", "131050.390000", "131050.393000", "131050.396000", "131050.399000", "131050.402000", "131050.405000", "131050.407000", "131050.410000", "131050.413000", "131050.416000", "131050.419000", "131050.422000", "131110.300000", "131110.303000", "131110.306000", "131110.309000", "131110.312000", "131110.315000", "131110.318000", "131110.321000", "131110.324000", "131110.327000", "131110.330000", "131110.332000", "131110.335000", "131110.338000", "131110.341000", "131110.344000", "131110.347000", "131110.350000", "131110.353000", "131110.356000", "131110.359000", "131110.362000", "131110.365000", "131110.368000", "131110.371000", "131110.374000", "131110.377000", "131110.380000", "131130.299000", "131130.302000", "131130.305000", "131130.308000", "131130.311000", "131130.314000", "131130.317000", "131130.320000", "131130.322000", "131130.326000", "131130.328000", "131130.331000", "131130.334000", "131130.337000", "131130.340000", "131130.343000", "131130.346000", "131130.349000", "131130.352000", "131130.355000", "131130.358000", "131130.361000", "131130.364000", "131130.367000", "131130.369000", "131130.372000", "131130.375000", "131130.378000", "131150.300000", "131150.303000", "131150.306000", "131150.309000", "131150.312000", "131150.315000", "131150.319000", "131150.322000", "131150.325000", "131150.328000", "131150.331000", "131150.334000", "131150.337000", "131150.339000", "131150.342000", "131150.345000", "131150.348000", "131150.351000", "131150.354000", "131150.357000", "131150.360000", "131150.363000", "131150.366000", "131150.369000", "131150.372000", "131150.375000", "131150.378000", "131150.380000", "131210.300000", "131210.303000", "131210.306000", "131210.309000", "131210.312000", "131210.315000", "131210.318000", "131210.321000", "131210.324000", "131210.326000", "131210.329000", "131210.332000", "131210.335000", "131210.338000", "131210.341000", "131210.344000", "131210.347000", "131210.350000", "131210.353000", "131210.356000", "131210.359000", "131210.362000", "131210.365000", "131210.368000", "131210.371000", "131210.374000", "131210.377000", "131210.380000", "131210.383000", "131230.300000", "131230.303000", "131230.306000", "131230.309000", "131230.312000", "131230.315000", "131230.318000", "131230.321000", "131230.324000", "131230.326000", "131230.330000", "131230.333000", "131230.335000", "131230.338000", "131230.341000", "131230.344000", "131230.347000", "131230.350000", "131230.353000", "131230.356000", "131230.359000", "131230.362000", "131230.365000", "131230.368000", "131230.371000", "131230.374000", "131230.377000", "131230.380000", "131250.300000", "131250.303000", "131250.306000", "131250.309000", "131250.312000", "131250.315000", "131250.318000", "131250.321000", "131250.333000", "131250.336000", "131250.339000", "131250.342000", "131250.345000", "131250.348000", "131250.351000", "131250.354000", "131250.356000", "131250.359000", "131250.362000", "131250.365000", "131250.368000", "131256.046000", "131256.050000", "131256.053000", "131256.057000", "131256.062000", "131256.067000"],
      "InstanceNumber": [1, 2, 3, 4, 5, 6, 7, 8, 9, 10, 11, 12, 13, 14, 15, 16, 17, 18, 19, 20, 21, 22, 23, 24, 25, 26, 27, 28, 29, 30, 31, 32, 33, 34, 35, 36, 37, 38, 39, 40, 41, 42, 43, 44, 45, 46, 47, 48, 49, 50, 51, 52, 53, 54, 55, 56, 57, 58, 59, 60, 61, 62, 63, 64, 65, 66, 67, 68, 69, 70, 71, 72, 73, 74, 75, 76, 77, 78, 79, 80, 81, 82, 83, 84, 85, 86, 87, 88, 89, 90, 91, 92, 93, 94, 95, 96, 97, 98, 99, 100, 101, 102, 103, 104, 105, 106, 107, 108, 109, 110, 111, 112, 113, 114, 115, 116, 117, 118, 119, 120, 121, 122, 123, 124, 125, 126, 127, 128, 129, 130, 131, 132, 133, 134, 135, 136, 137, 138, 139, 140, 141, 142, 143, 144, 145, 146, 147, 148, 149, 150, 151, 152, 153, 154, 155, 156, 157, 158, 159, 160, 161, 162, 163, 164, 165, 166, 167, 168, 169, 170, 171, 172, 173, 174, 175, 176, 177, 178, 179, 180, 181, 182, 183, 184, 185, 186, 187, 188, 189, 190, 191, 192],
      "LargestImagePixelValue": [36805, 36094, 35148, 35227, 34706, 34289, 34280, 34612, 34184, 34697, 34274, 34861, 34895, 34812, 34697, 34870, 34664, 35187, 34690, 34761, 35310, 34781, 34841, 34499, 34645, 34392, 34380, 35008, 35028, 35031, 35153, 35223, 35042, 35493, 35092, 35198, 35402, 35178, 35608, 35126, 35482, 35266, 34965, 34838, 34772, 34713, 34501, 35109, 34766, 34468, 34623, 34521, 34707, 34620, 34741, 34788, 34632, 34963, 34866, 35107, 34643, 34803, 35108, 34783, 34780, 34689, 34775, 35022, 34815, 34564, 34683, 34698, 34510, 34878, 34445, 34733, 34587, 34806, 34965, 34572, 34423, 34607, 34390, 34268, 34678, 34432, 35238, 34913, 34729, 34904, 34902, 34718, 34547, 34652, 35039, 34846, 34752, 34587, 34864, 34343, 34163, 34633, 34299, 34706, 34569, 34280, 34504, 34490, 35036, 34718, 34916, 34946, 34688, 35143, 34513, 34744, 35016, 34417, 34964, 35295, 34568, 34716, 35248, 34635, 35025, 35068, 34797, 34632, 35202, 34887, 34891, 34952, 34803, 34398, 34804, 34813, 34839, 35196, 35298, 34725, 35018, 34667, 34378, 34682, 34970, 35193, 35127, 35445, 35416, 34787, 35274, 34813, 34709, 35134, 34682, 34260, 34558, 34914, 34782, 35020, 35061, 35093, 34724, 34912, 34477, 35161, 34656, 34630, 35000, 34147, 34427, 34872, 34336, 34511, 34321, 34311, 34050, 34073, 34046, 33968, 34234, 34041, 34463, 34460, 34245, 34491, 33907, 33868, 33534, 33924, 33977, 33812],
      "WindowCenter": [10020.0, 9974.0, 9940.0, 9927.0, 9921.0, 9899.0, 9898.0, 9894.0, 9887.0, 9886.0, 9888.0, 9891.0, 9897.0, 9896.0, 9890.0, 9896.0, 9893.0, 9903.0, 9893.0, 9899.0, 9895.0, 9882.0, 9875.0, 9874.0, 9861.0, 9860.0, 9864.0, 9870.0, 9863.0, 9855.0, 9861.0, 9859.0, 9869.0, 9883.0, 9884.0, 9887.0, 9893.0, 9886.0, 9893.0, 9894.0, 9900.0, 9903.0, 9906.0, 9921.0, 9923.0, 9922.0, 9919.0, 9922.0, 9924.0, 9912.0, 9909.0, 9902.0, 9907.0, 9901.0, 9908.0, 9916.0, 9909.0, 9910.0, 9915.0, 9915.0, 9902.0, 9907.0, 9912.0, 9906.0, 9915.0, 9916.0, 9923.0, 9922.0, 9922.0, 9909.0, 9901.0, 9907.0, 9908.0, 9914.0, 9916.0, 9923.0, 9925.0, 9924.0, 9925.0, 9909.0, 9907.0, 9902.0, 9895.0, 9888.0, 9894.0, 9898.0, 9902.0, 9904.0, 9920.0, 9924.0, 9939.0, 9934.0, 9927.0, 9926.0, 9927.0, 9924.0, 9925.0, 9928.0, 9940.0, 9936.0, 9943.0, 9936.0, 9924.0, 9919.0, 9910.0, 9898.0, 9904.0, 9902.0, 9908.0, 9911.0, 9924.0, 9924.0, 9927.0, 9930.0, 9918.0, 9931.0, 9919.0, 9919.0, 9931.0, 9930.0, 9919.0, 9911.0, 9914.0, 9908.0, 9908.0, 9913.0, 9915.0, 9917.0, 9925.0, 9918.0, 9923.0, 9924.0, 9925.0, 9921.0, 9925.0, 9918.0, 9915.0, 9922.0, 9921.0, 9910.0, 9916.0, 9928.0, 9936.0, 9945.0, 9943.0, 9934.0, 9925.0, 9928.0, 9914.0, 9906.0, 9905.0, 9900.0, 9900.0, 9906.0, 9895.0, 9888.0, 9900.0, 9901.0, 9909.0, 9916.0, 9915.0, 9921.0, 9923.0, 9908.0, 9904.0, 9913.0, 9912.0, 9918.0, 9926.0, 9916.0, 9906.0, 9908.0, 9890.0, 9887.0, 9875.0, 9879.0, 9889.0, 9909.0, 9920.0, 9926.0, 9903.0, 9883.0, 9882.0, 9870.0, 9863.0, 9881.0, 9898.0, 9916.0, 9924.0, 9924.0, 9909.0, 9887.0],
      "WindowWidth": [21553.0, 21417.0, 21323.0, 21283.0, 21265.0, 21213.0, 21211.0, 21197.0, 21181.0, 21179.0, 21183.0, 21187.0, 21201.0, 21196.0, 21184.0, 21194.0, 21190.0, 21208.0, 21192.0, 21204.0, 21192.0, 21165.0, 21149.0, 21145.0, 21114.0, 21115.0, 21122.0, 21132.0, 21118.0, 21102.0, 21114.0, 21107.0, 21131.0, 21162.0, 21167.0, 21175.0, 21187.0, 21173.0, 21185.0, 21190.0, 21201.0, 21210.0, 21222.0, 21256.0, 21264.0, 21258.0, 21257.0, 21259.0, 21261.0, 21239.0, 21225.0, 21214.0, 21219.0, 21210.0, 21225.0, 21245.0, 21231.0, 21233.0, 21245.0, 21243.0, 21216.0, 21225.0, 21233.0, 21222.0, 21243.0, 21244.0, 21258.0, 21256.0, 21257.0, 21228.0, 21211.0, 21223.0, 21227.0, 21239.0, 21246.0, 21263.0, 21268.0, 21264.0, 21265.0, 21230.0, 21224.0, 21213.0, 21200.0, 21184.0, 21197.0, 21203.0, 21207.0, 21216.0, 21251.0, 21267.0, 21299.0, 21294.0, 21274.0, 21270.0, 21275.0, 21266.0, 21269.0, 21278.0, 21303.0, 21296.0, 21311.0, 21294.0, 21272.0, 21256.0, 21234.0, 21208.0, 21220.0, 21215.0, 21226.0, 21237.0, 21265.0, 21263.0, 21273.0, 21276.0, 21251.0, 21280.0, 21254.0, 21253.0, 21278.0, 21274.0, 21253.0, 21236.0, 21238.0, 21225.0, 21225.0, 21236.0, 21242.0, 21247.0, 21263.0, 21250.0, 21260.0, 21262.0, 21268.0, 21261.0, 21265.0, 21249.0, 21240.0, 21256.0, 21255.0, 21232.0, 21244.0, 21276.0, 21295.0, 21314.0, 21308.0, 21285.0, 21263.0, 21265.0, 21233.0, 21217.0, 21217.0, 21204.0, 21207.0, 21217.0, 21196.0, 21182.0, 21205.0, 21209.0, 21224.0, 21241.0, 21240.0, 21248.0, 21254.0, 21222.0, 21216.0, 21233.0, 21238.0, 21250.0, 21266.0, 21255.0, 21223.0, 21225.0, 21186.0, 21177.0, 21151.0, 21161.0, 21185.0, 21235.0, 21260.0, 21271.0, 21217.0, 21167.0, 21161.0, 21134.0, 21120.0, 21160.0, 21205.0, 21246.0, 21267.0, 21266.0, 21230.0, 21179.0]
    },
    "slices": {}
  },
  "NumberOfVolumes": 192
}