{
  "AcquisitionMatrixPE": 104,
  "AcquisitionNumber": 1,
  "AcquisitionTime": "13:13:38.542500",
  "BandwidthPerPixelPhaseEncode": 16.297,
  "BaseResolution": 104,
  "BodyPartExamined": "BRAIN",
  "ConsistencyInfo": "N4_VE11C_LATEST_20160120",
  "ConversionSoftware": "dcm2niix",
  "ConversionSoftwareVersion": "v1.0.20190902",
  "DerivedVendorReportedEchoSpacing": 0.000590009,
  "DeviceSerialNumber": "166018",
  "DwellTime": 2.1e-06,
  "EchoTime": 0.0376,
  "EchoTrainLength": 104,
  "EffectiveEchoSpacing": 0.000590009,
  "FlipAngle": 68,
  "ImageComments": "Unaliased_MB6_PE3_LB",
  "ImageOrientationPatientDICOM": [0.99864, 0.0489022, 0.0180849, -0.0483175, 0.998336, -0.0314649],
  "ImageType": [
    "ORIGINAL",
    "PRIMARY",
    "M",
    "MB",
    "ND",
    "MOSAIC"
],
  "ImagingFrequency": 123.191,
  "InPlanePhaseEncodingDirectionDICOM": "COL",
  "InstitutionAddress": "Washington_Place_6_NYC_NYC_US_10003",
  "InstitutionName": "NYU_Center_for_Brain_Imaging",
  "InstitutionalDepartmentName": "Department",
  "MRAcquisitionType": "2D",
  "MagneticFieldStrength": 3,
  "Manufacturer": "Siemens",
  "ManufacturersModelName": "Prisma",
  "Modality": "MR",
  "MultibandAccelerationFactor": 6,
  "PartialFourier": 1,
  "PatientPosition": "HFS",
  "PercentPhaseFOV": 100,
  "PhaseEncodingDirection": "j",
  "PhaseEncodingSteps": 104,
  "PhaseResolution": 1,
  "PixelBandwidth": 2290,
  "ProcedureStepDescription": "Investigators_Winawer",
  "ProtocolName": "cmrr_mbepi_s6_2mm_66sl_PA_task-prf",
  "PulseSequenceDetails": "%CustomerSeq%_cmrr_mbep2d_bold",
  "ReceiveCoilActiveElements": "HC1-7",
  "ReceiveCoilName": "HeadNeck_64",
  "ReconMatrixPE": 104,
  "RepetitionTime": 1,
  "SAR": 0.0711647,
  "ScanOptions": "FS",
  "ScanningSequence": "EP",
  "SequenceName": "epfid2d1_104",
  "SequenceVariant": "SK_SS",
  "SeriesDescription": "cmrr_mbepi_s6_2mm_66sl_PA_task-prf",
  "SeriesNumber": 28,
  "ShimSetting": [279, -12679, -8483, 321, 13, -314, -99, 15],
  "SliceThickness": 2,
  "SliceTiming": [0, 0.535, 0.09, 0.625, 0.1775, 0.7125, 0.2675, 0.8025, 0.3575, 0.8925, 0.445, 0, 0.535, 0.09, 0.625, 0.1775, 0.7125, 0.2675, 0.8025, 0.3575, 0.8925, 0.445, 0, 0.535, 0.09, 0.625, 0.1775, 0.7125, 0.2675, 0.8025, 0.3575, 0.8925, 0.445, 0, 0.535, 0.09, 0.625, 0.1775, 0.7125, 0.2675, 0.8025, 0.3575, 0.8925, 0.445, 0, 0.535, 0.09, 0.625, 0.1775, 0.7125, 0.2675, 0.8025, 0.3575, 0.8925, 0.445, 0, 0.535, 0.09, 0.625, 0.1775, 0.7125, 0.2675, 0.8025, 0.3575, 0.8925, 0.445],
  "SoftwareVersions": "syngo_MR_E11",
  "SpacingBetweenSlices": 2,
  "StationName": "AWP166018",
  "TaskName": "prf",
  "TotalReadoutTime": 0.060771,
  "TxRefAmp": 205.422,
  "VendorReportedEchoSpacing": 0.00059,
  "WipMemBlock": "4a894a66-c1da-45a3-b556-7b1a654cdc51||Sequence: R016 ve11c/master r/8780670; Nov 27 2017 15:05:12 by eja",
  "dcmmeta_affine": [
    [-1.9972796440124512, -0.09663501381874084, 0.03918701410293579, 108.82646179199219],
    [-0.09780436754226685, 1.9966726303100586, -0.06109648942947388, -71.17427062988281],
    [0.03616978973150253, 0.06292971968650818, 1.9986824989318848, -45.530643463134766],
    [0.0, 0.0, 0.0, 1.0]
],
  "dcmmeta_reorient_transform": [
    [0.0, -1.0, 0.0, 103.0],
    [1.0, 0.0, 0.0, 0.0],
    [0.0, 0.0, 1.0, 0.0],
    [0.0, 0.0, 0.0, 1.0]
],
  "dcmmeta_shape": [104, 104, 66, 192],
  "dcmmeta_slice_dim": 2,
  "dcmmeta_version": 0.6,
  "global": {
    "const": {
      "AccessionNumber": "kr26nbg7",
      "AcquisitionMatrix": [104, 0, 0, 104],
      "AngioFlag": "N",
      "BitsAllocated": 16,
      "BitsStored": 16,
      "BodyPartExamined": "BRAIN",
      "Columns": 936,
      "EchoNumbers": 1,
      "EchoTime": 37.6,
      "EchoTrainLength": 104,
      "FlipAngle": 68.0,
      "HighBit": 15,
      "ImageOrientationPatient": [0.99863983150641, 0.0489021832216, 0.01808489438773, -0.0483175062667, 0.99833630665284, -0.0314648598747],
      "ImagePositionPatient": [-889.54122967071, -1005.785432211, -27.916751474082],
      "ImageType": [
        "ORIGINAL",
        "PRIMARY",
        "M",
        "MB",
        "ND",
        "MOSAIC"
],
      "ImagedNucleus": "1H",
      "ImagingFrequency": 123.190636,
      "InPlanePhaseEncodingDirection": "COL",
      "MRAcquisitionType": "2D",
      "MagneticFieldStrength": 3.0,
      "Manufacturer": "SIEMENS",
      "ManufacturerModelName": "Prisma",
      "Modality": "MR",
      "NumberOfAverages": 1.0,
      "NumberOfPhaseEncodingSteps": 104,
      "PercentPhaseFieldOfView": 100.0,
      "PercentSampling": 100.0,
      "PerformedProcedureStepStartTime": "122909.687000",
      "PhotometricInterpretation": "MONOCHROME2",
      "PixelBandwidth": 2290.0,
      "PixelRepresentation": 0,
      "PixelSpacing": [2.0, 2.0],
      "ProtocolName": "cmrr_mbepi_s6_2mm_66sl_PA_task-prf",
      "RepetitionTime": 1000.0,
      "Rows": 936,
      "SAR": 0.07116466916526,
      "SamplesPerPixel": 1,
      "ScanOptions": "FS",
      "ScanningSequence": "EP",
      "SequenceName": "epfid2d1_104",
      "SequenceVariant": [
        "SK",
        "SS"
],
      "SeriesDescription": "cmrr_mbepi_s6_2mm_66sl_PA_task-prf",
      "SeriesNumber": 28,
      "SeriesTime": "131450.184000",
      "SliceLocation": -41.194108676066,
      "SliceThickness": 2.0,
      "SmallestImagePixelValue": 0,
      "SoftwareVersions": "syngo MR E11",
      "SpacingBetweenSlices": 1.9999999977799,
      "SpecificCharacterSet": "ISO_IR 100",
      "StudyID": "1",
      "StudyTime": "122909.541000",
      "TransmitCoilName": "Body",
      "VariableFlipAngleFlag": "N",
      "WindowCenterWidthExplanation": "Algo1",
      "dBdt": 0.0},
    "slices": {}
  },
  "time": {
    "samples": {
      "AcquisitionNumber": [1, 2, 3, 4, 5, 6, 7, 8, 9, 10, 11, 12, 13, 14, 15, 16, 17, 18, 19, 20, 21, 22, 23, 24, 25, 26, 27, 28, 29, 30, 31, 32, 33, 34, 35, 36, 37, 38, 39, 40, 41, 42, 43, 44, 45, 46, 47, 48, 49, 50, 51, 52, 53, 54, 55, 56, 57, 58, 59, 60, 61, 62, 63, 64, 65, 66, 67, 68, 69, 70, 71, 72, 73, 74, 75, 76, 77, 78, 79, 80, 81, 82, 83, 84, 85, 86, 87, 88, 89, 90, 91, 92, 93, 94, 95, 96, 97, 98, 99, 100, 101, 102, 103, 104, 105, 106, 107, 108, 109, 110, 111, 112, 113, 114, 115, 116, 117, 118, 119, 120, 121, 122, 123, 124, 125, 126, 127, 128, 129, 130, 131, 132, 133, 134, 135, 136, 137, 138, 139, 140, 141, 142, 143, 144, 145, 146, 147, 148, 149, 150, 151, 152, 153, 154, 155, 156, 157, 158, 159, 160, 161, 162, 163, 164, 165, 166, 167, 168, 169, 170, 171, 172, 173, 174, 175, 176, 177, 178, 179, 180, 181, 182, 183, 184, 185, 186, 187, 188, 189, 190, 191, 192],
      "AcquisitionTime": ["131338.542500", "131339.542500", "131340.542500", "131341.542500", "131342.542500", "131343.542500", "131344.542500", "131345.542500", "131346.542500", "131347.542500", "131348.542500", "131349.542500", "131350.542500", "131351.542500", "131352.542500", "131353.542500", "131354.542500", "131355.542500", "131356.542500", "131357.542500", "131358.542500", "131359.542500", "131400.542500", "131401.542500", "131402.542500", "131403.542500", "131404.542500", "131405.542500", "131406.542500", "131407.542500", "131408.542500", "131409.542500", "131410.542500", "131411.542500", "131412.542500", "131413.542500", "131414.542500", "131415.542500", "131416.542500", "131417.542500", "131418.542500", "131419.542500", "131420.542500", "131421.542500", "131422.542500", "131423.542500", "131424.542500", "131425.542500", "131426.542500", "131427.542500", "131428.542500", "131429.542500", "131430.542500", "131431.542500", "131432.542500", "131433.542500", "131434.542500", "131435.542500", "131436.542500", "131437.542500", "131438.542500", "131439.542500", "131440.542500", "131441.542500", "131442.542500", "131443.542500", "131444.542500", "131445.542500", "131446.542500", "131447.542500", "131448.542500", "131449.542500", "131450.542500", "131451.542500", "131452.542500", "131453.542500", "131454.542500", "131455.542500", "131456.542500", "131457.542500", "131458.542500", "131459.542500", "131500.542500", "131501.542500", "131502.542500", "131503.542500", "131504.542500", "131505.542500", "131506.542500", "131507.542500", "131508.542500", "131509.542500", "131510.542500", "131511.542500", "131512.542500", "131513.542500", "131514.542500", "131515.542500", "131516.542500", "131517.542500", "131518.542500", "131519.542500", "131520.542500", "131521.542500", "131522.542500", "131523.542500", "131524.542500", "131525.542500", "131526.542500", "131527.542500", "131528.542500", "131529.542500", "131530.542500", "131531.542500", "131532.542500", "131533.542500", "131534.542500", "131535.542500", "131536.542500", "131537.542500", "131538.542500", "131539.542500", "131540.542500", "131541.542500", "131542.542500", "131543.542500", "131544.542500", "131545.542500", "131546.542500", "131547.542500", "131548.542500", "131549.542500", "131550.542500", "131551.542500", "131552.542500", "131553.542500", "131554.542500", "131555.542500", "131556.542500", "131557.542500", "131558.542500", "131559.542500", "131600.542500", "131601.542500", "131602.542500", "131603.542500", "131604.542500", "131605.542500", "131606.542500", "131607.542500", "131608.542500", "131609.542500", "131610.542500", "131611.542500", "131612.542500", "131613.542500", "131614.542500", "131615.542500", "131616.542500", "131617.542500", "131618.542500", "131619.542500", "131620.542500", "131621.542500", "131622.542500", "131623.542500", "131624.542500", "131625.542500", "131626.542500", "131627.542500", "131628.542500", "131629.542500", "131630.542500", "131631.542500", "131632.542500", "131633.542500", "131634.542500", "131635.542500", "131636.542500", "131637.542500", "131638.542500", "131639.542500", "131640.542500", "131641.542500", "131642.542500", "131643.542500", "131644.542500", "131645.542500", "131646.542500", "131647.542500", "131648.542500", "131649.542500"],
      "ContentTime": ["131450.187000", "131450.190000", "131450.193000", "131450.196000", "131450.199000", "131450.202000", "131450.205000", "131450.213000", "131450.216000", "131450.219000", "131450.222000", "131450.225000", "131450.228000", "131450.231000", "131450.237000", "131450.240000", "131450.243000", "131450.246000", "131450.249000", "131450.252000", "131450.254000", "131450.257000", "131450.266000", "131450.269000", "131450.272000", "131450.275000", "131450.278000", "131450.281000", "131450.285000", "131450.288000", "131450.291000", "131450.293000", "131510.152000", "131510.155000", "131510.158000", "131510.161000", "131510.164000", "131510.167000", "131510.170000", "131510.173000", "131510.176000", "131510.179000", "131510.182000", "131510.192000", "131510.195000", "131510.198000", "131510.201000", "131510.204000", "131510.207000", "131510.210000", "131510.213000", "131510.215000", "131510.218000", "131510.221000", "131510.224000", "131510.227000", "131510.230000", "131510.233000", "131510.236000", "131510.239000", "131530.152000", "131530.155000", "131530.158000", "131530.161000", "131530.164000", "131530.167000", "131530.170000", "131530.173000", "131530.176000", "131530.179000", "131530.182000", "131530.185000", "131530.187000", "131530.190000", "131530.193000", "131530.196000", "131530.199000", "131530.202000", "131530.205000", "131530.208000", "131530.211000", "131530.214000", "131530.217000", "131530.220000", "131530.223000", "131530.226000", "131530.229000", "131530.232000", "131550.151000", "131550.154000", "131550.157000", "131550.160000", "131550.163000", "131550.166000", "131550.169000", "131550.172000", "131550.175000", "131550.178000", "131550.181000", "131550.183000", "131550.186000", "131550.189000", "131550.192000", "131550.195000", "131550.198000", "131550.201000", "131550.204000", "131550.210000", "131550.213000", "131550.216000", "131550.219000", "131550.222000", "131550.225000", "131550.228000", "131550.231000", "131550.234000", "131550.237000", "131610.151000", "131610.154000", "131610.157000", "131610.160000", "131610.163000", "131610.166000", "131610.169000", "131610.172000", "131610.175000", "131610.178000", "131610.181000", "131610.184000", "131610.187000", "131610.190000", "131610.193000", "131610.196000", "131610.199000", "131610.202000", "131610.205000", "131610.208000", "131610.211000", "131610.213000", "131610.216000", "131610.219000", "131610.222000", "131610.225000", "131610.228000", "131610.231000", "131630.152000", "131630.155000", "131630.158000", "131630.161000", "131630.164000", "131630.176000", "131630.179000", "131630.182000", "131630.185000", "131630.188000", "131630.191000", "131630.194000", "131630.197000", "131630.200000", "131630.203000", "131630.206000", "131630.209000", "131630.212000", "131630.215000", "131630.218000", "131630.220000", "131630.223000", "131630.226000", "131630.229000", "131630.232000", "131630.235000", "131650.152000", "131650.155000", "131650.158000", "131650.161000", "131650.164000", "131650.167000", "131650.170000", "131650.173000", "131650.176000", "131650.179000", "131650.182000", "131650.184000", "131650.187000", "131650.190000", "131650.193000", "131650.196000", "131650.199000", "131650.202000", "131650.205000", "131650.208000", "131650.793000"],
      "InstanceCreationTime": ["131450.187000", "131450.190000", "131450.193000", "131450.196000", "131450.199000", "131450.202000", "131450.205000", "131450.213000", "131450.216000", "131450.219000", "131450.222000", "131450.225000", "131450.228000", "131450.231000", "131450.237000", "131450.240000", "131450.243000", "131450.246000", "131450.249000", "131450.252000", "131450.254000", "131450.257000", "131450.266000", "131450.269000", "131450.272000", "131450.275000", "131450.278000", "131450.281000", "131450.285000", "131450.288000", "131450.291000", "131450.293000", "131510.152000", "131510.155000", "131510.158000", "131510.161000", "131510.164000", "131510.167000", "131510.170000", "131510.173000", "131510.176000", "131510.179000", "131510.182000", "131510.192000", "131510.195000", "131510.198000", "131510.201000", "131510.204000", "131510.207000", "131510.210000", "131510.213000", "131510.215000", "131510.218000", "131510.221000", "131510.224000", "131510.227000", "131510.230000", "131510.233000", "131510.236000", "131510.239000", "131530.152000", "131530.155000", "131530.158000", "131530.161000", "131530.164000", "131530.167000", "131530.170000", "131530.173000", "131530.176000", "131530.179000", "131530.182000", "131530.185000", "131530.187000", "131530.190000", "131530.193000", "131530.196000", "131530.199000", "131530.202000", "131530.205000", "131530.208000", "131530.211000", "131530.214000", "131530.217000", "131530.220000", "131530.223000", "131530.226000", "131530.229000", "131530.232000", "131550.151000", "131550.154000", "131550.157000", "131550.160000", "131550.163000", "131550.166000", "131550.169000", "131550.172000", "131550.175000", "131550.178000", "131550.181000", "131550.183000", "131550.186000", "131550.189000", "131550.192000", "131550.195000", "131550.198000", "131550.201000", "131550.204000", "131550.210000", "131550.213000", "131550.216000", "131550.219000", "131550.222000", "131550.225000", "131550.228000", "131550.231000", "131550.234000", "131550.237000", "131610.151000", "131610.154000", "131610.157000", "131610.160000", "131610.163000", "131610.166000", "131610.169000", "131610.172000", "131610.175000", "131610.178000", "131610.181000", "131610.184000", "131610.187000", "131610.190000", "131610.193000", "131610.196000", "131610.199000", "131610.202000", "131610.205000", "131610.208000", "131610.211000", "131610.213000", "131610.216000", "131610.219000", "131610.222000", "131610.225000", "131610.228000", "131610.231000", "131630.152000", "131630.155000", "131630.158000", "131630.161000", "131630.164000", "131630.176000", "131630.179000", "131630.182000", "131630.185000", "131630.188000", "131630.191000", "131630.194000", "131630.197000", "131630.200000", "131630.203000", "131630.206000", "131630.209000", "131630.212000", "131630.215000", "131630.218000", "131630.220000", "131630.223000", "131630.226000", "131630.229000", "131630.232000", "131630.235000", "131650.152000", "131650.155000", "131650.158000", "131650.161000", "131650.164000", "131650.167000", "131650.170000", "131650.173000", "131650.176000", "131650.179000", "131650.182000", "131650.184000", "131650.187000", "131650.190000", "131650.193000", "131650.196000", "131650.199000", "131650.202000", "131650.205000", "131650.208000", "131650.793000"],
      "InstanceNumber": [1, 2, 3, 4, 5, 6, 7, 8, 9, 10, 11, 12, 13, 14, 15, 16, 17, 18, 19, 20, 21, 22, 23, 24, 25, 26, 27, 28, 29, 30, 31, 32, 33, 34, 35, 36, 37, 38, 39, 40, 41, 42, 43, 44, 45, 46, 47, 48, 49, 50, 51, 52, 53, 54, 55, 56, 57, 58, 59, 60, 61, 62, 63, 64, 65, 66, 67, 68, 69, 70, 71, 72, 73, 74, 75, 76, 77, 78, 79, 80, 81, 82, 83, 84, 85, 86, 87, 88, 89, 90, 91, 92, 93, 94, 95, 96, 97, 98, 99, 100, 101, 102, 103, 104, 105, 106, 107, 108, 109, 110, 111, 112, 113, 114, 115, 116, 117, 118, 119, 120, 121, 122, 123, 124, 125, 126, 127, 128, 129, 130, 131, 132, 133, 134, 135, 136, 137, 138, 139, 140, 141, 142, 143, 144, 145, 146, 147, 148, 149, 150, 151, 152, 153, 154, 155, 156, 157, 158, 159, 160, 161, 162, 163, 164, 165, 166, 167, 168, 169, 170, 171, 172, 173, 174, 175, 176, 177, 178, 179, 180, 181, 182, 183, 184, 185, 186, 187, 188, 189, 190, 191, 192],
      "LargestImagePixelValue": [35917, 34891, 34529, 34217, 33595, 33288, 34137, 33754, 33802, 33130, 33561, 33271, 33460, 33032, 33243, 33232, 33208, 33406, 33211, 33511, 33272, 33565, 33833, 33400, 33390, 33409, 33106, 33388, 33204, 33174, 33397, 33414, 33653, 33830, 33987, 34078, 33873, 33888, 33674, 33382, 33517, 33769, 33794, 33910, 34440, 34349, 34705, 35026, 34051, 34067, 34016, 33724, 33684, 33580, 33635, 33533, 33946, 33672, 33772, 34252, 34005, 33867, 33845, 33892, 34008, 33559, 33843, 33813, 33322, 33682, 33313, 33326, 33744, 33668, 33334, 33158, 33515, 33464, 33263, 33369, 33804, 33272, 33231, 33343, 33178, 33037, 33967, 33978, 33711, 33696, 33724, 33673, 33899, 33378, 34036, 34131, 33460, 33206, 33553, 33036, 33626, 33716, 33278, 33608, 33450, 33442, 33431, 33686, 33619, 33549, 33531, 34045, 33394, 33405, 33574, 33350, 33200, 33377, 33077, 33102, 33416, 33292, 33141, 34022, 34058, 33255, 33453, 33505, 33530, 33508, 33286, 33107, 33583, 33439, 33358, 33565, 33359, 33319, 33430, 33445, 33435, 33512, 33167, 33013, 33058, 32959, 33285, 32940, 33080, 33437, 33321, 33531, 33145, 32933, 32767, 33041, 33000, 33125, 33119, 33075, 33585, 33054, 33116, 32860, 32942, 33142, 32817, 32982, 33566, 33098, 33018, 33063, 32986, 33342, 33448, 33375, 33346, 33108, 33183, 33034, 33372, 33203, 32807, 33044, 33225, 33322, 33270, 33288, 33309, 33452, 33355, 33415],
      "WindowCenter": [9946.0, 9906.0, 9893.0, 9883.0, 9864.0, 9863.0, 9875.0, 9869.0, 9867.0, 9863.0, 9868.0, 9871.0, 9883.0, 9885.0, 9886.0, 9885.0, 9884.0, 9870.0, 9866.0, 9872.0, 9865.0, 9864.0, 9871.0, 9865.0, 9870.0, 9871.0, 9871.0, 9871.0, 9871.0, 9869.0, 9863.0, 9867.0, 9866.0, 9866.0, 9872.0, 9866.0, 9860.0, 9872.0, 9866.0, 9873.0, 9884.0, 9888.0, 9889.0, 9896.0, 9894.0, 9881.0, 9879.0, 9885.0, 9873.0, 9874.0, 9881.0, 9884.0, 9884.0, 9877.0, 9876.0, 9868.0, 9873.0, 9860.0, 9865.0, 9872.0, 9866.0, 9866.0, 9875.0, 9872.0, 9872.0, 9874.0, 9880.0, 9878.0, 9866.0, 9871.0, 9866.0, 9860.0, 9873.0, 9881.0, 9882.0, 9884.0, 9888.0, 9882.0, 9867.0, 9850.0, 9859.0, 9850.0, 9849.0, 9857.0, 9872.0, 9862.0, 9887.0, 9886.0, 9880.0, 9879.0, 9864.0, 9863.0, 9869.0, 9857.0, 9863.0, 9875.0, 9862.0, 9856.0, 9868.0, 9857.0, 9868.0, 9878.0, 9874.0, 9879.0, 9881.0, 9885.0, 9874.0, 9871.0, 9871.0, 9862.0, 9854.0, 9866.0, 9863.0, 9871.0, 9885.0, 9874.0, 9865.0, 9865.0, 9853.0, 9849.0, 9851.0, 9850.0, 9855.0, 9877.0, 9878.0, 9874.0, 9889.0, 9881.0, 9874.0, 9879.0, 9865.0, 9857.0, 9861.0, 9858.0, 9856.0, 9869.0, 9871.0, 9879.0, 9874.0, 9878.0, 9867.0, 9864.0, 9858.0, 9858.0, 9859.0, 9870.0, 9867.0, 9860.0, 9861.0, 9858.0, 9850.0, 9855.0, 9848.0, 9850.0, 9853.0, 9867.0, 9867.0, 9865.0, 9866.0, 9859.0, 9869.0, 9859.0, 9856.0, 9855.0, 9863.0, 9864.0, 9858.0, 9867.0, 9880.0, 9869.0, 9867.0, 9861.0, 9853.0, 9848.0, 9847.0, 9841.0, 9848.0, 9843.0, 9853.0, 9851.0, 9857.0, 9856.0, 9844.0, 9847.0, 9847.0, 9846.0, 9841.0, 9848.0, 9848.0, 9854.0, 9851.0, 9849.0],
      "WindowWidth": [21372.0, 21254.0, 21207.0, 21175.0, 21129.0, 21125.0, 21147.0, 21133.0, 21128.0, 21125.0, 21133.0, 21141.0, 21167.0, 21173.0, 21173.0, 21167.0, 21165.0, 21133.0, 21121.0, 21135.0, 21117.0, 21114.0, 21129.0, 21118.0, 21133.0, 21137.0, 21138.0, 21139.0, 21139.0, 21130.0, 21120.0, 21127.0, 21124.0, 21123.0, 21135.0, 21123.0, 21110.0, 21135.0, 21127.0, 21142.0, 21170.0, 21176.0, 21177.0, 21193.0, 21184.0, 21156.0, 21151.0, 21165.0, 21142.0, 21144.0, 21160.0, 21166.0, 21165.0, 21150.0, 21145.0, 21130.0, 21139.0, 21112.0, 21121.0, 21135.0, 21123.0, 21125.0, 21145.0, 21138.0, 21136.0, 21143.0, 21153.0, 21148.0, 21127.0, 21134.0, 21125.0, 21114.0, 21143.0, 21159.0, 21163.0, 21168.0, 21174.0, 21160.0, 21130.0, 21086.0, 21105.0, 21088.0, 21085.0, 21104.0, 21138.0, 21119.0, 21168.0, 21168.0, 21155.0, 21150.0, 21118.0, 21116.0, 21125.0, 21105.0, 21115.0, 21139.0, 21112.0, 21102.0, 21127.0, 21105.0, 21125.0, 21149.0, 21148.0, 21155.0, 21160.0, 21168.0, 21145.0, 21135.0, 21134.0, 21110.0, 21093.0, 21119.0, 21117.0, 21137.0, 21164.0, 21144.0, 21122.0, 21125.0, 21099.0, 21088.0, 21093.0, 21091.0, 21100.0, 21147.0, 21151.0, 21145.0, 21179.0, 21161.0, 21145.0, 21155.0, 21125.0, 21103.0, 21112.0, 21107.0, 21104.0, 21132.0, 21138.0, 21154.0, 21147.0, 21152.0, 21131.0, 21122.0, 21108.0, 21109.0, 21113.0, 21138.0, 21132.0, 21117.0, 21115.0, 21105.0, 21085.0, 21094.0, 21079.0, 21087.0, 21098.0, 21125.0, 21123.0, 21122.0, 21124.0, 21108.0, 21126.0, 21106.0, 21099.0, 21095.0, 21115.0, 21118.0, 21106.0, 21128.0, 21154.0, 21132.0, 21126.0, 21113.0, 21095.0, 21078.0, 21077.0, 21064.0, 21080.0, 21075.0, 21092.0, 21090.0, 21107.0, 21101.0, 21075.0, 21078.0, 21077.0, 21075.0, 21065.0, 21079.0, 21080.0, 21094.0, 21089.0, 21085.0]
    },
    "slices": {}
  },
  "NumberOfVolumes": 192
}