{
  "AcquisitionMatrixPE": 104,
  "AcquisitionNumber": 1,
  "AcquisitionTime": "12:44:13.470000",
  "BandwidthPerPixelPhaseEncode": 16.297,
  "BaseResolution": 104,
  "BodyPartExamined": "BRAIN",
  "ConsistencyInfo": "N4_VE11C_LATEST_20160120",
  "ConversionSoftware": "dcm2niix",
  "ConversionSoftwareVersion": "v1.0.20190902",
  "DerivedVendorReportedEchoSpacing": 0.000590009,
  "DeviceSerialNumber": "166018",
  "DwellTime": 2.1e-06,
  "EchoTime": 0.0376,
  "EchoTrainLength": 104,
  "EffectiveEchoSpacing": 0.000590009,
  "FlipAngle": 68,
  "ImageComments": "Unaliased_MB6_PE3_LB",
  "ImageOrientationPatientDICOM": [0.99864, 0.0489022, 0.0180849, -0.0483175, 0.998336, -0.0314649],
  "ImageType": [
    "ORIGINAL",
    "PRIMARY",
    "M",
    "MB",
    "ND",
    "MOSAIC"
],
  "ImagingFrequency": 123.191,
  "InPlanePhaseEncodingDirectionDICOM": "COL",
  "InstitutionAddress": "Washington_Place_6_NYC_NYC_US_10003",
  "InstitutionName": "NYU_Center_for_Brain_Imaging",
  "InstitutionalDepartmentName": "Department",
  "MRAcquisitionType": "2D",
  "MagneticFieldStrength": 3,
  "Manufacturer": "Siemens",
  "ManufacturersModelName": "Prisma",
  "Modality": "MR",
  "MultibandAccelerationFactor": 6,
  "PartialFourier": 1,
  "PatientPosition": "HFS",
  "PercentPhaseFOV": 100,
  "PhaseEncodingDirection": "j",
  "PhaseEncodingSteps": 104,
  "PhaseResolution": 1,
  "PixelBandwidth": 2290,
  "ProcedureStepDescription": "Investigators_Winawer",
  "ProtocolName": "cmrr_mbepi_s6_2mm_66sl_PA_task-prf",
  "PulseSequenceDetails": "%CustomerSeq%_cmrr_mbep2d_bold",
  "ReceiveCoilActiveElements": "HC1-7",
  "ReceiveCoilName": "HeadNeck_64",
  "ReconMatrixPE": 104,
  "RepetitionTime": 1,
  "SAR": 0.0711647,
  "ScanOptions": "FS",
  "ScanningSequence": "EP",
  "SequenceName": "epfid2d1_104",
  "SequenceVariant": "SK_SS",
  "SeriesDescription": "cmrr_mbepi_s6_2mm_66sl_PA_task-prf",
  "SeriesNumber": 14,
  "ShimSetting": [279, -12679, -8483, 321, 13, -314, -99, 15],
  "SliceThickness": 2,
  "SliceTiming": [0, 0.535, 0.09, 0.625, 0.1775, 0.7125, 0.2675, 0.8025, 0.3575, 0.89, 0.445, 0, 0.535, 0.09, 0.625, 0.1775, 0.7125, 0.2675, 0.8025, 0.3575, 0.89, 0.445, 0, 0.535, 0.09, 0.625, 0.1775, 0.7125, 0.2675, 0.8025, 0.3575, 0.89, 0.445, 0, 0.535, 0.09, 0.625, 0.1775, 0.7125, 0.2675, 0.8025, 0.3575, 0.89, 0.445, 0, 0.535, 0.09, 0.625, 0.1775, 0.7125, 0.2675, 0.8025, 0.3575, 0.89, 0.445, 0, 0.535, 0.09, 0.625, 0.1775, 0.7125, 0.2675, 0.8025, 0.3575, 0.89, 0.445],
  "SoftwareVersions": "syngo_MR_E11",
  "SpacingBetweenSlices": 2,
  "StationName": "AWP166018",
  "TaskName": "prf",
  "TotalReadoutTime": 0.060771,
  "TxRefAmp": 205.422,
  "VendorReportedEchoSpacing": 0.00059,
  "WipMemBlock": "4a894a66-c1da-45a3-b556-7b1a654cdc51||Sequence: R016 ve11c/master r/8780670; Nov 27 2017 15:05:12 by eja",
  "dcmmeta_affine": [
    [-1.9972796440124512, -0.09663501381874084, 0.03918701410293579, 108.82646179199219],
    [-0.09780436754226685, 1.9966726303100586, -0.06109648942947388, -71.17427062988281],
    [0.03616978973150253, 0.06292971968650818, 1.9986824989318848, -45.530643463134766],
    [0.0, 0.0, 0.0, 1.0]
],
  "dcmmeta_reorient_transform": [
    [0.0, -1.0, 0.0, 103.0],
    [1.0, 0.0, 0.0, 0.0],
    [0.0, 0.0, 1.0, 0.0],
    [0.0, 0.0, 0.0, 1.0]
],
  "dcmmeta_shape": [104, 104, 66, 192],
  "dcmmeta_slice_dim": 2,
  "dcmmeta_version": 0.6,
  "global": {
    "const": {
      "AccessionNumber": "kr26nbg7",
      "AcquisitionMatrix": [104, 0, 0, 104],
      "AngioFlag": "N",
      "BitsAllocated": 16,
      "BitsStored": 16,
      "BodyPartExamined": "BRAIN",
      "Columns": 936,
      "EchoNumbers": 1,
      "EchoTime": 37.6,
      "EchoTrainLength": 104,
      "FlipAngle": 68.0,
      "HighBit": 15,
      "ImageOrientationPatient": [0.99863983150641, 0.0489021832216, 0.01808489438773, -0.0483175062667, 0.99833630665284, -0.0314648598747],
      "ImagePositionPatient": [-889.54122967071, -1005.785432211, -27.916751474082],
      "ImageType": [
        "ORIGINAL",
        "PRIMARY",
        "M",
        "MB",
        "ND",
        "MOSAIC"
],
      "ImagedNucleus": "1H",
      "ImagingFrequency": 123.190636,
      "InPlanePhaseEncodingDirection": "COL",
      "MRAcquisitionType": "2D",
      "MagneticFieldStrength": 3.0,
      "Manufacturer": "SIEMENS",
      "ManufacturerModelName": "Prisma",
      "Modality": "MR",
      "NumberOfAverages": 1.0,
      "NumberOfPhaseEncodingSteps": 104,
      "PercentPhaseFieldOfView": 100.0,
      "PercentSampling": 100.0,
      "PerformedProcedureStepStartTime": "122909.687000",
      "PhotometricInterpretation": "MONOCHROME2",
      "PixelBandwidth": 2290.0,
      "PixelRepresentation": 0,
      "PixelSpacing": [2.0, 2.0],
      "ProtocolName": "cmrr_mbepi_s6_2mm_66sl_PA_task-prf",
      "RepetitionTime": 1000.0,
      "Rows": 936,
      "SAR": 0.07116466916526,
      "SamplesPerPixel": 1,
      "ScanOptions": "FS",
      "ScanningSequence": "EP",
      "SequenceName": "epfid2d1_104",
      "SequenceVariant": [
        "SK",
        "SS"
],
      "SeriesDescription": "cmrr_mbepi_s6_2mm_66sl_PA_task-prf",
      "SeriesNumber": 14,
      "SeriesTime": "124530.328000",
      "SliceLocation": -41.194108676066,
      "SliceThickness": 2.0,
      "SmallestImagePixelValue": 0,
      "SoftwareVersions": "syngo MR E11",
      "SpacingBetweenSlices": 1.9999999977799,
      "SpecificCharacterSet": "ISO_IR 100",
      "StudyID": "1",
      "StudyTime": "122909.541000",
      "TransmitCoilName": "Body",
      "VariableFlipAngleFlag": "N",
      "WindowCenterWidthExplanation": "Algo1",
      "dBdt": 0.0},
    "slices": {}
  },
  "time": {
    "samples": {
      "AcquisitionNumber": [1, 2, 3, 4, 5, 6, 7, 8, 9, 10, 11, 12, 13, 14, 15, 16, 17, 18, 19, 20, 21, 22, 23, 24, 25, 26, 27, 28, 29, 30, 31, 32, 33, 34, 35, 36, 37, 38, 39, 40, 41, 42, 43, 44, 45, 46, 47, 48, 49, 50, 51, 52, 53, 54, 55, 56, 57, 58, 59, 60, 61, 62, 63, 64, 65, 66, 67, 68, 69, 70, 71, 72, 73, 74, 75, 76, 77, 78, 79, 80, 81, 82, 83, 84, 85, 86, 87, 88, 89, 90, 91, 92, 93, 94, 95, 96, 97, 98, 99, 100, 101, 102, 103, 104, 105, 106, 107, 108, 109, 110, 111, 112, 113, 114, 115, 116, 117, 118, 119, 120, 121, 122, 123, 124, 125, 126, 127, 128, 129, 130, 131, 132, 133, 134, 135, 136, 137, 138, 139, 140, 141, 142, 143, 144, 145, 146, 147, 148, 149, 150, 151, 152, 153, 154, 155, 156, 157, 158, 159, 160, 161, 162, 163, 164, 165, 166, 167, 168, 169, 170, 171, 172, 173, 174, 175, 176, 177, 178, 179, 180, 181, 182, 183, 184, 185, 186, 187, 188, 189, 190, 191, 192],
      "AcquisitionTime": ["124413.470000", "124414.470000", "124415.470000", "124416.470000", "124417.470000", "124418.470000", "124419.470000", "124420.470000", "124421.470000", "124422.470000", "124423.470000", "124424.470000", "124425.470000", "124426.470000", "124427.470000", "124428.470000", "124429.470000", "124430.470000", "124431.470000", "124432.470000", "124433.470000", "124434.470000", "124435.470000", "124436.470000", "124437.470000", "124438.470000", "124439.470000", "124440.470000", "124441.470000", "124442.470000", "124443.470000", "124444.470000", "124445.470000", "124446.470000", "124447.470000", "124448.470000", "124449.470000", "124450.470000", "124451.470000", "124452.470000", "124453.470000", "124454.470000", "124455.470000", "124456.470000", "124457.470000", "124458.470000", "124459.470000", "124500.470000", "124501.470000", "124502.470000", "124503.470000", "124504.470000", "124505.470000", "124506.470000", "124507.470000", "124508.470000", "124509.470000", "124510.470000", "124511.470000", "124512.470000", "124513.470000", "124514.470000", "124515.470000", "124516.470000", "124517.470000", "124518.470000", "124519.470000", "124520.470000", "124521.470000", "124522.470000", "124523.470000", "124524.470000", "124525.470000", "124526.470000", "124527.470000", "124528.470000", "124529.470000", "124530.470000", "124531.470000", "124532.470000", "124533.470000", "124534.470000", "124535.470000", "124536.470000", "124537.470000", "124538.470000", "124539.470000", "124540.470000", "124541.470000", "124542.470000", "124543.470000", "124544.470000", "124545.470000", "124546.470000", "124547.470000", "124548.470000", "124549.470000", "124550.470000", "124551.470000", "124552.470000", "124553.470000", "124554.470000", "124555.470000", "124556.470000", "124557.470000", "124558.470000", "124559.470000", "124600.470000", "124601.470000", "124602.470000", "124603.470000", "124604.470000", "124605.470000", "124606.470000", "124607.470000", "124608.470000", "124609.470000", "124610.470000", "124611.470000", "124612.470000", "124613.470000", "124614.470000", "124615.470000", "124616.470000", "124617.470000", "124618.470000", "124619.470000", "124620.470000", "124621.470000", "124622.470000", "124623.470000", "124624.470000", "124625.470000", "124626.470000", "124627.470000", "124628.470000", "124629.470000", "124630.470000", "124631.470000", "124632.470000", "124633.470000", "124634.470000", "124635.470000", "124636.470000", "124637.470000", "124638.470000", "124639.470000", "124640.470000", "124641.470000", "124642.470000", "124643.470000", "124644.470000", "124645.470000", "124646.470000", "124647.470000", "124648.470000", "124649.470000", "124650.470000", "124651.470000", "124652.470000", "124653.470000", "124654.470000", "124655.470000", "124656.470000", "124657.470000", "124658.470000", "124659.470000", "124700.470000", "124701.470000", "124702.470000", "124703.470000", "124704.470000", "124705.470000", "124706.470000", "124707.470000", "124708.470000", "124709.470000", "124710.470000", "124711.470000", "124712.470000", "124713.470000", "124714.470000", "124715.470000", "124716.470000", "124717.470000", "124718.470000", "124719.470000", "124720.470000", "124721.470000", "124722.470000", "124723.470000", "124724.470000"],
      "ContentTime": ["124530.331000", "124530.342000", "124530.345000", "124530.348000", "124530.351000", "124530.354000", "124530.357000", "124530.360000", "124530.363000", "124530.366000", "124530.369000", "124530.372000", "124530.375000", "124530.378000", "124530.381000", "124530.384000", "124530.387000", "124530.393000", "124530.396000", "124530.399000", "124530.402000", "124530.405000", "124530.413000", "124530.416000", "124530.418000", "124530.421000", "124530.424000", "124530.427000", "124530.430000", "124530.433000", "124530.436000", "124530.439000", "124530.442000", "124530.445000", "124530.448000", "124530.451000", "124530.454000", "124530.456000", "124530.459000", "124530.462000", "124550.299000", "124550.302000", "124550.305000", "124550.308000", "124550.311000", "124550.315000", "124550.317000", "124550.320000", "124550.331000", "124550.334000", "124550.337000", "124550.340000", "124550.343000", "124550.346000", "124550.353000", "124550.356000", "124550.359000", "124550.365000", "124550.368000", "124550.371000", "124550.374000", "124550.377000", "124550.380000", "124550.383000", "124550.386000", "124550.389000", "124550.392000", "124550.395000", "124550.398000", "124610.299000", "124610.302000", "124610.305000", "124610.308000", "124610.311000", "124610.314000", "124610.317000", "124610.320000", "124610.323000", "124610.333000", "124610.336000", "124610.339000", "124610.342000", "124610.345000", "124610.348000", "124610.351000", "124610.354000", "124610.357000", "124610.360000", "124610.363000", "124610.366000", "124610.369000", "124610.372000", "124610.375000", "124610.378000", "124610.380000", "124610.383000", "124610.386000", "124630.300000", "124630.303000", "124630.306000", "124630.309000", "124630.312000", "124630.315000", "124630.318000", "124630.321000", "124630.324000", "124630.327000", "124630.330000", "124630.333000", "124630.336000", "124630.339000", "124630.342000", "124630.345000", "124630.353000", "124630.356000", "124630.359000", "124630.362000", "124630.365000", "124630.368000", "124630.371000", "124630.374000", "124630.377000", "124630.380000", "124630.383000", "124630.386000", "124630.389000", "124650.300000", "124650.303000", "124650.306000", "124650.309000", "124650.312000", "124650.315000", "124650.318000", "124650.321000", "124650.324000", "124650.327000", "124650.330000", "124650.333000", "124650.336000", "124650.339000", "124650.342000", "124650.345000", "124650.348000", "124650.351000", "124650.354000", "124650.357000", "124650.360000", "124650.363000", "124650.366000", "124650.369000", "124650.372000", "124650.375000", "124650.378000", "124650.381000", "124710.300000", "124710.303000", "124710.306000", "124710.309000", "124710.312000", "124710.315000", "124710.318000", "124710.321000", "124710.324000", "124710.327000", "124710.330000", "124710.333000", "124710.336000", "124710.339000", "124710.342000", "124710.345000", "124710.348000", "124710.351000", "124710.354000", "124710.357000", "124710.360000", "124710.363000", "124726.129000", "124726.133000", "124726.136000", "124726.148000", "124726.151000", "124726.154000", "124726.157000", "124726.160000", "124726.163000", "124726.166000", "124726.169000", "124726.172000", "124726.175000", "124726.178000", "124726.181000", "124726.184000"],
      "InstanceCreationTime": ["124530.331000", "124530.342000", "124530.345000", "124530.348000", "124530.351000", "124530.354000", "124530.357000", "124530.360000", "124530.363000", "124530.366000", "124530.369000", "124530.372000", "124530.375000", "124530.378000", "124530.381000", "124530.384000", "124530.387000", "124530.393000", "124530.396000", "124530.399000", "124530.402000", "124530.405000", "124530.413000", "124530.416000", "124530.418000", "124530.421000", "124530.424000", "124530.427000", "124530.430000", "124530.433000", "124530.436000", "124530.439000", "124530.442000", "124530.445000", "124530.448000", "124530.451000", "124530.454000", "124530.456000", "124530.459000", "124530.462000", "124550.299000", "124550.302000", "124550.305000", "124550.308000", "124550.311000", "124550.315000", "124550.317000", "124550.320000", "124550.331000", "124550.334000", "124550.337000", "124550.340000", "124550.343000", "124550.346000", "124550.353000", "124550.356000", "124550.359000", "124550.365000", "124550.368000", "124550.371000", "124550.374000", "124550.377000", "124550.380000", "124550.383000", "124550.386000", "124550.389000", "124550.392000", "124550.395000", "124550.398000", "124610.299000", "124610.302000", "124610.305000", "124610.308000", "124610.311000", "124610.314000", "124610.317000", "124610.320000", "124610.323000", "124610.333000", "124610.336000", "124610.339000", "124610.342000", "124610.345000", "124610.348000", "124610.351000", "124610.354000", "124610.357000", "124610.360000", "124610.363000", "124610.366000", "124610.369000", "124610.372000", "124610.375000", "124610.378000", "124610.380000", "124610.383000", "124610.386000", "124630.300000", "124630.303000", "124630.306000", "124630.309000", "124630.312000", "124630.315000", "124630.318000", "124630.321000", "124630.324000", "124630.327000", "124630.330000", "124630.333000", "124630.336000", "124630.339000", "124630.342000", "124630.345000", "124630.353000", "124630.356000", "124630.359000", "124630.362000", "124630.365000", "124630.368000", "124630.371000", "124630.374000", "124630.377000", "124630.380000", "124630.383000", "124630.386000", "124630.389000", "124650.300000", "124650.303000", "124650.306000", "124650.309000", "124650.312000", "124650.315000", "124650.318000", "124650.321000", "124650.324000", "124650.327000", "124650.330000", "124650.333000", "124650.336000", "124650.339000", "124650.342000", "124650.345000", "124650.348000", "124650.351000", "124650.354000", "124650.357000", "124650.360000", "124650.363000", "124650.366000", "124650.369000", "124650.372000", "124650.375000", "124650.378000", "124650.381000", "124710.300000", "124710.303000", "124710.306000", "124710.309000", "124710.312000", "124710.315000", "124710.318000", "124710.321000", "124710.324000", "124710.327000", "124710.330000", "124710.333000", "124710.336000", "124710.339000", "124710.342000", "124710.345000", "124710.348000", "124710.351000", "124710.354000", "124710.357000", "124710.360000", "124710.363000", "124726.129000", "124726.133000", "124726.136000", "124726.148000", "124726.151000", "124726.154000", "124726.157000", "124726.160000", "124726.163000", "124726.166000", "124726.169000", "124726.172000", "124726.175000", "124726.178000", "124726.181000", "124726.184000"],
      "InstanceNumber": [1, 2, 3, 4, 5, 6, 7, 8, 9, 10, 11, 12, 13, 14, 15, 16, 17, 18, 19, 20, 21, 22, 23, 24, 25, 26, 27, 28, 29, 30, 31, 32, 33, 34, 35, 36, 37, 38, 39, 40, 41, 42, 43, 44, 45, 46, 47, 48, 49, 50, 51, 52, 53, 54, 55, 56, 57, 58, 59, 60, 61, 62, 63, 64, 65, 66, 67, 68, 69, 70, 71, 72, 73, 74, 75, 76, 77, 78, 79, 80, 81, 82, 83, 84, 85, 86, 87, 88, 89, 90, 91, 92, 93, 94, 95, 96, 97, 98, 99, 100, 101, 102, 103, 104, 105, 106, 107, 108, 109, 110, 111, 112, 113, 114, 115, 116, 117, 118, 119, 120, 121, 122, 123, 124, 125, 126, 127, 128, 129, 130, 131, 132, 133, 134, 135, 136, 137, 138, 139, 140, 141, 142, 143, 144, 145, 146, 147, 148, 149, 150, 151, 152, 153, 154, 155, 156, 157, 158, 159, 160, 161, 162, 163, 164, 165, 166, 167, 168, 169, 170, 171, 172, 173, 174, 175, 176, 177, 178, 179, 180, 181, 182, 183, 184, 185, 186, 187, 188, 189, 190, 191, 192],
      "LargestImagePixelValue": [37585, 37167, 35945, 35313, 35715, 35418, 35080, 35384, 35054, 35233, 35652, 35372, 35046, 36252, 35006, 35010, 35596, 34854, 35340, 35292, 34979, 35352, 35249, 35853, 35172, 35595, 35509, 35165, 35635, 35338, 35221, 35431, 35497, 35070, 34853, 35462, 35229, 35033, 35434, 35272, 35135, 35197, 35634, 35303, 35230, 35272, 35296, 35097, 35223, 34605, 35213, 34786, 35294, 34923, 35322, 34972, 34912, 34833, 35250, 35091, 35155, 34968, 35134, 35496, 35948, 34690, 34931, 35219, 34946, 35311, 35013, 35126, 35062, 34663, 35264, 35542, 35420, 35262, 35183, 35342, 35588, 35875, 35992, 35391, 35207, 35624, 35619, 35515, 35950, 36357, 35404, 35434, 35514, 35385, 35476, 35856, 35753, 35513, 35736, 35719, 35673, 36145, 35841, 35798, 35973, 35426, 35655, 35983, 35499, 35816, 35842, 35703, 35845, 35545, 35247, 35988, 35751, 36043, 35687, 35744, 36164, 36098, 35543, 35860, 35970, 36059, 36279, 35767, 35741, 36005, 35921, 35719, 35871, 35604, 35370, 35567, 35714, 36094, 35839, 35600, 35694, 35569, 35566, 35850, 35964, 35880, 36143, 35875, 35655, 35754, 36188, 35672, 35961, 35625, 35415, 36166, 36110, 35837, 35552, 35395, 35755, 35652, 35935, 35898, 36055, 36144, 36491, 36056, 36347, 36127, 36178, 36415, 36363, 36077, 36082, 35996, 36214, 35959, 35701, 35909, 36219, 36389, 35913, 36252, 36511, 35868, 35669, 36013, 35680, 35976, 35889, 35899],
      "WindowCenter": [9975.0, 9948.0, 9919.0, 9911.0, 9912.0, 9906.0, 9906.0, 9904.0, 9893.0, 9890.0, 9881.0, 9878.0, 9871.0, 9881.0, 9867.0, 9871.0, 9876.0, 9871.0, 9884.0, 9888.0, 9895.0, 9903.0, 9911.0, 9911.0, 9900.0, 9896.0, 9888.0, 9888.0, 9894.0, 9891.0, 9898.0, 9905.0, 9911.0, 9908.0, 9901.0, 9911.0, 9908.0, 9910.0, 9911.0, 9912.0, 9915.0, 9913.0, 9920.0, 9915.0, 9908.0, 9909.0, 9907.0, 9906.0, 9892.0, 9891.0, 9892.0, 9900.0, 9915.0, 9918.0, 9909.0, 9909.0, 9911.0, 9903.0, 9906.0, 9899.0, 9905.0, 9907.0, 9906.0, 9917.0, 9912.0, 9895.0, 9897.0, 9896.0, 9890.0, 9895.0, 9898.0, 9903.0, 9914.0, 9905.0, 9916.0, 9921.0, 9921.0, 9907.0, 9908.0, 9906.0, 9906.0, 9911.0, 9912.0, 9905.0, 9905.0, 9910.0, 9916.0, 9919.0, 9919.0, 9912.0, 9893.0, 9891.0, 9883.0, 9888.0, 9896.0, 9909.0, 9905.0, 9902.0, 9912.0, 9905.0, 9893.0, 9897.0, 9894.0, 9895.0, 9896.0, 9896.0, 9889.0, 9896.0, 9890.0, 9887.0, 9888.0, 9894.0, 9902.0, 9911.0, 9905.0, 9910.0, 9912.0, 9917.0, 9910.0, 9905.0, 9910.0, 9911.0, 9906.0, 9911.0, 9920.0, 9929.0, 9929.0, 9923.0, 9908.0, 9898.0, 9890.0, 9881.0, 9886.0, 9875.0, 9890.0, 9907.0, 9922.0, 9922.0, 9924.0, 9915.0, 9907.0, 9895.0, 9893.0, 9893.0, 9899.0, 9901.0, 9898.0, 9906.0, 9904.0, 9917.0, 9923.0, 9917.0, 9924.0, 9919.0, 9918.0, 9927.0, 9928.0, 9923.0, 9931.0, 9934.0, 9943.0, 9942.0, 9952.0, 9946.0, 9946.0, 9930.0, 9920.0, 9914.0, 9911.0, 9905.0, 9910.0, 9917.0, 9918.0, 9921.0, 9928.0, 9916.0, 9921.0, 9916.0, 9915.0, 9916.0, 9920.0, 9918.0, 9919.0, 9926.0, 9928.0, 9921.0, 9931.0, 9938.0, 9945.0, 9947.0, 9934.0, 9926.0],
      "WindowWidth": [21444.0, 21351.0, 21276.0, 21249.0, 21241.0, 21227.0, 21225.0, 21216.0, 21191.0, 21181.0, 21158.0, 21148.0, 21133.0, 21151.0, 21127.0, 21134.0, 21144.0, 21138.0, 21164.0, 21176.0, 21192.0, 21213.0, 21231.0, 21230.0, 21209.0, 21197.0, 21178.0, 21181.0, 21193.0, 21190.0, 21205.0, 21223.0, 21236.0, 21232.0, 21217.0, 21233.0, 21232.0, 21239.0, 21233.0, 21236.0, 21243.0, 21238.0, 21255.0, 21245.0, 21231.0, 21233.0, 21227.0, 21226.0, 21194.0, 21199.0, 21191.0, 21212.0, 21244.0, 21253.0, 21231.0, 21231.0, 21236.0, 21220.0, 21224.0, 21204.0, 21218.0, 21225.0, 21221.0, 21243.0, 21234.0, 21198.0, 21199.0, 21196.0, 21185.0, 21194.0, 21207.0, 21214.0, 21245.0, 21228.0, 21249.0, 21258.0, 21260.0, 21228.0, 21231.0, 21223.0, 21224.0, 21234.0, 21237.0, 21218.0, 21221.0, 21228.0, 21241.0, 21249.0, 21246.0, 21230.0, 21190.0, 21188.0, 21170.0, 21178.0, 21197.0, 21224.0, 21219.0, 21214.0, 21233.0, 21217.0, 21191.0, 21199.0, 21190.0, 21195.0, 21198.0, 21195.0, 21180.0, 21193.0, 21181.0, 21173.0, 21177.0, 21191.0, 21208.0, 21233.0, 21219.0, 21226.0, 21230.0, 21237.0, 21225.0, 21216.0, 21228.0, 21231.0, 21223.0, 21232.0, 21257.0, 21277.0, 21277.0, 21265.0, 21225.0, 21200.0, 21182.0, 21159.0, 21168.0, 21149.0, 21183.0, 21225.0, 21260.0, 21260.0, 21264.0, 21241.0, 21224.0, 21198.0, 21194.0, 21191.0, 21206.0, 21212.0, 21203.0, 21227.0, 21224.0, 21253.0, 21262.0, 21250.0, 21265.0, 21255.0, 21253.0, 21266.0, 21272.0, 21262.0, 21280.0, 21293.0, 21305.0, 21310.0, 21328.0, 21311.0, 21309.0, 21273.0, 21248.0, 21236.0, 21228.0, 21214.0, 21226.0, 21240.0, 21246.0, 21254.0, 21274.0, 21246.0, 21258.0, 21250.0, 21246.0, 21247.0, 21255.0, 21248.0, 21251.0, 21267.0, 21274.0, 21256.0, 21284.0, 21298.0, 21313.0, 21320.0, 21291.0, 21272.0]
    },
    "slices": {}
  },
  "NumberOfVolumes": 192
}