{
  "AcquisitionMatrixPE": 104,
  "AcquisitionNumber": 1,
  "AcquisitionTime": "13:01:31.512500",
  "BandwidthPerPixelPhaseEncode": 16.297,
  "BaseResolution": 104,
  "BodyPartExamined": "BRAIN",
  "ConsistencyInfo": "N4_VE11C_LATEST_20160120",
  "ConversionSoftware": "dcm2niix",
  "ConversionSoftwareVersion": "v1.0.20190902",
  "DerivedVendorReportedEchoSpacing": 0.000590009,
  "DeviceSerialNumber": "166018",
  "DwellTime": 2.1e-06,
  "EchoTime": 0.0376,
  "EchoTrainLength": 104,
  "EffectiveEchoSpacing": 0.000590009,
  "FlipAngle": 68,
  "ImageComments": "Unaliased_MB6_PE3_LB",
  "ImageOrientationPatientDICOM": [0.99864, 0.0489022, 0.0180849, -0.0483175, 0.998336, -0.0314649],
  "ImageType": [
    "ORIGINAL",
    "PRIMARY",
    "M",
    "MB",
    "ND",
    "MOSAIC"
],
  "ImagingFrequency": 123.191,
  "InPlanePhaseEncodingDirectionDICOM": "COL",
  "InstitutionAddress": "Washington_Place_6_NYC_NYC_US_10003",
  "InstitutionName": "NYU_Center_for_Brain_Imaging",
  "InstitutionalDepartmentName": "Department",
  "MRAcquisitionType": "2D",
  "MagneticFieldStrength": 3,
  "Manufacturer": "Siemens",
  "ManufacturersModelName": "Prisma",
  "Modality": "MR",
  "MultibandAccelerationFactor": 6,
  "PartialFourier": 1,
  "PatientPosition": "HFS",
  "PercentPhaseFOV": 100,
  "PhaseEncodingDirection": "j",
  "PhaseEncodingSteps": 104,
  "PhaseResolution": 1,
  "PixelBandwidth": 2290,
  "ProcedureStepDescription": "Investigators_Winawer",
  "ProtocolName": "cmrr_mbepi_s6_2mm_66sl_PA_task-prf",
  "PulseSequenceDetails": "%CustomerSeq%_cmrr_mbep2d_bold",
  "ReceiveCoilActiveElements": "HC1-7",
  "ReceiveCoilName": "HeadNeck_64",
  "ReconMatrixPE": 104,
  "RepetitionTime": 1,
  "SAR": 0.0711647,
  "ScanOptions": "FS",
  "ScanningSequence": "EP",
  "SequenceName": "epfid2d1_104",
  "SequenceVariant": "SK_SS",
  "SeriesDescription": "cmrr_mbepi_s6_2mm_66sl_PA_task-prf",
  "SeriesNumber": 22,
  "ShimSetting": [279, -12679, -8483, 321, 13, -314, -99, 15],
  "SliceThickness": 2,
  "SliceTiming": [0, 0.535, 0.09, 0.625, 0.18, 0.7125, 0.2675, 0.8025, 0.3575, 0.8925, 0.4475, 0, 0.535, 0.09, 0.625, 0.18, 0.7125, 0.2675, 0.8025, 0.3575, 0.8925, 0.4475, 0, 0.535, 0.09, 0.625, 0.18, 0.7125, 0.2675, 0.8025, 0.3575, 0.8925, 0.4475, 0, 0.535, 0.09, 0.625, 0.18, 0.7125, 0.2675, 0.8025, 0.3575, 0.8925, 0.4475, 0, 0.535, 0.09, 0.625, 0.18, 0.7125, 0.2675, 0.8025, 0.3575, 0.8925, 0.4475, 0, 0.535, 0.09, 0.625, 0.18, 0.7125, 0.2675, 0.8025, 0.3575, 0.8925, 0.4475],
  "SoftwareVersions": "syngo_MR_E11",
  "SpacingBetweenSlices": 2,
  "StationName": "AWP166018",
  "TaskName": "prf",
  "TotalReadoutTime": 0.060771,
  "TxRefAmp": 205.422,
  "VendorReportedEchoSpacing": 0.00059,
  "WipMemBlock": "4a894a66-c1da-45a3-b556-7b1a654cdc51||Sequence: R016 ve11c/master r/8780670; Nov 27 2017 15:05:12 by eja",
  "dcmmeta_affine": [
    [-1.9972796440124512, -0.09663501381874084, 0.03918701410293579, 108.82646179199219],
    [-0.09780436754226685, 1.9966726303100586, -0.06109648942947388, -71.17427062988281],
    [0.03616978973150253, 0.06292971968650818, 1.9986824989318848, -45.530643463134766],
    [0.0, 0.0, 0.0, 1.0]
],
  "dcmmeta_reorient_transform": [
    [0.0, -1.0, 0.0, 103.0],
    [1.0, 0.0, 0.0, 0.0],
    [0.0, 0.0, 1.0, 0.0],
    [0.0, 0.0, 0.0, 1.0]
],
  "dcmmeta_shape": [104, 104, 66, 192],
  "dcmmeta_slice_dim": 2,
  "dcmmeta_version": 0.6,
  "global": {
    "const": {
      "AccessionNumber": "kr26nbg7",
      "AcquisitionMatrix": [104, 0, 0, 104],
      "AngioFlag": "N",
      "BitsAllocated": 16,
      "BitsStored": 16,
      "BodyPartExamined": "BRAIN",
      "Columns": 936,
      "EchoNumbers": 1,
      "EchoTime": 37.6,
      "EchoTrainLength": 104,
      "FlipAngle": 68.0,
      "HighBit": 15,
      "ImageOrientationPatient": [0.99863983150641, 0.0489021832216, 0.01808489438773, -0.0483175062667, 0.99833630665284, -0.0314648598747],
      "ImagePositionPatient": [-889.54122967071, -1005.785432211, -27.916751474082],
      "ImageType": [
        "ORIGINAL",
        "PRIMARY",
        "M",
        "MB",
        "ND",
        "MOSAIC"
],
      "ImagedNucleus": "1H",
      "ImagingFrequency": 123.190636,
      "InPlanePhaseEncodingDirection": "COL",
      "MRAcquisitionType": "2D",
      "MagneticFieldStrength": 3.0,
      "Manufacturer": "SIEMENS",
      "ManufacturerModelName": "Prisma",
      "Modality": "MR",
      "NumberOfAverages": 1.0,
      "NumberOfPhaseEncodingSteps": 104,
      "PercentPhaseFieldOfView": 100.0,
      "PercentSampling": 100.0,
      "PerformedProcedureStepStartTime": "122909.687000",
      "PhotometricInterpretation": "MONOCHROME2",
      "PixelBandwidth": 2290.0,
      "PixelRepresentation": 0,
      "PixelSpacing": [2.0, 2.0],
      "ProtocolName": "cmrr_mbepi_s6_2mm_66sl_PA_task-prf",
      "RepetitionTime": 1000.0,
      "Rows": 936,
      "SAR": 0.07116466916526,
      "SamplesPerPixel": 1,
      "ScanOptions": "FS",
      "ScanningSequence": "EP",
      "SequenceName": "epfid2d1_104",
      "SequenceVariant": [
        "SK",
        "SS"
],
      "SeriesDescription": "cmrr_mbepi_s6_2mm_66sl_PA_task-prf",
      "SeriesNumber": 22,
      "SeriesTime": "130250.188000",
      "SliceLocation": -41.194108676066,
      "SliceThickness": 2.0,
      "SmallestImagePixelValue": 0,
      "SoftwareVersions": "syngo MR E11",
      "SpacingBetweenSlices": 1.9999999977799,
      "SpecificCharacterSet": "ISO_IR 100",
      "StudyID": "1",
      "StudyTime": "122909.541000",
      "TransmitCoilName": "Body",
      "VariableFlipAngleFlag": "N",
      "WindowCenterWidthExplanation": "Algo1",
      "dBdt": 0.0},
    "slices": {}
  },
  "time": {
    "samples": {
      "AcquisitionNumber": [1, 2, 3, 4, 5, 6, 7, 8, 9, 10, 11, 12, 13, 14, 15, 16, 17, 18, 19, 20, 21, 22, 23, 24, 25, 26, 27, 28, 29, 30, 31, 32, 33, 34, 35, 36, 37, 38, 39, 40, 41, 42, 43, 44, 45, 46, 47, 48, 49, 50, 51, 52, 53, 54, 55, 56, 57, 58, 59, 60, 61, 62, 63, 64, 65, 66, 67, 68, 69, 70, 71, 72, 73, 74, 75, 76, 77, 78, 79, 80, 81, 82, 83, 84, 85, 86, 87, 88, 89, 90, 91, 92, 93, 94, 95, 96, 97, 98, 99, 100, 101, 102, 103, 104, 105, 106, 107, 108, 109, 110, 111, 112, 113, 114, 115, 116, 117, 118, 119, 120, 121, 122, 123, 124, 125, 126, 127, 128, 129, 130, 131, 132, 133, 134, 135, 136, 137, 138, 139, 140, 141, 142, 143, 144, 145, 146, 147, 148, 149, 150, 151, 152, 153, 154, 155, 156, 157, 158, 159, 160, 161, 162, 163, 164, 165, 166, 167, 168, 169, 170, 171, 172, 173, 174, 175, 176, 177, 178, 179, 180, 181, 182, 183, 184, 185, 186, 187, 188, 189, 190, 191, 192],
      "AcquisitionTime": ["130131.512500", "130132.512500", "130133.512500", "130134.512500", "130135.512500", "130136.512500", "130137.512500", "130138.512500", "130139.512500", "130140.512500", "130141.512500", "130142.512500", "130143.512500", "130144.512500", "130145.512500", "130146.512500", "130147.512500", "130148.512500", "130149.512500", "130150.512500", "130151.512500", "130152.512500", "130153.512500", "130154.512500", "130155.512500", "130156.512500", "130157.512500", "130158.512500", "130159.512500", "130200.512500", "130201.512500", "130202.512500", "130203.512500", "130204.512500", "130205.512500", "130206.512500", "130207.512500", "130208.512500", "130209.512500", "130210.512500", "130211.512500", "130212.512500", "130213.512500", "130214.512500", "130215.512500", "130216.512500", "130217.512500", "130218.512500", "130219.512500", "130220.512500", "130221.512500", "130222.512500", "130223.512500", "130224.512500", "130225.512500", "130226.512500", "130227.512500", "130228.512500", "130229.512500", "130230.512500", "130231.512500", "130232.512500", "130233.512500", "130234.512500", "130235.512500", "130236.512500", "130237.512500", "130238.512500", "130239.512500", "130240.512500", "130241.512500", "130242.512500", "130243.512500", "130244.512500", "130245.512500", "130246.512500", "130247.512500", "130248.512500", "130249.512500", "130250.512500", "130251.512500", "130252.512500", "130253.512500", "130254.512500", "130255.512500", "130256.512500", "130257.512500", "130258.512500", "130259.512500", "130300.512500", "130301.512500", "130302.512500", "130303.512500", "130304.512500", "130305.512500", "130306.512500", "130307.512500", "130308.512500", "130309.512500", "130310.512500", "130311.512500", "130312.512500", "130313.512500", "130314.512500", "130315.512500", "130316.512500", "130317.512500", "130318.512500", "130319.512500", "130320.512500", "130321.512500", "130322.512500", "130323.512500", "130324.512500", "130325.512500", "130326.512500", "130327.512500", "130328.512500", "130329.512500", "130330.512500", "130331.512500", "130332.512500", "130333.512500", "130334.512500", "130335.512500", "130336.512500", "130337.512500", "130338.512500", "130339.512500", "130340.512500", "130341.512500", "130342.512500", "130343.512500", "130344.512500", "130345.512500", "130346.512500", "130347.512500", "130348.512500", "130349.512500", "130350.512500", "130351.512500", "130352.512500", "130353.512500", "130354.512500", "130355.512500", "130356.512500", "130357.512500", "130358.512500", "130359.512500", "130400.512500", "130401.512500", "130402.512500", "130403.512500", "130404.512500", "130405.512500", "130406.512500", "130407.512500", "130408.512500", "130409.512500", "130410.512500", "130411.512500", "130412.512500", "130413.512500", "130414.512500", "130415.512500", "130416.512500", "130417.512500", "130418.512500", "130419.512500", "130420.512500", "130421.512500", "130422.512500", "130423.512500", "130424.512500", "130425.512500", "130426.512500", "130427.512500", "130428.512500", "130429.512500", "130430.512500", "130431.512500", "130432.512500", "130433.512500", "130434.512500", "130435.512500", "130436.512500", "130437.512500", "130438.512500", "130439.512500", "130440.512500", "130441.512500", "130442.512500"],
      "ContentTime": ["130250.191000", "130250.195000", "130250.198000", "130250.201000", "130250.204000", "130250.207000", "130250.210000", "130250.213000", "130250.216000", "130250.219000", "130250.226000", "130250.229000", "130250.232000", "130250.235000", "130250.238000", "130250.241000", "130250.244000", "130250.247000", "130250.250000", "130250.253000", "130250.256000", "130250.259000", "130250.262000", "130250.265000", "130250.268000", "130250.271000", "130250.274000", "130250.277000", "130250.280000", "130250.283000", "130250.286000", "130250.288000", "130250.291000", "130250.294000", "130250.297000", "130250.300000", "130250.303000", "130250.306000", "130250.309000", "130250.312000", "130250.315000", "130250.318000", "130310.152000", "130310.155000", "130310.158000", "130310.161000", "130310.164000", "130310.167000", "130310.170000", "130310.173000", "130310.176000", "130310.179000", "130310.190000", "130310.193000", "130310.196000", "130310.199000", "130310.202000", "130310.205000", "130310.208000", "130310.210000", "130310.213000", "130310.216000", "130310.219000", "130310.222000", "130310.225000", "130310.228000", "130310.231000", "130310.234000", "130310.237000", "130310.240000", "130330.152000", "130330.155000", "130330.158000", "130330.161000", "130330.164000", "130330.168000", "130330.170000", "130330.173000", "130330.176000", "130330.179000", "130330.182000", "130330.185000", "130330.188000", "130330.191000", "130330.194000", "130330.197000", "130330.200000", "130330.203000", "130330.206000", "130330.209000", "130330.212000", "130330.215000", "130330.218000", "130330.221000", "130330.223000", "130330.226000", "130330.229000", "130330.232000", "130350.152000", "130350.155000", "130350.158000", "130350.161000", "130350.164000", "130350.167000", "130350.170000", "130350.173000", "130350.176000", "130350.179000", "130350.182000", "130350.185000", "130350.188000", "130350.191000", "130350.194000", "130350.197000", "130350.200000", "130350.203000", "130350.206000", "130350.208000", "130350.211000", "130350.214000", "130350.217000", "130350.220000", "130350.223000", "130350.226000", "130350.229000", "130350.232000", "130350.235000", "130410.152000", "130410.155000", "130410.158000", "130410.161000", "130410.164000", "130410.167000", "130410.170000", "130410.173000", "130410.176000", "130410.179000", "130410.182000", "130410.185000", "130410.188000", "130410.191000", "130410.194000", "130410.197000", "130410.200000", "130410.202000", "130410.205000", "130410.208000", "130410.211000", "130410.214000", "130410.217000", "130410.220000", "130410.223000", "130410.226000", "130410.229000", "130410.232000", "130430.151000", "130430.154000", "130430.157000", "130430.160000", "130430.163000", "130430.166000", "130430.169000", "130430.172000", "130430.175000", "130430.178000", "130430.181000", "130430.184000", "130430.187000", "130430.190000", "130430.193000", "130430.196000", "130430.199000", "130430.202000", "130430.205000", "130430.208000", "130430.211000", "130430.214000", "130430.217000", "130443.844000", "130443.850000", "130443.853000", "130443.856000", "130443.859000", "130443.862000", "130443.866000", "130443.870000", "130443.873000", "130443.876000", "130443.882000", "130443.887000", "130443.891000", "130443.894000"],
      "InstanceCreationTime": ["130250.191000", "130250.195000", "130250.198000", "130250.201000", "130250.204000", "130250.207000", "130250.210000", "130250.213000", "130250.216000", "130250.219000", "130250.226000", "130250.229000", "130250.232000", "130250.235000", "130250.238000", "130250.241000", "130250.244000", "130250.247000", "130250.250000", "130250.253000", "130250.256000", "130250.259000", "130250.262000", "130250.265000", "130250.268000", "130250.271000", "130250.274000", "130250.277000", "130250.280000", "130250.283000", "130250.286000", "130250.288000", "130250.291000", "130250.294000", "130250.297000", "130250.300000", "130250.303000", "130250.306000", "130250.309000", "130250.312000", "130250.315000", "130250.318000", "130310.152000", "130310.155000", "130310.158000", "130310.161000", "130310.164000", "130310.167000", "130310.170000", "130310.173000", "130310.176000", "130310.179000", "130310.190000", "130310.193000", "130310.196000", "130310.199000", "130310.202000", "130310.205000", "130310.208000", "130310.210000", "130310.213000", "130310.216000", "130310.219000", "130310.222000", "130310.225000", "130310.228000", "130310.231000", "130310.234000", "130310.237000", "130310.240000", "130330.152000", "130330.155000", "130330.158000", "130330.161000", "130330.164000", "130330.168000", "130330.170000", "130330.173000", "130330.176000", "130330.179000", "130330.182000", "130330.185000", "130330.188000", "130330.191000", "130330.194000", "130330.197000", "130330.200000", "130330.203000", "130330.206000", "130330.209000", "130330.212000", "130330.215000", "130330.218000", "130330.221000", "130330.223000", "130330.226000", "130330.229000", "130330.232000", "130350.152000", "130350.155000", "130350.158000", "130350.161000", "130350.164000", "130350.167000", "130350.170000", "130350.173000", "130350.176000", "130350.179000", "130350.182000", "130350.185000", "130350.188000", "130350.191000", "130350.194000", "130350.197000", "130350.200000", "130350.203000", "130350.206000", "130350.208000", "130350.211000", "130350.214000", "130350.217000", "130350.220000", "130350.223000", "130350.226000", "130350.229000", "130350.232000", "130350.235000", "130410.152000", "130410.155000", "130410.158000", "130410.161000", "130410.164000", "130410.167000", "130410.170000", "130410.173000", "130410.176000", "130410.179000", "130410.182000", "130410.185000", "130410.188000", "130410.191000", "130410.194000", "130410.197000", "130410.200000", "130410.202000", "130410.205000", "130410.208000", "130410.211000", "130410.214000", "130410.217000", "130410.220000", "130410.223000", "130410.226000", "130410.229000", "130410.232000", "130430.151000", "130430.154000", "130430.157000", "130430.160000", "130430.163000", "130430.166000", "130430.169000", "130430.172000", "130430.175000", "130430.178000", "130430.181000", "130430.184000", "130430.187000", "130430.190000", "130430.193000", "130430.196000", "130430.199000", "130430.202000", "130430.205000", "130430.208000", "130430.211000", "130430.214000", "130430.217000", "130443.844000", "130443.850000", "130443.853000", "130443.856000", "130443.859000", "130443.862000", "130443.866000", "130443.870000", "130443.873000", "130443.876000", "130443.882000", "130443.887000", "130443.891000", "130443.894000"],
      "InstanceNumber": [1, 2, 3, 4, 5, 6, 7, 8, 9, 10, 11, 12, 13, 14, 15, 16, 17, 18, 19, 20, 21, 22, 23, 24, 25, 26, 27, 28, 29, 30, 31, 32, 33, 34, 35, 36, 37, 38, 39, 40, 41, 42, 43, 44, 45, 46, 47, 48, 49, 50, 51, 52, 53, 54, 55, 56, 57, 58, 59, 60, 61, 62, 63, 64, 65, 66, 67, 68, 69, 70, 71, 72, 73, 74, 75, 76, 77, 78, 79, 80, 81, 82, 83, 84, 85, 86, 87, 88, 89, 90, 91, 92, 93, 94, 95, 96, 97, 98, 99, 100, 101, 102, 103, 104, 105, 106, 107, 108, 109, 110, 111, 112, 113, 114, 115, 116, 117, 118, 119, 120, 121, 122, 123, 124, 125, 126, 127, 128, 129, 130, 131, 132, 133, 134, 135, 136, 137, 138, 139, 140, 141, 142, 143, 144, 145, 146, 147, 148, 149, 150, 151, 152, 153, 154, 155, 156, 157, 158, 159, 160, 161, 162, 163, 164, 165, 166, 167, 168, 169, 170, 171, 172, 173, 174, 175, 176, 177, 178, 179, 180, 181, 182, 183, 184, 185, 186, 187, 188, 189, 190, 191, 192],
      "LargestImagePixelValue": [37975, 37274, 36227, 36483, 36480, 35459, 35438, 36192, 35056, 35187, 35703, 34970, 35112, 35857, 36032, 35166, 35611, 36264, 36401, 36178, 36307, 36343, 35892, 35181, 35857, 35795, 35372, 35461, 35960, 35398, 35594, 35634, 35672, 35742, 36343, 36245, 35895, 36293, 35346, 35725, 36293, 35699, 35897, 36091, 35642, 36135, 35982, 35597, 35865, 35656, 35591, 35694, 35988, 35663, 35362, 36117, 36135, 35440, 35352, 35176, 34533, 35165, 34714, 34924, 35956, 35223, 34268, 34668, 34569, 35136, 35257, 35307, 35136, 35690, 35607, 35592, 35551, 35589, 35261, 35635, 35504, 35072, 35204, 35348, 35167, 35051, 34687, 35149, 35526, 34797, 35235, 35259, 35179, 35123, 35445, 35211, 35079, 34645, 34408, 34969, 35318, 34790, 35515, 34832, 34682, 35539, 35113, 34287, 35323, 35030, 34775, 35250, 35254, 34732, 35112, 35103, 34973, 35017, 35226, 34442, 35320, 35433, 35120, 34889, 35105, 34630, 34712, 35117, 35149, 34203, 34973, 34753, 34766, 34554, 34772, 35195, 35520, 35715, 35623, 35463, 35169, 35252, 35257, 35494, 35448, 34950, 35026, 35637, 35380, 34918, 35617, 35312, 34804, 35642, 35184, 34535, 35699, 35285, 34767, 35674, 35495, 35378, 36021, 35058, 35040, 35312, 35563, 34854, 35726, 35164, 34998, 35729, 35872, 35434, 35833, 36024, 35406, 35299, 35690, 35145, 35400, 35557, 35594, 35339, 35413, 35318, 35477, 36271, 35682, 35282, 35684, 35655],
      "WindowCenter": [10010.0, 9969.0, 9930.0, 9915.0, 9904.0, 9885.0, 9888.0, 9901.0, 9890.0, 9892.0, 9906.0, 9901.0, 9915.0, 9927.0, 9934.0, 9917.0, 9915.0, 9917.0, 9916.0, 9902.0, 9900.0, 9900.0, 9888.0, 9888.0, 9905.0, 9910.0, 9906.0, 9900.0, 9906.0, 9905.0, 9901.0, 9900.0, 9900.0, 9903.0, 9910.0, 9911.0, 9912.0, 9926.0, 9917.0, 9928.0, 9927.0, 9927.0, 9916.0, 9920.0, 9917.0, 9935.0, 9938.0, 9932.0, 9929.0, 9917.0, 9909.0, 9912.0, 9920.0, 9921.0, 9925.0, 9937.0, 9937.0, 9926.0, 9927.0, 9920.0, 9908.0, 9918.0, 9907.0, 9912.0, 9937.0, 9926.0, 9908.0, 9911.0, 9903.0, 9906.0, 9899.0, 9892.0, 9893.0, 9903.0, 9899.0, 9905.0, 9905.0, 9898.0, 9891.0, 9904.0, 9902.0, 9898.0, 9903.0, 9906.0, 9914.0, 9907.0, 9902.0, 9914.0, 9912.0, 9907.0, 9907.0, 9907.0, 9907.0, 9915.0, 9917.0, 9915.0, 9923.0, 9905.0, 9897.0, 9907.0, 9900.0, 9895.0, 9911.0, 9901.0, 9896.0, 9913.0, 9914.0, 9905.0, 9915.0, 9915.0, 9910.0, 9914.0, 9921.0, 9918.0, 9922.0, 9922.0, 9918.0, 9910.0, 9908.0, 9889.0, 9891.0, 9890.0, 9885.0, 9884.0, 9890.0, 9894.0, 9886.0, 9899.0, 9898.0, 9889.0, 9900.0, 9907.0, 9908.0, 9903.0, 9911.0, 9916.0, 9920.0, 9925.0, 9915.0, 9915.0, 9916.0, 9913.0, 9908.0, 9913.0, 9919.0, 9909.0, 9909.0, 9913.0, 9913.0, 9909.0, 9934.0, 9923.0, 9917.0, 9923.0, 9916.0, 9904.0, 9918.0, 9904.0, 9892.0, 9910.0, 9910.0, 9923.0, 9945.0, 9930.0, 9922.0, 9920.0, 9906.0, 9902.0, 9902.0, 9896.0, 9894.0, 9902.0, 9902.0, 9896.0, 9900.0, 9907.0, 9902.0, 9897.0, 9910.0, 9900.0, 9896.0, 9894.0, 9894.0, 9894.0, 9902.0, 9904.0, 9918.0, 9934.0, 9928.0, 9909.0, 9920.0, 9912.0],
      "WindowWidth": [21521.0, 21398.0, 21295.0, 21243.0, 21214.0, 21172.0, 21175.0, 21201.0, 21184.0, 21187.0, 21217.0, 21210.0, 21238.0, 21266.0, 21280.0, 21247.0, 21240.0, 21239.0, 21233.0, 21204.0, 21200.0, 21200.0, 21178.0, 21180.0, 21218.0, 21230.0, 21223.0, 21209.0, 21223.0, 21219.0, 21211.0, 21209.0, 21209.0, 21211.0, 21226.0, 21227.0, 21237.0, 21264.0, 21250.0, 21269.0, 21269.0, 21267.0, 21246.0, 21254.0, 21248.0, 21287.0, 21295.0, 21280.0, 21271.0, 21247.0, 21229.0, 21234.0, 21252.0, 21257.0, 21269.0, 21292.0, 21293.0, 21274.0, 21275.0, 21257.0, 21236.0, 21253.0, 21232.0, 21239.0, 21292.0, 21271.0, 21235.0, 21236.0, 21217.0, 21220.0, 21202.0, 21188.0, 21193.0, 21211.0, 21206.0, 21221.0, 21217.0, 21204.0, 21188.0, 21217.0, 21210.0, 21204.0, 21215.0, 21223.0, 21242.0, 21227.0, 21218.0, 21239.0, 21234.0, 21223.0, 21224.0, 21226.0, 21226.0, 21244.0, 21250.0, 21243.0, 21260.0, 21224.0, 21206.0, 21226.0, 21211.0, 21203.0, 21230.0, 21212.0, 21205.0, 21239.0, 21243.0, 21226.0, 21243.0, 21246.0, 21235.0, 21241.0, 21257.0, 21253.0, 21259.0, 21258.0, 21252.0, 21232.0, 21226.0, 21187.0, 21187.0, 21183.0, 21174.0, 21176.0, 21185.0, 21199.0, 21179.0, 21206.0, 21202.0, 21187.0, 21208.0, 21224.0, 21230.0, 21220.0, 21237.0, 21248.0, 21253.0, 21262.0, 21244.0, 21244.0, 21249.0, 21240.0, 21231.0, 21236.0, 21252.0, 21230.0, 21234.0, 21237.0, 21240.0, 21234.0, 21288.0, 21265.0, 21251.0, 21261.0, 21246.0, 21220.0, 21242.0, 21215.0, 21190.0, 21227.0, 21229.0, 21257.0, 21307.0, 21278.0, 21258.0, 21252.0, 21220.0, 21210.0, 21208.0, 21196.0, 21198.0, 21208.0, 21208.0, 21195.0, 21203.0, 21218.0, 21210.0, 21202.0, 21227.0, 21209.0, 21195.0, 21192.0, 21189.0, 21189.0, 21206.0, 21214.0, 21243.0, 21283.0, 21269.0, 21233.0, 21254.0, 21234.0]
    },
    "slices": {}
  },
  "NumberOfVolumes": 192
}