{
  "AcquisitionMatrixPE": 104,
  "AcquisitionNumber": 1,
  "AcquisitionTime": "12:57:7.497500",
  "BandwidthPerPixelPhaseEncode": 16.297,
  "BaseResolution": 104,
  "BodyPartExamined": "BRAIN",
  "ConsistencyInfo": "N4_VE11C_LATEST_20160120",
  "ConversionSoftware": "dcm2niix",
  "ConversionSoftwareVersion": "v1.0.20190902",
  "DerivedVendorReportedEchoSpacing": 0.000590009,
  "DeviceSerialNumber": "166018",
  "DwellTime": 2.1e-06,
  "EchoTime": 0.0376,
  "EchoTrainLength": 104,
  "EffectiveEchoSpacing": 0.000590009,
  "FlipAngle": 68,
  "ImageComments": "Unaliased_MB6_PE3_LB",
  "ImageOrientationPatientDICOM": [0.99864, 0.0489022, 0.0180849, -0.0483175, 0.998336, -0.0314649],
  "ImageType": [
    "ORIGINAL",
    "PRIMARY",
    "M",
    "MB",
    "ND",
    "MOSAIC"
],
  "ImagingFrequency": 123.191,
  "InPlanePhaseEncodingDirectionDICOM": "COL",
  "InstitutionAddress": "Washington_Place_6_NYC_NYC_US_10003",
  "InstitutionName": "NYU_Center_for_Brain_Imaging",
  "InstitutionalDepartmentName": "Department",
  "MRAcquisitionType": "2D",
  "MagneticFieldStrength": 3,
  "Manufacturer": "Siemens",
  "ManufacturersModelName": "Prisma",
  "Modality": "MR",
  "MultibandAccelerationFactor": 6,
  "PartialFourier": 1,
  "PatientPosition": "HFS",
  "PercentPhaseFOV": 100,
  "PhaseEncodingDirection": "j",
  "PhaseEncodingSteps": 104,
  "PhaseResolution": 1,
  "PixelBandwidth": 2290,
  "ProcedureStepDescription": "Investigators_Winawer",
  "ProtocolName": "cmrr_mbepi_s6_2mm_66sl_PA_task-prf",
  "PulseSequenceDetails": "%CustomerSeq%_cmrr_mbep2d_bold",
  "ReceiveCoilActiveElements": "HC1-7",
  "ReceiveCoilName": "HeadNeck_64",
  "ReconMatrixPE": 104,
  "RepetitionTime": 1,
  "SAR": 0.0711647,
  "ScanOptions": "FS",
  "ScanningSequence": "EP",
  "SequenceName": "epfid2d1_104",
  "SequenceVariant": "SK_SS",
  "SeriesDescription": "cmrr_mbepi_s6_2mm_66sl_PA_task-prf",
  "SeriesNumber": 20,
  "ShimSetting": [279, -12679, -8483, 321, 13, -314, -99, 15],
  "SliceThickness": 2,
  "SliceTiming": [0, 0.535, 0.09, 0.625, 0.18, 0.7125, 0.2675, 0.8025, 0.3575, 0.8925, 0.445, 0, 0.535, 0.09, 0.625, 0.18, 0.7125, 0.2675, 0.8025, 0.3575, 0.8925, 0.445, 0, 0.535, 0.09, 0.625, 0.18, 0.7125, 0.2675, 0.8025, 0.3575, 0.8925, 0.445, 0, 0.535, 0.09, 0.625, 0.18, 0.7125, 0.2675, 0.8025, 0.3575, 0.8925, 0.445, 0, 0.535, 0.09, 0.625, 0.18, 0.7125, 0.2675, 0.8025, 0.3575, 0.8925, 0.445, 0, 0.535, 0.09, 0.625, 0.18, 0.7125, 0.2675, 0.8025, 0.3575, 0.8925, 0.445],
  "SoftwareVersions": "syngo_MR_E11",
  "SpacingBetweenSlices": 2,
  "StationName": "AWP166018",
  "TaskName": "prf",
  "TotalReadoutTime": 0.060771,
  "TxRefAmp": 205.422,
  "VendorReportedEchoSpacing": 0.00059,
  "WipMemBlock": "4a894a66-c1da-45a3-b556-7b1a654cdc51||Sequence: R016 ve11c/master r/8780670; Nov 27 2017 15:05:12 by eja",
  "dcmmeta_affine": [
    [-1.9972796440124512, -0.09663501381874084, 0.03918701410293579, 108.82646179199219],
    [-0.09780436754226685, 1.9966726303100586, -0.06109648942947388, -71.17427062988281],
    [0.03616978973150253, 0.06292971968650818, 1.9986824989318848, -45.530643463134766],
    [0.0, 0.0, 0.0, 1.0]
],
  "dcmmeta_reorient_transform": [
    [0.0, -1.0, 0.0, 103.0],
    [1.0, 0.0, 0.0, 0.0],
    [0.0, 0.0, 1.0, 0.0],
    [0.0, 0.0, 0.0, 1.0]
],
  "dcmmeta_shape": [104, 104, 66, 192],
  "dcmmeta_slice_dim": 2,
  "dcmmeta_version": 0.6,
  "global": {
    "const": {
      "AccessionNumber": "kr26nbg7",
      "AcquisitionMatrix": [104, 0, 0, 104],
      "AngioFlag": "N",
      "BitsAllocated": 16,
      "BitsStored": 16,
      "BodyPartExamined": "BRAIN",
      "Columns": 936,
      "EchoNumbers": 1,
      "EchoTime": 37.6,
      "EchoTrainLength": 104,
      "FlipAngle": 68.0,
      "HighBit": 15,
      "ImageOrientationPatient": [0.99863983150641, 0.0489021832216, 0.01808489438773, -0.0483175062667, 0.99833630665284, -0.0314648598747],
      "ImagePositionPatient": [-889.54122967071, -1005.785432211, -27.916751474082],
      "ImageType": [
        "ORIGINAL",
        "PRIMARY",
        "M",
        "MB",
        "ND",
        "MOSAIC"
],
      "ImagedNucleus": "1H",
      "ImagingFrequency": 123.190636,
      "InPlanePhaseEncodingDirection": "COL",
      "MRAcquisitionType": "2D",
      "MagneticFieldStrength": 3.0,
      "Manufacturer": "SIEMENS",
      "ManufacturerModelName": "Prisma",
      "Modality": "MR",
      "NumberOfAverages": 1.0,
      "NumberOfPhaseEncodingSteps": 104,
      "PercentPhaseFieldOfView": 100.0,
      "PercentSampling": 100.0,
      "PerformedProcedureStepStartTime": "122909.687000",
      "PhotometricInterpretation": "MONOCHROME2",
      "PixelBandwidth": 2290.0,
      "PixelRepresentation": 0,
      "PixelSpacing": [2.0, 2.0],
      "ProtocolName": "cmrr_mbepi_s6_2mm_66sl_PA_task-prf",
      "RepetitionTime": 1000.0,
      "Rows": 936,
      "SAR": 0.07116466916526,
      "SamplesPerPixel": 1,
      "ScanOptions": "FS",
      "ScanningSequence": "EP",
      "SequenceName": "epfid2d1_104",
      "SequenceVariant": [
        "SK",
        "SS"
],
      "SeriesDescription": "cmrr_mbepi_s6_2mm_66sl_PA_task-prf",
      "SeriesNumber": 20,
      "SeriesTime": "125830.336000",
      "SliceLocation": -41.194108676066,
      "SliceThickness": 2.0,
      "SmallestImagePixelValue": 0,
      "SoftwareVersions": "syngo MR E11",
      "SpacingBetweenSlices": 1.9999999977799,
      "SpecificCharacterSet": "ISO_IR 100",
      "StudyID": "1",
      "StudyTime": "122909.541000",
      "TransmitCoilName": "Body",
      "VariableFlipAngleFlag": "N",
      "WindowCenterWidthExplanation": "Algo1",
      "dBdt": 0.0},
    "slices": {}
  },
  "time": {
    "samples": {
      "AcquisitionNumber": [1, 2, 3, 4, 5, 6, 7, 8, 9, 10, 11, 12, 13, 14, 15, 16, 17, 18, 19, 20, 21, 22, 23, 24, 25, 26, 27, 28, 29, 30, 31, 32, 33, 34, 35, 36, 37, 38, 39, 40, 41, 42, 43, 44, 45, 46, 47, 48, 49, 50, 51, 52, 53, 54, 55, 56, 57, 58, 59, 60, 61, 62, 63, 64, 65, 66, 67, 68, 69, 70, 71, 72, 73, 74, 75, 76, 77, 78, 79, 80, 81, 82, 83, 84, 85, 86, 87, 88, 89, 90, 91, 92, 93, 94, 95, 96, 97, 98, 99, 100, 101, 102, 103, 104, 105, 106, 107, 108, 109, 110, 111, 112, 113, 114, 115, 116, 117, 118, 119, 120, 121, 122, 123, 124, 125, 126, 127, 128, 129, 130, 131, 132, 133, 134, 135, 136, 137, 138, 139, 140, 141, 142, 143, 144, 145, 146, 147, 148, 149, 150, 151, 152, 153, 154, 155, 156, 157, 158, 159, 160, 161, 162, 163, 164, 165, 166, 167, 168, 169, 170, 171, 172, 173, 174, 175, 176, 177, 178, 179, 180, 181, 182, 183, 184, 185, 186, 187, 188, 189, 190, 191, 192],
      "AcquisitionTime": ["125707.497500", "125708.497500", "125709.497500", "125710.497500", "125711.497500", "125712.497500", "125713.497500", "125714.497500", "125715.497500", "125716.497500", "125717.497500", "125718.497500", "125719.497500", "125720.497500", "125721.497500", "125722.497500", "125723.497500", "125724.497500", "125725.497500", "125726.497500", "125727.497500", "125728.497500", "125729.497500", "125730.497500", "125731.497500", "125732.497500", "125733.497500", "125734.497500", "125735.497500", "125736.497500", "125737.497500", "125738.497500", "125739.497500", "125740.497500", "125741.497500", "125742.497500", "125743.497500", "125744.497500", "125745.497500", "125746.497500", "125747.497500", "125748.497500", "125749.497500", "125750.497500", "125751.497500", "125752.497500", "125753.497500", "125754.497500", "125755.497500", "125756.497500", "125757.497500", "125758.497500", "125759.497500", "125800.497500", "125801.497500", "125802.497500", "125803.497500", "125804.497500", "125805.497500", "125806.497500", "125807.497500", "125808.497500", "125809.497500", "125810.497500", "125811.497500", "125812.497500", "125813.497500", "125814.497500", "125815.497500", "125816.497500", "125817.497500", "125818.497500", "125819.497500", "125820.497500", "125821.497500", "125822.497500", "125823.497500", "125824.497500", "125825.497500", "125826.497500", "125827.497500", "125828.497500", "125829.497500", "125830.497500", "125831.497500", "125832.497500", "125833.497500", "125834.497500", "125835.497500", "125836.497500", "125837.497500", "125838.497500", "125839.497500", "125840.497500", "125841.497500", "125842.497500", "125843.497500", "125844.497500", "125845.497500", "125846.497500", "125847.497500", "125848.497500", "125849.497500", "125850.497500", "125851.497500", "125852.497500", "125853.497500", "125854.497500", "125855.497500", "125856.497500", "125857.497500", "125858.497500", "125859.497500", "125900.497500", "125901.497500", "125902.497500", "125903.497500", "125904.497500", "125905.497500", "125906.497500", "125907.497500", "125908.497500", "125909.497500", "125910.497500", "125911.497500", "125912.497500", "125913.497500", "125914.497500", "125915.497500", "125916.497500", "125917.497500", "125918.497500", "125919.497500", "125920.497500", "125921.497500", "125922.497500", "125923.497500", "125924.497500", "125925.497500", "125926.497500", "125927.497500", "125928.497500", "125929.497500", "125930.497500", "125931.497500", "125932.497500", "125933.497500", "125934.497500", "125935.497500", "125936.497500", "125937.497500", "125938.497500", "125939.497500", "125940.497500", "125941.497500", "125942.497500", "125943.497500", "125944.497500", "125945.497500", "125946.497500", "125947.497500", "125948.497500", "125949.497500", "125950.497500", "125951.497500", "125952.497500", "125953.497500", "125954.497500", "125955.497500", "125956.497500", "125957.497500", "125958.497500", "125959.497500", "130000.497500", "130001.497500", "130002.497500", "130003.497500", "130004.497500", "130005.497500", "130006.497500", "130007.497500", "130008.497500", "130009.497500", "130010.497500", "130011.497500", "130012.497500", "130013.497500", "130014.497500", "130015.497500", "130016.497500", "130017.497500", "130018.497500"],
      "ContentTime": ["125830.339000", "125830.343000", "125830.346000", "125830.349000", "125830.353000", "125830.356000", "125830.359000", "125830.362000", "125830.365000", "125830.379000", "125830.382000", "125830.401000", "125830.404000", "125830.407000", "125830.410000", "125830.413000", "125830.416000", "125830.419000", "125830.422000", "125830.425000", "125830.428000", "125830.431000", "125830.434000", "125830.437000", "125830.440000", "125830.443000", "125830.446000", "125830.449000", "125830.452000", "125830.455000", "125830.458000", "125830.461000", "125830.464000", "125830.467000", "125830.470000", "125830.473000", "125830.476000", "125830.479000", "125830.482000", "125830.485000", "125830.487000", "125830.490000", "125830.493000", "125830.496000", "125830.499000", "125850.300000", "125850.303000", "125850.306000", "125850.309000", "125850.316000", "125850.319000", "125850.322000", "125850.325000", "125850.328000", "125850.331000", "125850.334000", "125850.343000", "125850.346000", "125850.349000", "125850.352000", "125850.356000", "125850.359000", "125850.362000", "125850.365000", "125850.368000", "125850.371000", "125850.374000", "125850.377000", "125850.379000", "125850.382000", "125850.385000", "125850.388000", "125850.391000", "125850.394000", "125910.300000", "125910.303000", "125910.306000", "125910.309000", "125910.312000", "125910.315000", "125910.318000", "125910.321000", "125910.324000", "125910.327000", "125910.330000", "125910.333000", "125910.336000", "125910.339000", "125910.342000", "125910.345000", "125910.348000", "125910.352000", "125910.355000", "125910.358000", "125910.361000", "125910.364000", "125910.367000", "125910.370000", "125910.373000", "125910.376000", "125910.379000", "125910.382000", "125930.300000", "125930.303000", "125930.306000", "125930.309000", "125930.312000", "125930.315000", "125930.318000", "125930.321000", "125930.324000", "125930.327000", "125930.330000", "125930.333000", "125930.336000", "125930.339000", "125930.342000", "125930.345000", "125930.347000", "125930.352000", "125930.355000", "125930.358000", "125930.361000", "125930.364000", "125930.367000", "125930.370000", "125930.373000", "125930.376000", "125930.379000", "125930.382000", "125950.299000", "125950.302000", "125950.305000", "125950.308000", "125950.311000", "125950.314000", "125950.317000", "125950.320000", "125950.323000", "125950.326000", "125950.329000", "125950.332000", "125950.335000", "125950.338000", "125950.341000", "125950.344000", "125950.347000", "125950.351000", "125950.354000", "125950.357000", "125950.360000", "125950.363000", "125950.366000", "125950.369000", "125950.372000", "125950.375000", "125950.378000", "125950.381000", "125950.384000", "130010.300000", "130010.303000", "130010.306000", "130010.309000", "130010.312000", "130010.315000", "130010.318000", "130010.321000", "130010.324000", "130010.327000", "130010.330000", "130010.333000", "130010.336000", "130010.338000", "130010.341000", "130010.344000", "130010.347000", "130010.351000", "130010.355000", "130010.357000", "130010.360000", "130010.363000", "130020.540000", "130020.544000", "130020.547000", "130020.550000", "130020.553000", "130020.556000", "130020.559000", "130020.562000", "130020.565000", "130020.568000", "130020.571000"],
      "InstanceCreationTime": ["125830.339000", "125830.343000", "125830.346000", "125830.349000", "125830.353000", "125830.356000", "125830.359000", "125830.362000", "125830.365000", "125830.379000", "125830.382000", "125830.401000", "125830.404000", "125830.407000", "125830.410000", "125830.413000", "125830.416000", "125830.419000", "125830.422000", "125830.425000", "125830.428000", "125830.431000", "125830.434000", "125830.437000", "125830.440000", "125830.443000", "125830.446000", "125830.449000", "125830.452000", "125830.455000", "125830.458000", "125830.461000", "125830.464000", "125830.467000", "125830.470000", "125830.473000", "125830.476000", "125830.479000", "125830.482000", "125830.485000", "125830.487000", "125830.490000", "125830.493000", "125830.496000", "125830.499000", "125850.300000", "125850.303000", "125850.306000", "125850.309000", "125850.316000", "125850.319000", "125850.322000", "125850.325000", "125850.328000", "125850.331000", "125850.334000", "125850.343000", "125850.346000", "125850.349000", "125850.352000", "125850.356000", "125850.359000", "125850.362000", "125850.365000", "125850.368000", "125850.371000", "125850.374000", "125850.377000", "125850.379000", "125850.382000", "125850.385000", "125850.388000", "125850.391000", "125850.394000", "125910.300000", "125910.303000", "125910.306000", "125910.309000", "125910.312000", "125910.315000", "125910.318000", "125910.321000", "125910.324000", "125910.327000", "125910.330000", "125910.333000", "125910.336000", "125910.339000", "125910.342000", "125910.345000", "125910.348000", "125910.352000", "125910.355000", "125910.358000", "125910.361000", "125910.364000", "125910.367000", "125910.370000", "125910.373000", "125910.376000", "125910.379000", "125910.382000", "125930.300000", "125930.303000", "125930.306000", "125930.309000", "125930.312000", "125930.315000", "125930.318000", "125930.321000", "125930.324000", "125930.327000", "125930.330000", "125930.333000", "125930.336000", "125930.339000", "125930.342000", "125930.345000", "125930.347000", "125930.352000", "125930.355000", "125930.358000", "125930.361000", "125930.364000", "125930.367000", "125930.370000", "125930.373000", "125930.376000", "125930.379000", "125930.382000", "125950.299000", "125950.302000", "125950.305000", "125950.308000", "125950.311000", "125950.314000", "125950.317000", "125950.320000", "125950.323000", "125950.326000", "125950.329000", "125950.332000", "125950.335000", "125950.338000", "125950.341000", "125950.344000", "125950.347000", "125950.351000", "125950.354000", "125950.357000", "125950.360000", "125950.363000", "125950.366000", "125950.369000", "125950.372000", "125950.375000", "125950.378000", "125950.381000", "125950.384000", "130010.300000", "130010.303000", "130010.306000", "130010.309000", "130010.312000", "130010.315000", "130010.318000", "130010.321000", "130010.324000", "130010.327000", "130010.330000", "130010.333000", "130010.336000", "130010.338000", "130010.341000", "130010.344000", "130010.347000", "130010.351000", "130010.355000", "130010.357000", "130010.360000", "130010.363000", "130020.540000", "130020.544000", "130020.547000", "130020.550000", "130020.553000", "130020.556000", "130020.559000", "130020.562000", "130020.565000", "130020.568000", "130020.571000"],
      "InstanceNumber": [1, 2, 3, 4, 5, 6, 7, 8, 9, 10, 11, 12, 13, 14, 15, 16, 17, 18, 19, 20, 21, 22, 23, 24, 25, 26, 27, 28, 29, 30, 31, 32, 33, 34, 35, 36, 37, 38, 39, 40, 41, 42, 43, 44, 45, 46, 47, 48, 49, 50, 51, 52, 53, 54, 55, 56, 57, 58, 59, 60, 61, 62, 63, 64, 65, 66, 67, 68, 69, 70, 71, 72, 73, 74, 75, 76, 77, 78, 79, 80, 81, 82, 83, 84, 85, 86, 87, 88, 89, 90, 91, 92, 93, 94, 95, 96, 97, 98, 99, 100, 101, 102, 103, 104, 105, 106, 107, 108, 109, 110, 111, 112, 113, 114, 115, 116, 117, 118, 119, 120, 121, 122, 123, 124, 125, 126, 127, 128, 129, 130, 131, 132, 133, 134, 135, 136, 137, 138, 139, 140, 141, 142, 143, 144, 145, 146, 147, 148, 149, 150, 151, 152, 153, 154, 155, 156, 157, 158, 159, 160, 161, 162, 163, 164, 165, 166, 167, 168, 169, 170, 171, 172, 173, 174, 175, 176, 177, 178, 179, 180, 181, 182, 183, 184, 185, 186, 187, 188, 189, 190, 191, 192],
      "LargestImagePixelValue": [39983, 38989, 38428, 38206, 37709, 37876, 37334, 37462, 37324, 37424, 37564, 38060, 37287, 37112, 36690, 36757, 36510, 36825, 36902, 37219, 37537, 37984, 37855, 37813, 37630, 37402, 37180, 36889, 37119, 37012, 36822, 37375, 37294, 36850, 37118, 37392, 37175, 37724, 36766, 36730, 37162, 36937, 37246, 37078, 36366, 36193, 36529, 36613, 36769, 36378, 36885, 36736, 36672, 37019, 36361, 36298, 36972, 36776, 36112, 36984, 36204, 36404, 36268, 36682, 36882, 36860, 36405, 36691, 36388, 36595, 36164, 36644, 36867, 36473, 36558, 36911, 36835, 37036, 37136, 36930, 36891, 36983, 37392, 36780, 36593, 36913, 36596, 37114, 37086, 37125, 36933, 36684, 37009, 36966, 36613, 36470, 37063, 37391, 36705, 37484, 37245, 36590, 37310, 37006, 36557, 36486, 37091, 37340, 37467, 37192, 36935, 36832, 37071, 36663, 37026, 36886, 37479, 37292, 37266, 36988, 37229, 36618, 36723, 36755, 36811, 36695, 36990, 37498, 37262, 37046, 37021, 36841, 36566, 36539, 36277, 36242, 36864, 36511, 36764, 36588, 36640, 36858, 36870, 36489, 36293, 36789, 36917, 37000, 36857, 36707, 36841, 36776, 36575, 37335, 37166, 37099, 36955, 37494, 36986, 37581, 36996, 36888, 36175, 36419, 37115, 36626, 37044, 37236, 36924, 37013, 36901, 36961, 36628, 37125, 37137, 37139, 36907, 36894, 36455, 36967, 36975, 36691, 36732, 36795, 36978, 36643, 36952, 36500, 36958, 36985, 37000, 37137],
      "WindowCenter": [10013.0, 9970.0, 9937.0, 9925.0, 9918.0, 9917.0, 9911.0, 9902.0, 9901.0, 9907.0, 9914.0, 9936.0, 9947.0, 9960.0, 9955.0, 9952.0, 9946.0, 9938.0, 9936.0, 9933.0, 9928.0, 9930.0, 9937.0, 9938.0, 9941.0, 9950.0, 9945.0, 9939.0, 9943.0, 9936.0, 9930.0, 9934.0, 9928.0, 9923.0, 9936.0, 9944.0, 9945.0, 9950.0, 9941.0, 9946.0, 9953.0, 9947.0, 9946.0, 9952.0, 9941.0, 9929.0, 9932.0, 9925.0, 9924.0, 9916.0, 9920.0, 9915.0, 9922.0, 9943.0, 9941.0, 9935.0, 9954.0, 9957.0, 9958.0, 9969.0, 9953.0, 9953.0, 9953.0, 9964.0, 9963.0, 9979.0, 9973.0, 9969.0, 9962.0, 9954.0, 9946.0, 9938.0, 9944.0, 9938.0, 9932.0, 9943.0, 9943.0, 9936.0, 9942.0, 9935.0, 9928.0, 9934.0, 9933.0, 9936.0, 9930.0, 9934.0, 9922.0, 9932.0, 9925.0, 9931.0, 9934.0, 9933.0, 9935.0, 9940.0, 9930.0, 9930.0, 9935.0, 9938.0, 9920.0, 9930.0, 9918.0, 9914.0, 9916.0, 9917.0, 9907.0, 9906.0, 9922.0, 9923.0, 9930.0, 9933.0, 9927.0, 9920.0, 9932.0, 9925.0, 9929.0, 9926.0, 9939.0, 9938.0, 9933.0, 9941.0, 9950.0, 9954.0, 9952.0, 9953.0, 9945.0, 9938.0, 9930.0, 9932.0, 9930.0, 9943.0, 9950.0, 9946.0, 9939.0, 9941.0, 9934.0, 9940.0, 9946.0, 9938.0, 9946.0, 9946.0, 9948.0, 9954.0, 9951.0, 9941.0, 9934.0, 9943.0, 9939.0, 9952.0, 9945.0, 9943.0, 9944.0, 9936.0, 9922.0, 9932.0, 9934.0, 9934.0, 9937.0, 9948.0, 9942.0, 9949.0, 9957.0, 9958.0, 9956.0, 9947.0, 9951.0, 9940.0, 9936.0, 9935.0, 9929.0, 9930.0, 9930.0, 9935.0, 9933.0, 9937.0, 9945.0, 9944.0, 9946.0, 9946.0, 9948.0, 9951.0, 9955.0, 9953.0, 9949.0, 9962.0, 9959.0, 9960.0, 9954.0, 9949.0, 9940.0, 9945.0, 9945.0, 9937.0],
      "WindowWidth": [21525.0, 21394.0, 21303.0, 21264.0, 21246.0, 21239.0, 21227.0, 21204.0, 21201.0, 21214.0, 21233.0, 21280.0, 21306.0, 21340.0, 21331.0, 21321.0, 21305.0, 21287.0, 21281.0, 21273.0, 21264.0, 21264.0, 21279.0, 21286.0, 21294.0, 21315.0, 21307.0, 21296.0, 21301.0, 21284.0, 21272.0, 21279.0, 21265.0, 21257.0, 21284.0, 21305.0, 21309.0, 21317.0, 21304.0, 21312.0, 21326.0, 21315.0, 21311.0, 21324.0, 21302.0, 21278.0, 21282.0, 21266.0, 21262.0, 21248.0, 21251.0, 21245.0, 21260.0, 21308.0, 21307.0, 21295.0, 21333.0, 21343.0, 21348.0, 21365.0, 21335.0, 21335.0, 21335.0, 21354.0, 21355.0, 21390.0, 21377.0, 21363.0, 21347.0, 21327.0, 21310.0, 21290.0, 21304.0, 21291.0, 21278.0, 21303.0, 21300.0, 21284.0, 21301.0, 21284.0, 21268.0, 21280.0, 21279.0, 21289.0, 21277.0, 21281.0, 21258.0, 21276.0, 21263.0, 21277.0, 21283.0, 21282.0, 21288.0, 21298.0, 21282.0, 21280.0, 21287.0, 21288.0, 21252.0, 21271.0, 21246.0, 21243.0, 21241.0, 21243.0, 21226.0, 21223.0, 21252.0, 21256.0, 21272.0, 21281.0, 21268.0, 21252.0, 21276.0, 21263.0, 21271.0, 21261.0, 21287.0, 21286.0, 21282.0, 21299.0, 21321.0, 21334.0, 21328.0, 21330.0, 21312.0, 21295.0, 21275.0, 21276.0, 21274.0, 21302.0, 21320.0, 21316.0, 21299.0, 21304.0, 21290.0, 21300.0, 21311.0, 21297.0, 21313.0, 21315.0, 21320.0, 21335.0, 21325.0, 21309.0, 21292.0, 21306.0, 21298.0, 21327.0, 21312.0, 21305.0, 21309.0, 21291.0, 21258.0, 21278.0, 21284.0, 21283.0, 21292.0, 21316.0, 21301.0, 21316.0, 21333.0, 21336.0, 21337.0, 21313.0, 21319.0, 21299.0, 21288.0, 21282.0, 21270.0, 21273.0, 21275.0, 21285.0, 21283.0, 21291.0, 21311.0, 21309.0, 21314.0, 21315.0, 21318.0, 21323.0, 21337.0, 21329.0, 21321.0, 21350.0, 21342.0, 21345.0, 21331.0, 21319.0, 21300.0, 21307.0, 21311.0, 21291.0]
    },
    "slices": {}
  },
  "NumberOfVolumes": 192
}