{
  "AcquisitionMatrixPE": 104,
  "AcquisitionNumber": 1,
  "AcquisitionTime": "12:53:0.492500",
  "BandwidthPerPixelPhaseEncode": 16.297,
  "BaseResolution": 104,
  "BodyPartExamined": "BRAIN",
  "ConsistencyInfo": "N4_VE11C_LATEST_20160120",
  "ConversionSoftware": "dcm2niix",
  "ConversionSoftwareVersion": "v1.0.20190902",
  "DerivedVendorReportedEchoSpacing": 0.000590009,
  "DeviceSerialNumber": "166018",
  "DwellTime": 2.1e-06,
  "EchoTime": 0.0376,
  "EchoTrainLength": 104,
  "EffectiveEchoSpacing": 0.000590009,
  "FlipAngle": 68,
  "ImageComments": "Unaliased_MB6_PE3_LB",
  "ImageOrientationPatientDICOM": [0.99864, 0.0489022, 0.0180849, -0.0483175, 0.998336, -0.0314649],
  "ImageType": [
    "ORIGINAL",
    "PRIMARY",
    "M",
    "MB",
    "ND",
    "MOSAIC"
],
  "ImagingFrequency": 123.191,
  "InPlanePhaseEncodingDirectionDICOM": "COL",
  "InstitutionAddress": "Washington_Place_6_NYC_NYC_US_10003",
  "InstitutionName": "NYU_Center_for_Brain_Imaging",
  "InstitutionalDepartmentName": "Department",
  "MRAcquisitionType": "2D",
  "MagneticFieldStrength": 3,
  "Manufacturer": "Siemens",
  "ManufacturersModelName": "Prisma",
  "Modality": "MR",
  "MultibandAccelerationFactor": 6,
  "PartialFourier": 1,
  "PatientPosition": "HFS",
  "PercentPhaseFOV": 100,
  "PhaseEncodingDirection": "j",
  "PhaseEncodingSteps": 104,
  "PhaseResolution": 1,
  "PixelBandwidth": 2290,
  "ProcedureStepDescription": "Investigators_Winawer",
  "ProtocolName": "cmrr_mbepi_s6_2mm_66sl_PA_task-prf",
  "PulseSequenceDetails": "%CustomerSeq%_cmrr_mbep2d_bold",
  "ReceiveCoilActiveElements": "HC1-7",
  "ReceiveCoilName": "HeadNeck_64",
  "ReconMatrixPE": 104,
  "RepetitionTime": 1,
  "SAR": 0.0711647,
  "ScanOptions": "FS",
  "ScanningSequence": "EP",
  "SequenceName": "epfid2d1_104",
  "SequenceVariant": "SK_SS",
  "SeriesDescription": "cmrr_mbepi_s6_2mm_66sl_PA_task-prf",
  "SeriesNumber": 18,
  "ShimSetting": [279, -12679, -8483, 321, 13, -314, -99, 15],
  "SliceThickness": 2,
  "SliceTiming": [0, 0.535, 0.09, 0.625, 0.18, 0.7125, 0.2675, 0.8025, 0.3575, 0.8925, 0.4475, 0, 0.535, 0.09, 0.625, 0.18, 0.7125, 0.2675, 0.8025, 0.3575, 0.8925, 0.4475, 0, 0.535, 0.09, 0.625, 0.18, 0.7125, 0.2675, 0.8025, 0.3575, 0.8925, 0.4475, 0, 0.535, 0.09, 0.625, 0.18, 0.7125, 0.2675, 0.8025, 0.3575, 0.8925, 0.4475, 0, 0.535, 0.09, 0.625, 0.18, 0.7125, 0.2675, 0.8025, 0.3575, 0.8925, 0.4475, 0, 0.535, 0.09, 0.625, 0.18, 0.7125, 0.2675, 0.8025, 0.3575, 0.8925, 0.4475],
  "SoftwareVersions": "syngo_MR_E11",
  "SpacingBetweenSlices": 2,
  "StationName": "AWP166018",
  "TaskName": "prf",
  "TotalReadoutTime": 0.060771,
  "TxRefAmp": 205.422,
  "VendorReportedEchoSpacing": 0.00059,
  "WipMemBlock": "4a894a66-c1da-45a3-b556-7b1a654cdc51||Sequence: R016 ve11c/master r/8780670; Nov 27 2017 15:05:12 by eja",
  "dcmmeta_affine": [
    [-1.9972796440124512, -0.09663501381874084, 0.03918701410293579, 108.82646179199219],
    [-0.09780436754226685, 1.9966726303100586, -0.06109648942947388, -71.17427062988281],
    [0.03616978973150253, 0.06292971968650818, 1.9986824989318848, -45.530643463134766],
    [0.0, 0.0, 0.0, 1.0]
],
  "dcmmeta_reorient_transform": [
    [0.0, -1.0, 0.0, 103.0],
    [1.0, 0.0, 0.0, 0.0],
    [0.0, 0.0, 1.0, 0.0],
    [0.0, 0.0, 0.0, 1.0]
],
  "dcmmeta_shape": [104, 104, 66, 192],
  "dcmmeta_slice_dim": 2,
  "dcmmeta_version": 0.6,
  "global": {
    "const": {
      "AccessionNumber": "kr26nbg7",
      "AcquisitionMatrix": [104, 0, 0, 104],
      "AngioFlag": "N",
      "BitsAllocated": 16,
      "BitsStored": 16,
      "BodyPartExamined": "BRAIN",
      "Columns": 936,
      "EchoNumbers": 1,
      "EchoTime": 37.6,
      "EchoTrainLength": 104,
      "FlipAngle": 68.0,
      "HighBit": 15,
      "ImageOrientationPatient": [0.99863983150641, 0.0489021832216, 0.01808489438773, -0.0483175062667, 0.99833630665284, -0.0314648598747],
      "ImagePositionPatient": [-889.54122967071, -1005.785432211, -27.916751474082],
      "ImageType": [
        "ORIGINAL",
        "PRIMARY",
        "M",
        "MB",
        "ND",
        "MOSAIC"
],
      "ImagedNucleus": "1H",
      "ImagingFrequency": 123.190636,
      "InPlanePhaseEncodingDirection": "COL",
      "MRAcquisitionType": "2D",
      "MagneticFieldStrength": 3.0,
      "Manufacturer": "SIEMENS",
      "ManufacturerModelName": "Prisma",
      "Modality": "MR",
      "NumberOfAverages": 1.0,
      "NumberOfPhaseEncodingSteps": 104,
      "PercentPhaseFieldOfView": 100.0,
      "PercentSampling": 100.0,
      "PerformedProcedureStepStartTime": "122909.687000",
      "PhotometricInterpretation": "MONOCHROME2",
      "PixelBandwidth": 2290.0,
      "PixelRepresentation": 0,
      "PixelSpacing": [2.0, 2.0],
      "ProtocolName": "cmrr_mbepi_s6_2mm_66sl_PA_task-prf",
      "RepetitionTime": 1000.0,
      "Rows": 936,
      "SAR": 0.07116466916526,
      "SamplesPerPixel": 1,
      "ScanOptions": "FS",
      "ScanningSequence": "EP",
      "SequenceName": "epfid2d1_104",
      "SequenceVariant": [
        "SK",
        "SS"
],
      "SeriesDescription": "cmrr_mbepi_s6_2mm_66sl_PA_task-prf",
      "SeriesNumber": 18,
      "SeriesTime": "125410.256000",
      "SliceLocation": -41.194108676066,
      "SliceThickness": 2.0,
      "SmallestImagePixelValue": 0,
      "SoftwareVersions": "syngo MR E11",
      "SpacingBetweenSlices": 1.9999999977799,
      "SpecificCharacterSet": "ISO_IR 100",
      "StudyID": "1",
      "StudyTime": "122909.541000",
      "TransmitCoilName": "Body",
      "VariableFlipAngleFlag": "N",
      "WindowCenterWidthExplanation": "Algo1",
      "dBdt": 0.0},
    "slices": {}
  },
  "time": {
    "samples": {
      "AcquisitionNumber": [1, 2, 3, 4, 5, 6, 7, 8, 9, 10, 11, 12, 13, 14, 15, 16, 17, 18, 19, 20, 21, 22, 23, 24, 25, 26, 27, 28, 29, 30, 31, 32, 33, 34, 35, 36, 37, 38, 39, 40, 41, 42, 43, 44, 45, 46, 47, 48, 49, 50, 51, 52, 53, 54, 55, 56, 57, 58, 59, 60, 61, 62, 63, 64, 65, 66, 67, 68, 69, 70, 71, 72, 73, 74, 75, 76, 77, 78, 79, 80, 81, 82, 83, 84, 85, 86, 87, 88, 89, 90, 91, 92, 93, 94, 95, 96, 97, 98, 99, 100, 101, 102, 103, 104, 105, 106, 107, 108, 109, 110, 111, 112, 113, 114, 115, 116, 117, 118, 119, 120, 121, 122, 123, 124, 125, 126, 127, 128, 129, 130, 131, 132, 133, 134, 135, 136, 137, 138, 139, 140, 141, 142, 143, 144, 145, 146, 147, 148, 149, 150, 151, 152, 153, 154, 155, 156, 157, 158, 159, 160, 161, 162, 163, 164, 165, 166, 167, 168, 169, 170, 171, 172, 173, 174, 175, 176, 177, 178, 179, 180, 181, 182, 183, 184, 185, 186, 187, 188, 189, 190, 191, 192],
      "AcquisitionTime": ["125300.492500", "125301.492500", "125302.492500", "125303.492500", "125304.492500", "125305.492500", "125306.492500", "125307.492500", "125308.492500", "125309.492500", "125310.492500", "125311.492500", "125312.492500", "125313.492500", "125314.492500", "125315.492500", "125316.492500", "125317.492500", "125318.492500", "125319.492500", "125320.492500", "125321.492500", "125322.492500", "125323.492500", "125324.492500", "125325.492500", "125326.492500", "125327.492500", "125328.492500", "125329.492500", "125330.492500", "125331.492500", "125332.492500", "125333.492500", "125334.492500", "125335.492500", "125336.492500", "125337.492500", "125338.492500", "125339.492500", "125340.492500", "125341.492500", "125342.492500", "125343.492500", "125344.492500", "125345.492500", "125346.492500", "125347.492500", "125348.492500", "125349.492500", "125350.492500", "125351.492500", "125352.492500", "125353.492500", "125354.492500", "125355.492500", "125356.492500", "125357.492500", "125358.492500", "125359.492500", "125400.492500", "125401.492500", "125402.492500", "125403.492500", "125404.492500", "125405.492500", "125406.492500", "125407.492500", "125408.492500", "125409.492500", "125410.492500", "125411.492500", "125412.492500", "125413.492500", "125414.492500", "125415.492500", "125416.492500", "125417.492500", "125418.492500", "125419.492500", "125420.492500", "125421.492500", "125422.492500", "125423.492500", "125424.492500", "125425.492500", "125426.492500", "125427.492500", "125428.492500", "125429.492500", "125430.492500", "125431.492500", "125432.492500", "125433.492500", "125434.492500", "125435.492500", "125436.492500", "125437.492500", "125438.492500", "125439.492500", "125440.492500", "125441.492500", "125442.492500", "125443.492500", "125444.492500", "125445.492500", "125446.492500", "125447.492500", "125448.492500", "125449.492500", "125450.492500", "125451.492500", "125452.492500", "125453.492500", "125454.492500", "125455.492500", "125456.492500", "125457.492500", "125458.492500", "125459.492500", "125500.492500", "125501.492500", "125502.492500", "125503.492500", "125504.492500", "125505.492500", "125506.492500", "125507.492500", "125508.492500", "125509.492500", "125510.492500", "125511.492500", "125512.492500", "125513.492500", "125514.492500", "125515.492500", "125516.492500", "125517.492500", "125518.492500", "125519.492500", "125520.492500", "125521.492500", "125522.492500", "125523.492500", "125524.492500", "125525.492500", "125526.492500", "125527.492500", "125528.492500", "125529.492500", "125530.492500", "125531.492500", "125532.492500", "125533.492500", "125534.492500", "125535.492500", "125536.492500", "125537.492500", "125538.492500", "125539.492500", "125540.492500", "125541.492500", "125542.492500", "125543.492500", "125544.492500", "125545.492500", "125546.492500", "125547.492500", "125548.492500", "125549.492500", "125550.492500", "125551.492500", "125552.492500", "125553.492500", "125554.492500", "125555.492500", "125556.492500", "125557.492500", "125558.492500", "125559.492500", "125600.492500", "125601.492500", "125602.492500", "125603.492500", "125604.492500", "125605.492500", "125606.492500", "125607.492500", "125608.492500", "125609.492500", "125610.492500", "125611.492500"],
      "ContentTime": ["125410.258000", "125410.262000", "125410.265000", "125410.268000", "125410.271000", "125410.274000", "125410.287000", "125410.290000", "125410.293000", "125410.296000", "125410.299000", "125410.302000", "125410.305000", "125410.308000", "125410.311000", "125410.314000", "125410.317000", "125410.319000", "125410.322000", "125410.325000", "125410.328000", "125410.331000", "125410.334000", "125410.337000", "125410.340000", "125410.343000", "125410.346000", "125410.349000", "125430.227000", "125430.230000", "125430.233000", "125430.236000", "125430.239000", "125430.242000", "125430.245000", "125430.248000", "125430.257000", "125430.260000", "125430.263000", "125430.266000", "125430.269000", "125430.271000", "125430.274000", "125430.277000", "125430.280000", "125430.283000", "125430.286000", "125430.289000", "125430.292000", "125430.295000", "125430.298000", "125430.301000", "125430.304000", "125430.307000", "125430.310000", "125430.313000", "125430.315000", "125450.227000", "125450.230000", "125450.233000", "125450.236000", "125450.239000", "125450.242000", "125450.245000", "125450.248000", "125450.251000", "125450.254000", "125450.257000", "125450.260000", "125450.263000", "125450.266000", "125450.268000", "125450.271000", "125450.274000", "125450.277000", "125450.280000", "125450.283000", "125450.286000", "125450.289000", "125450.292000", "125450.295000", "125450.298000", "125450.301000", "125450.304000", "125450.307000", "125510.226000", "125510.229000", "125510.232000", "125510.235000", "125510.238000", "125510.241000", "125510.244000", "125510.247000", "125510.250000", "125510.253000", "125510.256000", "125510.259000", "125510.262000", "125510.265000", "125510.268000", "125510.270000", "125510.273000", "125510.283000", "125510.286000", "125510.289000", "125510.292000", "125510.295000", "125510.298000", "125510.301000", "125510.304000", "125510.307000", "125510.310000", "125510.313000", "125530.226000", "125530.229000", "125530.234000", "125530.237000", "125530.240000", "125530.243000", "125530.246000", "125530.249000", "125530.252000", "125530.255000", "125530.258000", "125530.261000", "125530.264000", "125530.267000", "125530.270000", "125530.273000", "125530.276000", "125530.279000", "125530.282000", "125530.285000", "125530.287000", "125530.290000", "125530.294000", "125530.296000", "125530.299000", "125530.302000", "125530.305000", "125530.308000", "125530.311000", "125550.227000", "125550.230000", "125550.233000", "125550.236000", "125550.239000", "125550.242000", "125550.245000", "125550.248000", "125550.251000", "125550.254000", "125550.257000", "125550.260000", "125550.263000", "125550.266000", "125550.269000", "125550.272000", "125550.275000", "125550.278000", "125550.281000", "125550.283000", "125550.286000", "125550.289000", "125550.292000", "125550.295000", "125550.298000", "125550.301000", "125610.227000", "125610.230000", "125610.233000", "125610.236000", "125610.239000", "125610.242000", "125610.245000", "125610.248000", "125610.251000", "125610.254000", "125610.257000", "125610.260000", "125610.263000", "125610.266000", "125610.269000", "125610.272000", "125610.275000", "125610.278000", "125610.281000", "125610.284000", "125613.305000", "125613.308000", "125613.312000", "125613.315000"],
      "InstanceCreationTime": ["125410.258000", "125410.262000", "125410.265000", "125410.268000", "125410.271000", "125410.274000", "125410.287000", "125410.290000", "125410.293000", "125410.296000", "125410.299000", "125410.302000", "125410.305000", "125410.308000", "125410.311000", "125410.314000", "125410.317000", "125410.319000", "125410.322000", "125410.325000", "125410.328000", "125410.331000", "125410.334000", "125410.337000", "125410.340000", "125410.343000", "125410.346000", "125410.349000", "125430.227000", "125430.230000", "125430.233000", "125430.236000", "125430.239000", "125430.242000", "125430.245000", "125430.248000", "125430.257000", "125430.260000", "125430.263000", "125430.266000", "125430.269000", "125430.271000", "125430.274000", "125430.277000", "125430.280000", "125430.283000", "125430.286000", "125430.289000", "125430.292000", "125430.295000", "125430.298000", "125430.301000", "125430.304000", "125430.307000", "125430.310000", "125430.313000", "125430.315000", "125450.227000", "125450.230000", "125450.233000", "125450.236000", "125450.239000", "125450.242000", "125450.245000", "125450.248000", "125450.251000", "125450.254000", "125450.257000", "125450.260000", "125450.263000", "125450.266000", "125450.268000", "125450.271000", "125450.274000", "125450.277000", "125450.280000", "125450.283000", "125450.286000", "125450.289000", "125450.292000", "125450.295000", "125450.298000", "125450.301000", "125450.304000", "125450.307000", "125510.226000", "125510.229000", "125510.232000", "125510.235000", "125510.238000", "125510.241000", "125510.244000", "125510.247000", "125510.250000", "125510.253000", "125510.256000", "125510.259000", "125510.262000", "125510.265000", "125510.268000", "125510.270000", "125510.273000", "125510.283000", "125510.286000", "125510.289000", "125510.292000", "125510.295000", "125510.298000", "125510.301000", "125510.304000", "125510.307000", "125510.310000", "125510.313000", "125530.226000", "125530.229000", "125530.234000", "125530.237000", "125530.240000", "125530.243000", "125530.246000", "125530.249000", "125530.252000", "125530.255000", "125530.258000", "125530.261000", "125530.264000", "125530.267000", "125530.270000", "125530.273000", "125530.276000", "125530.279000", "125530.282000", "125530.285000", "125530.287000", "125530.290000", "125530.294000", "125530.296000", "125530.299000", "125530.302000", "125530.305000", "125530.308000", "125530.311000", "125550.227000", "125550.230000", "125550.233000", "125550.236000", "125550.239000", "125550.242000", "125550.245000", "125550.248000", "125550.251000", "125550.254000", "125550.257000", "125550.260000", "125550.263000", "125550.266000", "125550.269000", "125550.272000", "125550.275000", "125550.278000", "125550.281000", "125550.283000", "125550.286000", "125550.289000", "125550.292000", "125550.295000", "125550.298000", "125550.301000", "125610.227000", "125610.230000", "125610.233000", "125610.236000", "125610.239000", "125610.242000", "125610.245000", "125610.248000", "125610.251000", "125610.254000", "125610.257000", "125610.260000", "125610.263000", "125610.266000", "125610.269000", "125610.272000", "125610.275000", "125610.278000", "125610.281000", "125610.284000", "125613.305000", "125613.308000", "125613.312000", "125613.315000"],
      "InstanceNumber": [1, 2, 3, 4, 5, 6, 7, 8, 9, 10, 11, 12, 13, 14, 15, 16, 17, 18, 19, 20, 21, 22, 23, 24, 25, 26, 27, 28, 29, 30, 31, 32, 33, 34, 35, 36, 37, 38, 39, 40, 41, 42, 43, 44, 45, 46, 47, 48, 49, 50, 51, 52, 53, 54, 55, 56, 57, 58, 59, 60, 61, 62, 63, 64, 65, 66, 67, 68, 69, 70, 71, 72, 73, 74, 75, 76, 77, 78, 79, 80, 81, 82, 83, 84, 85, 86, 87, 88, 89, 90, 91, 92, 93, 94, 95, 96, 97, 98, 99, 100, 101, 102, 103, 104, 105, 106, 107, 108, 109, 110, 111, 112, 113, 114, 115, 116, 117, 118, 119, 120, 121, 122, 123, 124, 125, 126, 127, 128, 129, 130, 131, 132, 133, 134, 135, 136, 137, 138, 139, 140, 141, 142, 143, 144, 145, 146, 147, 148, 149, 150, 151, 152, 153, 154, 155, 156, 157, 158, 159, 160, 161, 162, 163, 164, 165, 166, 167, 168, 169, 170, 171, 172, 173, 174, 175, 176, 177, 178, 179, 180, 181, 182, 183, 184, 185, 186, 187, 188, 189, 190, 191, 192],
      "LargestImagePixelValue": [38773, 37898, 37351, 36813, 36328, 36303, 36128, 35774, 35653, 35743, 35635, 35856, 36512, 36251, 36578, 36292, 36673, 36567, 36192, 36695, 36465, 36217, 36543, 36420, 36869, 36334, 36609, 36660, 36430, 36597, 36696, 36203, 36054, 36166, 35947, 36093, 36594, 36820, 36702, 36654, 36753, 36369, 35902, 36432, 35987, 36176, 36827, 36546, 36907, 36786, 36925, 36314, 36193, 36218, 36122, 36033, 36575, 36664, 36812, 36545, 36451, 37090, 36750, 36650, 37181, 37086, 37235, 37053, 37427, 36369, 36312, 37068, 36442, 36641, 36783, 36758, 36371, 36850, 37208, 36389, 36258, 36558, 36727, 36569, 36433, 36689, 36100, 36761, 36521, 36042, 36220, 36805, 36639, 36719, 37051, 37118, 36526, 36684, 36763, 36174, 36456, 36793, 37225, 37044, 36751, 36767, 36982, 36752, 36729, 36778, 36708, 36787, 36434, 36605, 36647, 36696, 36897, 37097, 36887, 36806, 36542, 36619, 36657, 36902, 36336, 36343, 36311, 36651, 36363, 36925, 37314, 36793, 37008, 36628, 36968, 36614, 36706, 36814, 36464, 36232, 36548, 36319, 36164, 35720, 36353, 36329, 36306, 36853, 36729, 36592, 36882, 36482, 36669, 36693, 36863, 36896, 37094, 36275, 36897, 36314, 36428, 37295, 36578, 36543, 36801, 36582, 36704, 37176, 37404, 37526, 37029, 37086, 37120, 37272, 36632, 36979, 36907, 37090, 36435, 36624, 36549, 36393, 37032, 36438, 36549, 36976, 36533, 36857, 36701, 37108, 37279, 36685],
      "WindowCenter": [9996.0, 9966.0, 9947.0, 9925.0, 9915.0, 9907.0, 9901.0, 9893.0, 9880.0, 9883.0, 9883.0, 9883.0, 9904.0, 9903.0, 9904.0, 9905.0, 9916.0, 9905.0, 9904.0, 9914.0, 9903.0, 9905.0, 9913.0, 9919.0, 9921.0, 9913.0, 9919.0, 9924.0, 9915.0, 9915.0, 9920.0, 9915.0, 9921.0, 9928.0, 9925.0, 9924.0, 9935.0, 9940.0, 9934.0, 9939.0, 9948.0, 9959.0, 9957.0, 9970.0, 9957.0, 9942.0, 9945.0, 9926.0, 9930.0, 9943.0, 9943.0, 9936.0, 9940.0, 9940.0, 9926.0, 9924.0, 9922.0, 9921.0, 9912.0, 9905.0, 9904.0, 9924.0, 9925.0, 9926.0, 9933.0, 9933.0, 9932.0, 9931.0, 9930.0, 9914.0, 9914.0, 9925.0, 9914.0, 9920.0, 9920.0, 9928.0, 9922.0, 9941.0, 9942.0, 9933.0, 9932.0, 9941.0, 9944.0, 9938.0, 9953.0, 9960.0, 9957.0, 9966.0, 9954.0, 9935.0, 9930.0, 9927.0, 9914.0, 9912.0, 9917.0, 9911.0, 9911.0, 9919.0, 9911.0, 9907.0, 9912.0, 9910.0, 9910.0, 9923.0, 9918.0, 9921.0, 9934.0, 9930.0, 9934.0, 9941.0, 9936.0, 9936.0, 9943.0, 9945.0, 9937.0, 9942.0, 9935.0, 9940.0, 9936.0, 9936.0, 9946.0, 9946.0, 9953.0, 9962.0, 9949.0, 9948.0, 9940.0, 9944.0, 9940.0, 9945.0, 9949.0, 9944.0, 9957.0, 9947.0, 9945.0, 9947.0, 9946.0, 9951.0, 9960.0, 9964.0, 9970.0, 9965.0, 9966.0, 9959.0, 9965.0, 9952.0, 9950.0, 9945.0, 9932.0, 9922.0, 9919.0, 9908.0, 9919.0, 9918.0, 9918.0, 9918.0, 9918.0, 9907.0, 9920.0, 9923.0, 9936.0, 9955.0, 9947.0, 9946.0, 9945.0, 9939.0, 9931.0, 9929.0, 9933.0, 9926.0, 9921.0, 9928.0, 9935.0, 9943.0, 9938.0, 9945.0, 9941.0, 9946.0, 9949.0, 9949.0, 9950.0, 9949.0, 9959.0, 9955.0, 9942.0, 9953.0, 9934.0, 9930.0, 9930.0, 9929.0, 9935.0, 9932.0],
      "WindowWidth": [21486.0, 21390.0, 21328.0, 21272.0, 21242.0, 21219.0, 21208.0, 21189.0, 21160.0, 21161.0, 21163.0, 21162.0, 21208.0, 21206.0, 21207.0, 21211.0, 21233.0, 21210.0, 21206.0, 21225.0, 21206.0, 21212.0, 21231.0, 21245.0, 21250.0, 21233.0, 21243.0, 21253.0, 21236.0, 21235.0, 21246.0, 21237.0, 21249.0, 21266.0, 21266.0, 21261.0, 21283.0, 21292.0, 21279.0, 21290.0, 21312.0, 21337.0, 21341.0, 21368.0, 21340.0, 21304.0, 21306.0, 21267.0, 21271.0, 21301.0, 21300.0, 21290.0, 21295.0, 21295.0, 21268.0, 21257.0, 21253.0, 21249.0, 21226.0, 21211.0, 21208.0, 21249.0, 21257.0, 21258.0, 21273.0, 21272.0, 21270.0, 21265.0, 21261.0, 21232.0, 21232.0, 21253.0, 21235.0, 21247.0, 21248.0, 21268.0, 21257.0, 21294.0, 21299.0, 21282.0, 21282.0, 21303.0, 21306.0, 21293.0, 21326.0, 21347.0, 21340.0, 21354.0, 21328.0, 21286.0, 21268.0, 21259.0, 21232.0, 21225.0, 21235.0, 21223.0, 21226.0, 21247.0, 21225.0, 21216.0, 21227.0, 21220.0, 21221.0, 21249.0, 21241.0, 21251.0, 21278.0, 21270.0, 21277.0, 21291.0, 21286.0, 21283.0, 21300.0, 21306.0, 21286.0, 21297.0, 21279.0, 21289.0, 21282.0, 21282.0, 21309.0, 21310.0, 21326.0, 21345.0, 21316.0, 21312.0, 21295.0, 21301.0, 21293.0, 21303.0, 21313.0, 21304.0, 21329.0, 21311.0, 21307.0, 21311.0, 21309.0, 21320.0, 21340.0, 21356.0, 21366.0, 21358.0, 21363.0, 21345.0, 21356.0, 21329.0, 21320.0, 21303.0, 21275.0, 21250.0, 21242.0, 21218.0, 21240.0, 21239.0, 21239.0, 21240.0, 21238.0, 21216.0, 21244.0, 21254.0, 21280.0, 21324.0, 21310.0, 21307.0, 21303.0, 21290.0, 21270.0, 21264.0, 21272.0, 21256.0, 21248.0, 21263.0, 21280.0, 21297.0, 21290.0, 21303.0, 21300.0, 21307.0, 21316.0, 21315.0, 21317.0, 21315.0, 21334.0, 21327.0, 21297.0, 21321.0, 21280.0, 21267.0, 21263.0, 21262.0, 21274.0, 21275.0]
    },
    "slices": {}
  },
  "NumberOfVolumes": 192
}