{
  "AcquisitionMatrixPE": 104,
  "AcquisitionNumber": 1,
  "AcquisitionTime": "14:13:0.857500",
  "BandwidthPerPixelPhaseEncode": 16.297,
  "BaseResolution": 104,
  "BodyPartExamined": "BRAIN",
  "ConsistencyInfo": "N4_VE11C_LATEST_20160120",
  "ConversionSoftware": "dcm2niix",
  "ConversionSoftwareVersion": "v1.0.20210317",
  "DerivedVendorReportedEchoSpacing": 0.000590009,
  "DeviceSerialNumber": "166018",
  "DwellTime": 2.1e-06,
  "EchoTime": 0.0376,
  "EchoTrainLength": 104,
  "EffectiveEchoSpacing": 0.000590009,
  "FlipAngle": 68,
  "ImageComments": "Unaliased MB6/PE3/LB",
  "ImageOrientationPatientDICOM": [0.999464, 0.0172422, -0.0278379, -0.0191906, 0.997269, -0.0713151],
  "ImageType": [
    "ORIGINAL",
    "PRIMARY",
    "M",
    "MB",
    "ND",
    "MOSAIC"
],
  "ImagingFrequency": 123.197,
  "InPlanePhaseEncodingDirectionDICOM": "COL",
  "InstitutionAddress": "Washington Place 6,NYC,NYC,US,10003",
  "InstitutionName": "NYU - CBI",
  "InstitutionalDepartmentName": "Department",
  "MRAcquisitionType": "2D",
  "MagneticFieldStrength": 3,
  "Manufacturer": "Siemens",
  "ManufacturersModelName": "Prisma",
  "Modality": "MR",
  "MultibandAccelerationFactor": 6,
  "PartialFourier": 1,
  "PatientPosition": "HFS",
  "PercentPhaseFOV": 100,
  "PercentSampling": 100,
  "PhaseEncodingDirection": "j",
  "PhaseEncodingSteps": 104,
  "PhaseResolution": 1,
  "PixelBandwidth": 2290,
  "ProcedureStepDescription": "Investigators^Winawer",
  "ProtocolName": "cmrr_mbepi_s6_2mm_66sl_PA_task-wedgering2",
  "PulseSequenceDetails": "%CustomerSeq%\\cmrr_mbep2d_bold",
  "ReceiveCoilActiveElements": "HC1-7",
  "ReceiveCoilName": "HeadNeck_64",
  "ReconMatrixPE": 104,
  "RepetitionTime": 1,
  "SAR": 0.0811514,
  "ScanOptions": "FS",
  "ScanningSequence": "EP",
  "SequenceName": "epfid2d1_104",
  "SequenceVariant": "SK\\SS",
  "SeriesDescription": "cmrr_mbepi_s6_2mm_66sl_PA_task-wedgering2",
  "SeriesNumber": 14,
  "ShimSetting": [300, -12689, -8467, 338, 18, -199, 21, 6],
  "SliceThickness": 2,
  "SliceTiming": [0, 0.535, 0.0875, 0.6225, 0.1775, 0.7125, 0.2675, 0.8025, 0.355, 0.89, 0.445, 0, 0.535, 0.0875, 0.6225, 0.1775, 0.7125, 0.2675, 0.8025, 0.355, 0.89, 0.445, 0, 0.535, 0.0875, 0.6225, 0.1775, 0.7125, 0.2675, 0.8025, 0.355, 0.89, 0.445, 0, 0.535, 0.0875, 0.6225, 0.1775, 0.7125, 0.2675, 0.8025, 0.355, 0.89, 0.445, 0, 0.535, 0.0875, 0.6225, 0.1775, 0.7125, 0.2675, 0.8025, 0.355, 0.89, 0.445, 0, 0.535, 0.0875, 0.6225, 0.1775, 0.7125, 0.2675, 0.8025, 0.355, 0.89, 0.445],
  "SoftwareVersions": "syngo MR E11",
  "SpacingBetweenSlices": 2,
  "StationName": "AWP166018",
  "TaskName": "wedgering2",
  "TotalReadoutTime": 0.060771,
  "TxRefAmp": 234.738,
  "VendorReportedEchoSpacing": 0.00059,
  "WipMemBlock": "6864c338-6434-4a7a-a3db-21b2e1f30caf||Sequence: R016 ve11c/master r/8780670; Nov 27 2017 15:05:12 by eja",
  "dcmmeta_affine": [
    [-1.9989274740219116, -0.03838126361370087, -0.053064581006765366, 110.05915069580078],
    [-0.03448432311415672, 1.994538426399231, -0.14362207055091858, -72.31951141357422],
    [-0.055675871670246124, 0.14263011515140533, 1.9941304922103882, -41.76121520996094],
    [0.0, 0.0, 0.0, 1.0]
],
  "dcmmeta_reorient_transform": [
    [0.0, -1.0, 0.0, 103.0],
    [1.0, 0.0, 0.0, 0.0],
    [0.0, 0.0, 1.0, 0.0],
    [0.0, 0.0, 0.0, 1.0]
],
  "dcmmeta_shape": [104, 104, 66, 300],
  "dcmmeta_slice_dim": 2,
  "dcmmeta_version": 0.6,
  "global": {
    "const": {
      "AccessionNumber": "Leptn04o",
      "AcquisitionMatrix": [104, 0, 0, 104],
      "AngioFlag": "N",
      "BitsAllocated": 16,
      "BitsStored": 16,
      "BodyPartExamined": "BRAIN",
      "Columns": 936,
      "EchoNumbers": 1,
      "EchoTime": 37.6,
      "EchoTrainLength": 104,
      "FlipAngle": 68.0,
      "HighBit": 15,
      "ImageOrientationPatient": [0.99946373480637, 0.01724216158833, -0.0278379358191, -0.0191906321625, 0.99726921252761, -0.0713150571883],
      "ImagePositionPatient": [-921.69310383771, -977.19140700626, 55.424976418253],
      "ImageType": [
        "ORIGINAL",
        "PRIMARY",
        "M",
        "MB",
        "ND",
        "MOSAIC"
],
      "ImagedNucleus": "1H",
      "ImagingFrequency": 123.196791,
      "InPlanePhaseEncodingDirection": "COL",
      "MRAcquisitionType": "2D",
      "MagneticFieldStrength": 3.0,
      "Manufacturer": "SIEMENS",
      "ManufacturerModelName": "Prisma",
      "Modality": "MR",
      "NumberOfAverages": 1.0,
      "NumberOfPhaseEncodingSteps": 104,
      "PercentPhaseFieldOfView": 100.0,
      "PercentSampling": 100.0,
      "PerformedProcedureStepStartTime": "134948.547000",
      "PhotometricInterpretation": "MONOCHROME2",
      "PixelBandwidth": 2290.0,
      "PixelRepresentation": 0,
      "PixelSpacing": [2.0, 2.0],
      "ProtocolName": "cmrr_mbepi_s6_2mm_66sl_PA_task-wedgering2",
      "RepetitionTime": 1000.0,
      "Rows": 936,
      "SAR": 0.08115139884451,
      "SamplesPerPixel": 1,
      "ScanOptions": "FS",
      "ScanningSequence": "EP",
      "SequenceName": "epfid2d1_104",
      "SequenceVariant": [
        "SK",
        "SS"
],
      "SeriesDescription": "cmrr_mbepi_s6_2mm_66sl_PA_task-wedgering2",
      "SeriesNumber": 14,
      "SeriesTime": "141426.492000",
      "SliceLocation": -39.365440728294,
      "SliceThickness": 2.0,
      "SmallestImagePixelValue": 0,
      "SoftwareVersions": "syngo MR E11",
      "SpacingBetweenSlices": 1.9999999321085,
      "SpecificCharacterSet": "ISO_IR 100",
      "StudyID": "1",
      "StudyTime": "134948.477000",
      "TransmitCoilName": "Body",
      "VariableFlipAngleFlag": "N",
      "WindowCenterWidthExplanation": "Algo1",
      "dBdt": 0.0},
    "slices": {}
  },
  "time": {
    "samples": {
      "AcquisitionNumber": [1, 2, 3, 4, 5, 6, 7, 8, 9, 10, 11, 12, 13, 14, 15, 16, 17, 18, 19, 20, 21, 22, 23, 24, 25, 26, 27, 28, 29, 30, 31, 32, 33, 34, 35, 36, 37, 38, 39, 40, 41, 42, 43, 44, 45, 46, 47, 48, 49, 50, 51, 52, 53, 54, 55, 56, 57, 58, 59, 60, 61, 62, 63, 64, 65, 66, 67, 68, 69, 70, 71, 72, 73, 74, 75, 76, 77, 78, 79, 80, 81, 82, 83, 84, 85, 86, 87, 88, 89, 90, 91, 92, 93, 94, 95, 96, 97, 98, 99, 100, 101, 102, 103, 104, 105, 106, 107, 108, 109, 110, 111, 112, 113, 114, 115, 116, 117, 118, 119, 120, 121, 122, 123, 124, 125, 126, 127, 128, 129, 130, 131, 132, 133, 134, 135, 136, 137, 138, 139, 140, 141, 142, 143, 144, 145, 146, 147, 148, 149, 150, 151, 152, 153, 154, 155, 156, 157, 158, 159, 160, 161, 162, 163, 164, 165, 166, 167, 168, 169, 170, 171, 172, 173, 174, 175, 176, 177, 178, 179, 180, 181, 182, 183, 184, 185, 186, 187, 188, 189, 190, 191, 192, 193, 194, 195, 196, 197, 198, 199, 200, 201, 202, 203, 204, 205, 206, 207, 208, 209, 210, 211, 212, 213, 214, 215, 216, 217, 218, 219, 220, 221, 222, 223, 224, 225, 226, 227, 228, 229, 230, 231, 232, 233, 234, 235, 236, 237, 238, 239, 240, 241, 242, 243, 244, 245, 246, 247, 248, 249, 250, 251, 252, 253, 254, 255, 256, 257, 258, 259, 260, 261, 262, 263, 264, 265, 266, 267, 268, 269, 270, 271, 272, 273, 274, 275, 276, 277, 278, 279, 280, 281, 282, 283, 284, 285, 286, 287, 288, 289, 290, 291, 292, 293, 294, 295, 296, 297, 298, 299, 300],
      "AcquisitionTime": ["141300.857500", "141301.857500", "141302.857500", "141303.857500", "141304.857500", "141305.857500", "141306.857500", "141307.857500", "141308.857500", "141309.857500", "141310.857500", "141311.857500", "141312.857500", "141313.857500", "141314.857500", "141315.857500", "141316.857500", "141317.857500", "141318.857500", "141319.857500", "141320.857500", "141321.857500", "141322.857500", "141323.857500", "141324.857500", "141325.857500", "141326.857500", "141327.857500", "141328.857500", "141329.857500", "141330.857500", "141331.857500", "141332.857500", "141333.857500", "141334.857500", "141335.857500", "141336.857500", "141337.857500", "141338.857500", "141339.857500", "141340.857500", "141341.857500", "141342.857500", "141343.857500", "141344.857500", "141345.857500", "141346.857500", "141347.857500", "141348.857500", "141349.857500", "141350.857500", "141351.857500", "141352.857500", "141353.857500", "141354.857500", "141355.857500", "141356.857500", "141357.857500", "141358.857500", "141359.857500", "141400.857500", "141401.857500", "141402.857500", "141403.857500", "141404.857500", "141405.857500", "141406.857500", "141407.857500", "141408.857500", "141409.857500", "141410.857500", "141411.857500", "141412.857500", "141413.857500", "141414.857500", "141415.857500", "141416.857500", "141417.857500", "141418.857500", "141419.857500", "141420.857500", "141421.857500", "141422.857500", "141423.857500", "141424.857500", "141425.857500", "141426.857500", "141427.857500", "141428.857500", "141429.857500", "141430.857500", "141431.857500", "141432.857500", "141433.857500", "141434.857500", "141435.857500", "141436.857500", "141437.857500", "141438.857500", "141439.857500", "141440.857500", "141441.857500", "141442.857500", "141443.857500", "141444.857500", "141445.857500", "141446.857500", "141447.857500", "141448.857500", "141449.857500", "141450.857500", "141451.857500", "141452.857500", "141453.857500", "141454.857500", "141455.857500", "141456.857500", "141457.857500", "141458.857500", "141459.857500", "141500.857500", "141501.857500", "141502.857500", "141503.857500", "141504.857500", "141505.857500", "141506.857500", "141507.857500", "141508.857500", "141509.857500", "141510.857500", "141511.857500", "141512.857500", "141513.857500", "141514.857500", "141515.857500", "141516.857500", "141517.857500", "141518.857500", "141519.857500", "141520.857500", "141521.857500", "141522.857500", "141523.857500", "141524.857500", "141525.857500", "141526.857500", "141527.857500", "141528.857500", "141529.857500", "141530.857500", "141531.857500", "141532.857500", "141533.857500", "141534.857500", "141535.857500", "141536.857500", "141537.857500", "141538.857500", "141539.857500", "141540.857500", "141541.857500", "141542.857500", "141543.857500", "141544.857500", "141545.857500", "141546.857500", "141547.857500", "141548.857500", "141549.857500", "141550.857500", "141551.857500", "141552.857500", "141553.857500", "141554.857500", "141555.857500", "141556.857500", "141557.857500", "141558.857500", "141559.857500", "141600.857500", "141601.857500", "141602.857500", "141603.857500", "141604.857500", "141605.857500", "141606.857500", "141607.857500", "141608.857500", "141609.857500", "141610.857500", "141611.857500", "141612.857500", "141613.857500", "141614.857500", "141615.857500", "141616.857500", "141617.857500", "141618.857500", "141619.857500", "141620.857500", "141621.857500", "141622.857500", "141623.857500", "141624.857500", "141625.857500", "141626.857500", "141627.857500", "141628.857500", "141629.857500", "141630.857500", "141631.857500", "141632.857500", "141633.857500", "141634.857500", "141635.857500", "141636.857500", "141637.857500", "141638.857500", "141639.857500", "141640.857500", "141641.857500", "141642.857500", "141643.857500", "141644.857500", "141645.857500", "141646.857500", "141647.857500", "141648.857500", "141649.857500", "141650.857500", "141651.857500", "141652.857500", "141653.857500", "141654.857500", "141655.857500", "141656.857500", "141657.857500", "141658.857500", "141659.857500", "141700.857500", "141701.857500", "141702.857500", "141703.857500", "141704.857500", "141705.857500", "141706.857500", "141707.857500", "141708.857500", "141709.857500", "141710.857500", "141711.857500", "141712.857500", "141713.857500", "141714.857500", "141715.857500", "141716.857500", "141717.857500", "141718.857500", "141719.857500", "141720.857500", "141721.857500", "141722.857500", "141723.857500", "141724.857500", "141725.857500", "141726.857500", "141727.857500", "141728.857500", "141729.857500", "141730.857500", "141731.857500", "141732.857500", "141733.857500", "141734.857500", "141735.857500", "141736.857500", "141737.857500", "141738.857500", "141739.857500", "141740.857500", "141741.857500", "141742.857500", "141743.857500", "141744.857500", "141745.857500", "141746.857500", "141747.857500", "141748.857500", "141749.857500", "141750.857500", "141751.857500", "141752.857500", "141753.857500", "141754.857500", "141755.857500", "141756.857500", "141757.857500", "141758.857500", "141759.857500"],
      "ContentTime": ["141426.495000", "141426.527000", "141426.530000", "141426.533000", "141426.536000", "141426.539000", "141426.542000", "141426.545000", "141426.548000", "141426.551000", "141426.554000", "141426.557000", "141426.560000", "141426.563000", "141426.566000", "141426.569000", "141426.572000", "141426.575000", "141426.578000", "141426.581000", "141426.584000", "141426.587000", "141426.596000", "141426.599000", "141426.602000", "141426.605000", "141426.608000", "141426.611000", "141426.614000", "141426.617000", "141426.620000", "141426.623000", "141426.626000", "141426.629000", "141426.632000", "141426.635000", "141426.638000", "141426.641000", "141426.644000", "141426.647000", "141446.461000", "141446.464000", "141446.467000", "141446.470000", "141446.473000", "141446.476000", "141446.479000", "141446.482000", "141446.485000", "141446.488000", "141446.491000", "141446.494000", "141446.497000", "141446.499000", "141446.509000", "141446.512000", "141446.515000", "141446.518000", "141446.520000", "141446.523000", "141446.526000", "141446.529000", "141446.532000", "141446.535000", "141446.538000", "141446.541000", "141446.544000", "141446.547000", "141446.550000", "141506.461000", "141506.464000", "141506.486000", "141506.489000", "141506.492000", "141506.495000", "141506.498000", "141506.501000", "141506.504000", "141506.507000", "141506.510000", "141506.513000", "141506.516000", "141506.519000", "141506.522000", "141506.525000", "141506.527000", "141506.530000", "141506.533000", "141506.536000", "141506.539000", "141506.542000", "141506.545000", "141506.548000", "141506.551000", "141506.554000", "141506.557000", "141506.560000", "141526.461000", "141526.464000", "141526.467000", "141526.470000", "141526.473000", "141526.476000", "141526.479000", "141526.482000", "141526.485000", "141526.488000", "141526.491000", "141526.494000", "141526.497000", "141526.500000", "141526.503000", "141526.506000", "141526.509000", "141526.512000", "141526.515000", "141526.517000", "141526.520000", "141526.523000", "141526.526000", "141526.529000", "141526.532000", "141526.535000", "141526.538000", "141526.541000", "141546.461000", "141546.464000", "141546.467000", "141546.470000", "141546.473000", "141546.476000", "141546.479000", "141546.482000", "141546.485000", "141546.488000", "141546.491000", "141546.494000", "141546.497000", "141546.513000", "141546.516000", "141546.519000", "141546.522000", "141546.525000", "141546.528000", "141546.531000", "141546.534000", "141546.537000", "141546.540000", "141546.543000", "141546.546000", "141546.549000", "141546.551000", "141546.554000", "141606.461000", "141606.464000", "141606.467000", "141606.470000", "141606.473000", "141606.476000", "141606.479000", "141606.489000", "141606.492000", "141606.495000", "141606.498000", "141606.501000", "141606.504000", "141606.507000", "141606.510000", "141606.513000", "141606.516000", "141606.518000", "141606.522000", "141606.525000", "141606.528000", "141606.531000", "141606.534000", "141606.537000", "141606.540000", "141606.543000", "141606.546000", "141606.549000", "141626.461000", "141626.464000", "141626.467000", "141626.470000", "141626.473000", "141626.476000", "141626.479000", "141626.482000", "141626.485000", "141626.488000", "141626.491000", "141626.493000", "141626.496000", "141626.499000", "141626.502000", "141626.505000", "141626.508000", "141626.511000", "141626.514000", "141626.517000", "141626.520000", "141626.523000", "141626.526000", "141646.461000", "141646.464000", "141646.477000", "141646.480000", "141646.483000", "141646.485000", "141646.488000", "141646.491000", "141646.494000", "141646.497000", "141646.500000", "141646.503000", "141646.506000", "141646.509000", "141646.512000", "141646.515000", "141646.518000", "141646.521000", "141646.524000", "141646.527000", "141706.461000", "141706.464000", "141706.467000", "141706.470000", "141706.473000", "141706.476000", "141706.479000", "141706.482000", "141706.485000", "141706.488000", "141706.491000", "141706.494000", "141706.497000", "141706.500000", "141706.503000", "141706.505000", "141706.508000", "141706.511000", "141706.514000", "141706.517000", "141726.461000", "141726.464000", "141726.467000", "141726.470000", "141726.473000", "141726.476000", "141726.489000", "141726.492000", "141726.495000", "141726.498000", "141726.509000", "141726.512000", "141726.515000", "141726.518000", "141726.521000", "141726.524000", "141726.527000", "141726.530000", "141726.533000", "141726.536000", "141746.461000", "141746.464000", "141746.467000", "141746.470000", "141746.473000", "141746.476000", "141746.479000", "141746.482000", "141746.485000", "141746.488000", "141746.491000", "141746.494000", "141746.497000", "141746.500000", "141746.503000", "141746.506000", "141746.509000", "141746.511000", "141746.514000", "141746.517000", "141801.917000", "141801.921000", "141801.924000", "141801.927000", "141801.929000", "141801.932000", "141801.935000", "141801.938000", "141801.941000", "141801.944000", "141801.947000", "141801.950000", "141801.953000", "141801.956000", "141801.959000", "141801.962000"],
      "InstanceCreationTime": ["141426.495000", "141426.527000", "141426.530000", "141426.533000", "141426.536000", "141426.539000", "141426.542000", "141426.545000", "141426.548000", "141426.551000", "141426.554000", "141426.557000", "141426.560000", "141426.563000", "141426.566000", "141426.569000", "141426.572000", "141426.575000", "141426.578000", "141426.581000", "141426.584000", "141426.587000", "141426.596000", "141426.599000", "141426.602000", "141426.605000", "141426.608000", "141426.611000", "141426.614000", "141426.617000", "141426.620000", "141426.623000", "141426.626000", "141426.629000", "141426.632000", "141426.635000", "141426.638000", "141426.641000", "141426.644000", "141426.647000", "141446.461000", "141446.464000", "141446.467000", "141446.470000", "141446.473000", "141446.476000", "141446.479000", "141446.482000", "141446.485000", "141446.488000", "141446.491000", "141446.494000", "141446.497000", "141446.499000", "141446.509000", "141446.512000", "141446.515000", "141446.518000", "141446.520000", "141446.523000", "141446.526000", "141446.529000", "141446.532000", "141446.535000", "141446.538000", "141446.541000", "141446.544000", "141446.547000", "141446.550000", "141506.461000", "141506.464000", "141506.486000", "141506.489000", "141506.492000", "141506.495000", "141506.498000", "141506.501000", "141506.504000", "141506.507000", "141506.510000", "141506.513000", "141506.516000", "141506.519000", "141506.522000", "141506.525000", "141506.527000", "141506.530000", "141506.533000", "141506.536000", "141506.539000", "141506.542000", "141506.545000", "141506.548000", "141506.551000", "141506.554000", "141506.557000", "141506.560000", "141526.461000", "141526.464000", "141526.467000", "141526.470000", "141526.473000", "141526.476000", "141526.479000", "141526.482000", "141526.485000", "141526.488000", "141526.491000", "141526.494000", "141526.497000", "141526.500000", "141526.503000", "141526.506000", "141526.509000", "141526.512000", "141526.515000", "141526.517000", "141526.520000", "141526.523000", "141526.526000", "141526.529000", "141526.532000", "141526.535000", "141526.538000", "141526.541000", "141546.461000", "141546.464000", "141546.467000", "141546.470000", "141546.473000", "141546.476000", "141546.479000", "141546.482000", "141546.485000", "141546.488000", "141546.491000", "141546.494000", "141546.497000", "141546.513000", "141546.516000", "141546.519000", "141546.522000", "141546.525000", "141546.528000", "141546.531000", "141546.534000", "141546.537000", "141546.540000", "141546.543000", "141546.546000", "141546.549000", "141546.551000", "141546.554000", "141606.461000", "141606.464000", "141606.467000", "141606.470000", "141606.473000", "141606.476000", "141606.479000", "141606.489000", "141606.492000", "141606.495000", "141606.498000", "141606.501000", "141606.504000", "141606.507000", "141606.510000", "141606.513000", "141606.516000", "141606.518000", "141606.522000", "141606.525000", "141606.528000", "141606.531000", "141606.534000", "141606.537000", "141606.540000", "141606.543000", "141606.546000", "141606.549000", "141626.461000", "141626.464000", "141626.467000", "141626.470000", "141626.473000", "141626.476000", "141626.479000", "141626.482000", "141626.485000", "141626.488000", "141626.491000", "141626.493000", "141626.496000", "141626.499000", "141626.502000", "141626.505000", "141626.508000", "141626.511000", "141626.514000", "141626.517000", "141626.520000", "141626.523000", "141626.526000", "141646.461000", "141646.464000", "141646.477000", "141646.480000", "141646.483000", "141646.485000", "141646.488000", "141646.491000", "141646.494000", "141646.497000", "141646.500000", "141646.503000", "141646.506000", "141646.509000", "141646.512000", "141646.515000", "141646.518000", "141646.521000", "141646.524000", "141646.527000", "141706.461000", "141706.464000", "141706.467000", "141706.470000", "141706.473000", "141706.476000", "141706.479000", "141706.482000", "141706.485000", "141706.488000", "141706.491000", "141706.494000", "141706.497000", "141706.500000", "141706.503000", "141706.505000", "141706.508000", "141706.511000", "141706.514000", "141706.517000", "141726.461000", "141726.464000", "141726.467000", "141726.470000", "141726.473000", "141726.476000", "141726.489000", "141726.492000", "141726.495000", "141726.498000", "141726.509000", "141726.512000", "141726.515000", "141726.518000", "141726.521000", "141726.524000", "141726.527000", "141726.530000", "141726.533000", "141726.536000", "141746.461000", "141746.464000", "141746.467000", "141746.470000", "141746.473000", "141746.476000", "141746.479000", "141746.482000", "141746.485000", "141746.488000", "141746.491000", "141746.494000", "141746.497000", "141746.500000", "141746.503000", "141746.506000", "141746.509000", "141746.511000", "141746.514000", "141746.517000", "141801.917000", "141801.921000", "141801.924000", "141801.927000", "141801.929000", "141801.932000", "141801.935000", "141801.938000", "141801.941000", "141801.944000", "141801.947000", "141801.950000", "141801.953000", "141801.956000", "141801.959000", "141801.962000"],
      "InstanceNumber": [1, 2, 3, 4, 5, 6, 7, 8, 9, 10, 11, 12, 13, 14, 15, 16, 17, 18, 19, 20, 21, 22, 23, 24, 25, 26, 27, 28, 29, 30, 31, 32, 33, 34, 35, 36, 37, 38, 39, 40, 41, 42, 43, 44, 45, 46, 47, 48, 49, 50, 51, 52, 53, 54, 55, 56, 57, 58, 59, 60, 61, 62, 63, 64, 65, 66, 67, 68, 69, 70, 71, 72, 73, 74, 75, 76, 77, 78, 79, 80, 81, 82, 83, 84, 85, 86, 87, 88, 89, 90, 91, 92, 93, 94, 95, 96, 97, 98, 99, 100, 101, 102, 103, 104, 105, 106, 107, 108, 109, 110, 111, 112, 113, 114, 115, 116, 117, 118, 119, 120, 121, 122, 123, 124, 125, 126, 127, 128, 129, 130, 131, 132, 133, 134, 135, 136, 137, 138, 139, 140, 141, 142, 143, 144, 145, 146, 147, 148, 149, 150, 151, 152, 153, 154, 155, 156, 157, 158, 159, 160, 161, 162, 163, 164, 165, 166, 167, 168, 169, 170, 171, 172, 173, 174, 175, 176, 177, 178, 179, 180, 181, 182, 183, 184, 185, 186, 187, 188, 189, 190, 191, 192, 193, 194, 195, 196, 197, 198, 199, 200, 201, 202, 203, 204, 205, 206, 207, 208, 209, 210, 211, 212, 213, 214, 215, 216, 217, 218, 219, 220, 221, 222, 223, 224, 225, 226, 227, 228, 229, 230, 231, 232, 233, 234, 235, 236, 237, 238, 239, 240, 241, 242, 243, 244, 245, 246, 247, 248, 249, 250, 251, 252, 253, 254, 255, 256, 257, 258, 259, 260, 261, 262, 263, 264, 265, 266, 267, 268, 269, 270, 271, 272, 273, 274, 275, 276, 277, 278, 279, 280, 281, 282, 283, 284, 285, 286, 287, 288, 289, 290, 291, 292, 293, 294, 295, 296, 297, 298, 299, 300],
      "LargestImagePixelValue": [40979, 40008, 39077, 38806, 38576, 38392, 38331, 38852, 38667, 38834, 38839, 38882, 38502, 38333, 38537, 38533, 38218, 38646, 38298, 38335, 38414, 38650, 38145, 38568, 38524, 38902, 38301, 38648, 38972, 38543, 38315, 39279, 39331, 38801, 39205, 38908, 38889, 39556, 39398, 38879, 38596, 39450, 38501, 38225, 38626, 38750, 38053, 39024, 38392, 38405, 38771, 38919, 37850, 38456, 39128, 38245, 38837, 39148, 38320, 38231, 38537, 38298, 38083, 38540, 38066, 38348, 38400, 38851, 38425, 38312, 38741, 38748, 38026, 38065, 38357, 38594, 38091, 38607, 38675, 38221, 38047, 39494, 38750, 38232, 38769, 38892, 38429, 38637, 38966, 38635, 38956, 38869, 38396, 38153, 38743, 38678, 38074, 38816, 38436, 38120, 38135, 38416, 38689, 37813, 38104, 38551, 38318, 38266, 38412, 38359, 38173, 38059, 38803, 38378, 37916, 38258, 38461, 37998, 38192, 38827, 38141, 38080, 38554, 37992, 37970, 38857, 38963, 38826, 38458, 39467, 39316, 38756, 38913, 39128, 38667, 38329, 38623, 37993, 38105, 38115, 38391, 38411, 37829, 38486, 37646, 38321, 38520, 38299, 37997, 38389, 37997, 38002, 38203, 37958, 38420, 38083, 38121, 38038, 38399, 38071, 37848, 38570, 38091, 38002, 38097, 38092, 38552, 38262, 38522, 38360, 38565, 38128, 38342, 38437, 38441, 38876, 38399, 38444, 38823, 38549, 38734, 38704, 38217, 38884, 38364, 38715, 38095, 38171, 38496, 38184, 38341, 38147, 38277, 38265, 38179, 38896, 38448, 38119, 38758, 38202, 37988, 38605, 38593, 38459, 38468, 38337, 38678, 38712, 38427, 38541, 38223, 38542, 38224, 38523, 38486, 38521, 38275, 38414, 38032, 38202, 38442, 38379, 38348, 37881, 38195, 38234, 38513, 38366, 38460, 38336, 38317, 37919, 38621, 38456, 37965, 38099, 38124, 38707, 38205, 38216, 37980, 38024, 38222, 38227, 38579, 37803, 37998, 37998, 38344, 38332, 38220, 38014, 38158, 38259, 38144, 38401, 38331, 38240, 37867, 38105, 38772, 37950, 38240, 38125, 38634, 38499, 38408, 38150, 38482, 37838, 38040, 38025, 38042, 38089, 37998, 38078, 38702, 38572, 37909, 38456, 38271, 38376, 38463, 38357, 38510, 38223, 38089, 38172, 38521, 38453, 37958, 38371, 38216, 38063, 38226, 37998, 38295, 38357, 38271, 37840],
      "WindowCenter": [9992.0, 9950.0, 9922.0, 9911.0, 9909.0, 9885.0, 9880.0, 9888.0, 9879.0, 9878.0, 9885.0, 9894.0, 9889.0, 9888.0, 9884.0, 9887.0, 9873.0, 9880.0, 9873.0, 9862.0, 9853.0, 9859.0, 9846.0, 9850.0, 9849.0, 9862.0, 9864.0, 9874.0, 9888.0, 9876.0, 9870.0, 9889.0, 9889.0, 9882.0, 9889.0, 9881.0, 9865.0, 9869.0, 9876.0, 9872.0, 9875.0, 9888.0, 9876.0, 9868.0, 9874.0, 9867.0, 9862.0, 9882.0, 9877.0, 9877.0, 9878.0, 9883.0, 9856.0, 9852.0, 9865.0, 9850.0, 9847.0, 9865.0, 9864.0, 9860.0, 9869.0, 9867.0, 9853.0, 9858.0, 9855.0, 9850.0, 9840.0, 9846.0, 9831.0, 9828.0, 9829.0, 9835.0, 9827.0, 9828.0, 9837.0, 9852.0, 9846.0, 9859.0, 9862.0, 9849.0, 9848.0, 9866.0, 9854.0, 9854.0, 9862.0, 9875.0, 9863.0, 9869.0, 9869.0, 9854.0, 9859.0, 9854.0, 9846.0, 9839.0, 9858.0, 9860.0, 9855.0, 9869.0, 9879.0, 9869.0, 9868.0, 9868.0, 9864.0, 9844.0, 9848.0, 9850.0, 9854.0, 9847.0, 9855.0, 9857.0, 9857.0, 9859.0, 9871.0, 9866.0, 9854.0, 9859.0, 9859.0, 9853.0, 9853.0, 9867.0, 9855.0, 9851.0, 9860.0, 9859.0, 9859.0, 9867.0, 9879.0, 9866.0, 9861.0, 9888.0, 9888.0, 9877.0, 9890.0, 9893.0, 9895.0, 9897.0, 9905.0, 9882.0, 9865.0, 9856.0, 9863.0, 9858.0, 9846.0, 9860.0, 9846.0, 9849.0, 9843.0, 9852.0, 9843.0, 9842.0, 9853.0, 9854.0, 9847.0, 9846.0, 9855.0, 9843.0, 9835.0, 9828.0, 9825.0, 9817.0, 9817.0, 9836.0, 9832.0, 9831.0, 9833.0, 9835.0, 9849.0, 9848.0, 9844.0, 9851.0, 9858.0, 9846.0, 9851.0, 9852.0, 9859.0, 9872.0, 9869.0, 9877.0, 9888.0, 9887.0, 9882.0, 9881.0, 9861.0, 9869.0, 9865.0, 9872.0, 9874.0, 9875.0, 9890.0, 9890.0, 9884.0, 9876.0, 9880.0, 9865.0, 9863.0, 9883.0, 9872.0, 9873.0, 9892.0, 9872.0, 9864.0, 9879.0, 9878.0, 9873.0, 9871.0, 9857.0, 9869.0, 9853.0, 9851.0, 9852.0, 9848.0, 9854.0, 9856.0, 9872.0, 9882.0, 9883.0, 9883.0, 9891.0, 9876.0, 9874.0, 9875.0, 9885.0, 9882.0, 9870.0, 9870.0, 9874.0, 9865.0, 9863.0, 9857.0, 9856.0, 9853.0, 9848.0, 9874.0, 9871.0, 9872.0, 9875.0, 9874.0, 9879.0, 9879.0, 9873.0, 9873.0, 9864.0, 9848.0, 9850.0, 9875.0, 9859.0, 9864.0, 9857.0, 9862.0, 9854.0, 9854.0, 9855.0, 9870.0, 9870.0, 9870.0, 9872.0, 9881.0, 9878.0, 9866.0, 9873.0, 9885.0, 9879.0, 9887.0, 9883.0, 9894.0, 9896.0, 9890.0, 9883.0, 9893.0, 9875.0, 9880.0, 9871.0, 9872.0, 9871.0, 9864.0, 9862.0, 9870.0, 9870.0, 9850.0, 9865.0, 9872.0, 9873.0, 9873.0, 9879.0, 9873.0, 9866.0, 9853.0, 9865.0, 9866.0, 9872.0, 9868.0, 9876.0, 9869.0, 9875.0, 9883.0, 9885.0, 9893.0, 9887.0, 9893.0, 9882.0],
