{
  "AcquisitionMatrixPE": 104,
  "AcquisitionNumber": 1,
  "AcquisitionTime": "13:52:55.407500",
  "BandwidthPerPixelPhaseEncode": 16.297,
  "BaseResolution": 104,
  "BodyPartExamined": "BRAIN",
  "ConsistencyInfo": "N4_VE11C_LATEST_20160120",
  "ConversionSoftware": "dcm2niix",
  "ConversionSoftwareVersion": "v1.0.20210317",
  "DerivedVendorReportedEchoSpacing": 0.000590009,
  "DeviceSerialNumber": "166018",
  "DwellTime": 2.1e-06,
  "EchoTime": 0.0376,
  "EchoTrainLength": 104,
  "EffectiveEchoSpacing": 0.000590009,
  "FlipAngle": 68,
  "ImageComments": "Unaliased MB6/PE3/LB",
  "ImageOrientationPatientDICOM": [0.999976, -0.00285347, -0.00627495, 0.00209434, 0.993033, -0.117817],
  "ImageType": [
    "ORIGINAL",
    "PRIMARY",
    "M",
    "MB",
    "ND",
    "MOSAIC"
],
  "ImagingFrequency": 123.197,
  "InPlanePhaseEncodingDirectionDICOM": "COL",
  "InstitutionAddress": "Washington Place 6,NYC,NYC,US,10003",
  "InstitutionName": "NYU - CBI",
  "InstitutionalDepartmentName": "Department",
  "MRAcquisitionType": "2D",
  "MagneticFieldStrength": 3,
  "Manufacturer": "Siemens",
  "ManufacturersModelName": "Prisma",
  "Modality": "MR",
  "MultibandAccelerationFactor": 6,
  "PartialFourier": 1,
  "PatientPosition": "HFS",
  "PercentPhaseFOV": 100,
  "PercentSampling": 100,
  "PhaseEncodingDirection": "j",
  "PhaseEncodingSteps": 104,
  "PhaseResolution": 1,
  "PixelBandwidth": 2290,
  "ProcedureStepDescription": "Investigators^Winawer",
  "ProtocolName": "cmrr_mbepi_s6_2mm_66sl_PA_task-wedgering3",
  "PulseSequenceDetails": "%CustomerSeq%\\cmrr_mbep2d_bold",
  "ReceiveCoilActiveElements": "HC1-7",
  "ReceiveCoilName": "HeadNeck_64",
  "ReconMatrixPE": 104,
  "RepetitionTime": 1,
  "SAR": 0.0940058,
  "ScanOptions": "FS",
  "ScanningSequence": "EP",
  "SequenceName": "epfid2d1_104",
  "SequenceVariant": "SK\\SS",
  "SeriesDescription": "cmrr_mbepi_s6_2mm_66sl_PA_task-wedgering3",
  "SeriesNumber": 18,
  "ShimSetting": [299, -12631, -8454, 273, 37, -58, 1, 64],
  "SliceThickness": 2,
  "SliceTiming": [0, 0.535, 0.0875, 0.6225, 0.1775, 0.7125, 0.2675, 0.8, 0.355, 0.89, 0.445, 0, 0.535, 0.0875, 0.6225, 0.1775, 0.7125, 0.2675, 0.8, 0.355, 0.89, 0.445, 0, 0.535, 0.0875, 0.6225, 0.1775, 0.7125, 0.2675, 0.8, 0.355, 0.89, 0.445, 0, 0.535, 0.0875, 0.6225, 0.1775, 0.7125, 0.2675, 0.8, 0.355, 0.89, 0.445, 0, 0.535, 0.0875, 0.6225, 0.1775, 0.7125, 0.2675, 0.8, 0.355, 0.89, 0.445, 0, 0.535, 0.0875, 0.6225, 0.1775, 0.7125, 0.2675, 0.8, 0.355, 0.89, 0.445],
  "SoftwareVersions": "syngo MR E11",
  "SpacingBetweenSlices": 2,
  "StationName": "AWP166018",
  "TaskName": "wedgering3",
  "TotalReadoutTime": 0.060771,
  "TxRefAmp": 292.773,
  "VendorReportedEchoSpacing": 0.00059,
  "WipMemBlock": "9632f673-96af-4dbe-a181-a0e68fe59740||Sequence: R016 ve11c/master r/8780670; Nov 27 2017 15:05:12 by eja",
  "dcmmeta_affine": [
    [-1.9999524354934692, 0.004188675433397293, -0.01313483901321888, 108.76008605957031],
    [0.005706930998712778, 1.9860661029815674, -0.23560276627540588, -64.95633697509766],
    [-0.012549897655844688, 0.23563465476036072, 1.98603093624115, -49.256099700927734],
    [0.0, 0.0, 0.0, 1.0]
],
  "dcmmeta_reorient_transform": [
    [0.0, -1.0, 0.0, 103.0],
    [1.0, 0.0, 0.0, 0.0],
    [0.0, 0.0, 1.0, 0.0],
    [0.0, 0.0, 0.0, 1.0]
],
  "dcmmeta_shape": [104, 104, 66, 300],
  "dcmmeta_slice_dim": 2,
  "dcmmeta_version": 0.6,
  "global": {
    "const": {
      "AccessionNumber": "Lffq0p3i",
      "AcquisitionMatrix": [104, 0, 0, 104],
      "AngioFlag": "N",
      "BitsAllocated": 16,
      "BitsStored": 16,
      "BodyPartExamined": "BRAIN",
      "Columns": 936,
      "EchoNumbers": 1,
      "EchoTime": 37.6,
      "EchoTrainLength": 104,
      "FlipAngle": 68.0,
      "HighBit": 15,
      "ImageOrientationPatient": [0.9999762410922, -0.0028534655954, -0.0062749490212, 0.00209433777121, 0.99303307683678, -0.1178173249458],
      "ImagePositionPatient": [-942.91423855489, -963.43791119637, 78.259041528817],
      "ImageType": [
        "ORIGINAL",
        "PRIMARY",
        "M",
        "MB",
        "ND",
        "MOSAIC"
],
      "ImagedNucleus": "1H",
      "ImagingFrequency": 123.196758,
      "InPlanePhaseEncodingDirection": "COL",
      "MRAcquisitionType": "2D",
      "MagneticFieldStrength": 3.0,
      "Manufacturer": "SIEMENS",
      "ManufacturerModelName": "Prisma",
      "Modality": "MR",
      "NumberOfAverages": 1.0,
      "NumberOfPhaseEncodingSteps": 104,
      "PercentPhaseFieldOfView": 100.0,
      "PercentSampling": 100.0,
      "PerformedProcedureStepStartTime": "131518.465000",
      "PhotometricInterpretation": "MONOCHROME2",
      "PixelBandwidth": 2290.0,
      "PixelRepresentation": 0,
      "PixelSpacing": [2.0, 2.0],
      "ProtocolName": "cmrr_mbepi_s6_2mm_66sl_PA_task-wedgering3",
      "RepetitionTime": 1000.0,
      "Rows": 936,
      "SAR": 0.09400578475125,
      "SamplesPerPixel": 1,
      "ScanOptions": "FS",
      "ScanningSequence": "EP",
      "SequenceName": "epfid2d1_104",
      "SequenceVariant": [
        "SK",
        "SS"
],
      "SeriesDescription": "cmrr_mbepi_s6_2mm_66sl_PA_task-wedgering3",
      "SeriesNumber": 18,
      "SeriesTime": "135353.348000",
      "SliceLocation": -41.974394591277,
      "SliceThickness": 2.0,
      "SmallestImagePixelValue": 0,
      "SoftwareVersions": "syngo MR E11",
      "SpacingBetweenSlices": 2.0000000158623,
      "SpecificCharacterSet": "ISO_IR 100",
      "StudyID": "1",
      "StudyTime": "131518.336000",
      "TransmitCoilName": "Body",
      "VariableFlipAngleFlag": "N",
      "WindowCenterWidthExplanation": "Algo1",
      "dBdt": 0.0},
    "slices": {}
  },
  "time": {
    "samples": {
      "AcquisitionNumber": [1, 2, 3, 4, 5, 6, 7, 8, 9, 10, 11, 12, 13, 14, 15, 16, 17, 18, 19, 20, 21, 22, 23, 24, 25, 26, 27, 28, 29, 30, 31, 32, 33, 34, 35, 36, 37, 38, 39, 40, 41, 42, 43, 44, 45, 46, 47, 48, 49, 50, 51, 52, 53, 54, 55, 56, 57, 58, 59, 60, 61, 62, 63, 64, 65, 66, 67, 68, 69, 70, 71, 72, 73, 74, 75, 76, 77, 78, 79, 80, 81, 82, 83, 84, 85, 86, 87, 88, 89, 90, 91, 92, 93, 94, 95, 96, 97, 98, 99, 100, 101, 102, 103, 104, 105, 106, 107, 108, 109, 110, 111, 112, 113, 114, 115, 116, 117, 118, 119, 120, 121, 122, 123, 124, 125, 126, 127, 128, 129, 130, 131, 132, 133, 134, 135, 136, 137, 138, 139, 140, 141, 142, 143, 144, 145, 146, 147, 148, 149, 150, 151, 152, 153, 154, 155, 156, 157, 158, 159, 160, 161, 162, 163, 164, 165, 166, 167, 168, 169, 170, 171, 172, 173, 174, 175, 176, 177, 178, 179, 180, 181, 182, 183, 184, 185, 186, 187, 188, 189, 190, 191, 192, 193, 194, 195, 196, 197, 198, 199, 200, 201, 202, 203, 204, 205, 206, 207, 208, 209, 210, 211, 212, 213, 214, 215, 216, 217, 218, 219, 220, 221, 222, 223, 224, 225, 226, 227, 228, 229, 230, 231, 232, 233, 234, 235, 236, 237, 238, 239, 240, 241, 242, 243, 244, 245, 246, 247, 248, 249, 250, 251, 252, 253, 254, 255, 256, 257, 258, 259, 260, 261, 262, 263, 264, 265, 266, 267, 268, 269, 270, 271, 272, 273, 274, 275, 276, 277, 278, 279, 280, 281, 282, 283, 284, 285, 286, 287, 288, 289, 290, 291, 292, 293, 294, 295, 296, 297, 298, 299, 300],
      "AcquisitionTime": ["135255.407500", "135256.407500", "135257.407500", "135258.407500", "135259.407500", "135300.407500", "135301.407500", "135302.407500", "135303.407500", "135304.407500", "135305.407500", "135306.407500", "135307.407500", "135308.407500", "135309.407500", "135310.407500", "135311.407500", "135312.407500", "135313.407500", "135314.407500", "135315.407500", "135316.407500", "135317.407500", "135318.407500", "135319.407500", "135320.407500", "135321.407500", "135322.407500", "135323.407500", "135324.407500", "135325.407500", "135326.407500", "135327.407500", "135328.407500", "135329.407500", "135330.407500", "135331.407500", "135332.407500", "135333.407500", "135334.407500", "135335.407500", "135336.407500", "135337.407500", "135338.407500", "135339.407500", "135340.407500", "135341.407500", "135342.407500", "135343.407500", "135344.407500", "135345.407500", "135346.407500", "135347.407500", "135348.407500", "135349.407500", "135350.407500", "135351.407500", "135352.407500", "135353.407500", "135354.407500", "135355.407500", "135356.407500", "135357.407500", "135358.407500", "135359.407500", "135400.407500", "135401.407500", "135402.407500", "135403.407500", "135404.407500", "135405.407500", "135406.407500", "135407.407500", "135408.407500", "135409.407500", "135410.407500", "135411.407500", "135412.407500", "135413.407500", "135414.407500", "135415.407500", "135416.407500", "135417.407500", "135418.407500", "135419.407500", "135420.407500", "135421.407500", "135422.407500", "135423.407500", "135424.407500", "135425.407500", "135426.407500", "135427.407500", "135428.407500", "135429.407500", "135430.407500", "135431.407500", "135432.407500", "135433.407500", "135434.407500", "135435.407500", "135436.407500", "135437.407500", "135438.407500", "135439.407500", "135440.407500", "135441.407500", "135442.407500", "135443.407500", "135444.407500", "135445.407500", "135446.407500", "135447.407500", "135448.407500", "135449.407500", "135450.407500", "135451.407500", "135452.407500", "135453.407500", "135454.407500", "135455.407500", "135456.407500", "135457.407500", "135458.407500", "135459.407500", "135500.407500", "135501.407500", "135502.407500", "135503.407500", "135504.407500", "135505.407500", "135506.407500", "135507.407500", "135508.407500", "135509.407500", "135510.407500", "135511.407500", "135512.407500", "135513.407500", "135514.407500", "135515.407500", "135516.407500", "135517.407500", "135518.407500", "135519.407500", "135520.407500", "135521.407500", "135522.407500", "135523.407500", "135524.407500", "135525.407500", "135526.407500", "135527.407500", "135528.407500", "135529.407500", "135530.407500", "135531.407500", "135532.407500", "135533.407500", "135534.407500", "135535.407500", "135536.407500", "135537.407500", "135538.407500", "135539.407500", "135540.407500", "135541.407500", "135542.407500", "135543.407500", "135544.407500", "135545.407500", "135546.407500", "135547.407500", "135548.407500", "135549.407500", "135550.407500", "135551.407500", "135552.407500", "135553.407500", "135554.407500", "135555.407500", "135556.407500", "135557.407500", "135558.407500", "135559.407500", "135600.407500", "135601.407500", "135602.407500", "135603.407500", "135604.407500", "135605.407500", "135606.407500", "135607.407500", "135608.407500", "135609.407500", "135610.407500", "135611.407500", "135612.407500", "135613.407500", "135614.407500", "135615.407500", "135616.407500", "135617.407500", "135618.407500", "135619.407500", "135620.407500", "135621.407500", "135622.407500", "135623.407500", "135624.407500", "135625.407500", "135626.407500", "135627.407500", "135628.407500", "135629.407500", "135630.407500", "135631.407500", "135632.407500", "135633.407500", "135634.407500", "135635.407500", "135636.407500", "135637.407500", "135638.407500", "135639.407500", "135640.407500", "135641.407500", "135642.407500", "135643.407500", "135644.407500", "135645.407500", "135646.407500", "135647.407500", "135648.407500", "135649.407500", "135650.407500", "135651.407500", "135652.407500", "135653.407500", "135654.407500", "135655.407500", "135656.407500", "135657.407500", "135658.407500", "135659.407500", "135700.407500", "135701.407500", "135702.407500", "135703.407500", "135704.407500", "135705.407500", "135706.407500", "135707.407500", "135708.407500", "135709.407500", "135710.407500", "135711.407500", "135712.407500", "135713.407500", "135714.407500", "135715.407500", "135716.407500", "135717.407500", "135718.407500", "135719.407500", "135720.407500", "135721.407500", "135722.407500", "135723.407500", "135724.407500", "135725.407500", "135726.407500", "135727.407500", "135728.407500", "135729.407500", "135730.407500", "135731.407500", "135732.407500", "135733.407500", "135734.407500", "135735.407500", "135736.407500", "135737.407500", "135738.407500", "135739.407500", "135740.407500", "135741.407500", "135742.407500", "135743.407500", "135744.407500", "135745.407500", "135746.407500", "135747.407500", "135748.407500", "135749.407500", "135750.407500", "135751.407500", "135752.407500", "135753.407500", "135754.407500"],
      "ContentTime": ["135353.351000", "135353.355000", "135353.358000", "135353.361000", "135353.371000", "135353.374000", "135353.378000", "135353.387000", "135353.390000", "135353.393000", "135353.396000", "135353.399000", "135413.313000", "135413.316000", "135413.319000", "135413.322000", "135413.331000", "135413.334000", "135413.337000", "135413.340000", "135413.343000", "135413.346000", "135413.349000", "135413.352000", "135413.355000", "135413.358000", "135413.361000", "135413.364000", "135413.367000", "135413.370000", "135413.373000", "135413.376000", "135413.379000", "135413.382000", "135413.386000", "135413.389000", "135413.392000", "135413.395000", "135413.398000", "135413.401000", "135433.314000", "135433.317000", "135433.320000", "135433.323000", "135433.326000", "135433.329000", "135433.332000", "135433.335000", "135433.346000", "135433.349000", "135433.352000", "135433.355000", "135433.358000", "135433.361000", "135433.364000", "135433.367000", "135433.370000", "135433.373000", "135433.376000", "135433.379000", "135433.382000", "135433.385000", "135433.388000", "135433.391000", "135433.394000", "135433.397000", "135433.400000", "135433.403000", "135453.314000", "135453.317000", "135453.320000", "135453.323000", "135453.327000", "135453.330000", "135453.333000", "135453.336000", "135453.339000", "135453.342000", "135453.358000", "135453.361000", "135453.364000", "135453.367000", "135453.370000", "135453.373000", "135453.376000", "135453.379000", "135453.383000", "135453.386000", "135453.389000", "135453.392000", "135453.395000", "135453.398000", "135453.401000", "135453.404000", "135453.407000", "135453.410000", "135513.328000", "135513.331000", "135513.334000", "135513.337000", "135513.340000", "135513.343000", "135513.346000", "135513.349000", "135513.352000", "135513.355000", "135513.358000", "135513.361000", "135513.364000", "135513.367000", "135513.370000", "135513.373000", "135513.376000", "135513.379000", "135513.382000", "135513.385000", "135513.388000", "135513.391000", "135513.394000", "135513.397000", "135513.400000", "135513.403000", "135513.406000", "135513.409000", "135513.412000", "135533.314000", "135533.317000", "135533.320000", "135533.324000", "135533.327000", "135533.330000", "135533.333000", "135533.336000", "135533.339000", "135533.342000", "135533.345000", "135533.348000", "135533.351000", "135533.354000", "135533.357000", "135533.361000", "135533.364000", "135533.367000", "135533.370000", "135533.373000", "135533.376000", "135533.379000", "135533.382000", "135533.385000", "135533.388000", "135533.391000", "135533.394000", "135533.397000", "135553.313000", "135553.316000", "135553.319000", "135553.323000", "135553.326000", "135553.329000", "135553.332000", "135553.335000", "135553.338000", "135553.341000", "135553.344000", "135553.359000", "135553.362000", "135553.365000", "135553.368000", "135553.371000", "135553.375000", "135553.378000", "135553.381000", "135553.384000", "135553.387000", "135553.390000", "135553.393000", "135553.396000", "135613.313000", "135613.316000", "135613.319000", "135613.322000", "135613.326000", "135613.329000", "135613.332000", "135613.335000", "135613.338000", "135613.341000", "135613.344000", "135613.347000", "135613.350000", "135613.353000", "135613.356000", "135613.359000", "135613.362000", "135613.365000", "135613.368000", "135613.371000", "135633.313000", "135633.316000", "135633.319000", "135633.322000", "135633.325000", "135633.329000", "135633.331000", "135633.334000", "135633.338000", "135633.341000", "135633.344000", "135633.347000", "135633.350000", "135633.353000", "135633.356000", "135633.359000", "135633.362000", "135633.365000", "135633.368000", "135633.371000", "135653.314000", "135653.317000", "135653.320000", "135653.324000", "135653.327000", "135653.330000", "135653.333000", "135653.336000", "135653.339000", "135653.347000", "135653.350000", "135653.353000", "135653.356000", "135653.359000", "135653.362000", "135653.366000", "135653.369000", "135653.372000", "135653.375000", "135653.378000", "135713.314000", "135713.317000", "135713.320000", "135713.324000", "135713.327000", "135713.330000", "135713.333000", "135713.336000", "135713.339000", "135713.342000", "135713.345000", "135713.348000", "135713.351000", "135713.354000", "135713.357000", "135713.361000", "135713.364000", "135713.367000", "135713.370000", "135713.373000", "135733.314000", "135733.317000", "135733.320000", "135733.323000", "135733.326000", "135733.329000", "135733.332000", "135733.335000", "135733.338000", "135733.342000", "135733.345000", "135733.348000", "135733.351000", "135733.354000", "135733.357000", "135733.360000", "135733.363000", "135733.366000", "135733.369000", "135733.372000", "135753.314000", "135753.329000", "135753.332000", "135753.335000", "135753.338000", "135753.341000", "135753.344000", "135753.347000", "135753.350000", "135753.353000", "135753.356000", "135753.359000", "135753.362000", "135753.365000", "135753.368000", "135753.371000", "135753.374000", "135753.377000", "135753.380000", "135753.383000", "135755.740000", "135755.744000", "135755.747000"],
      "InstanceCreationTime": ["135353.351000", "135353.355000", "135353.358000", "135353.361000", "135353.371000", "135353.374000", "135353.378000", "135353.387000", "135353.390000", "135353.393000", "135353.396000", "135353.399000", "135413.313000", "135413.316000", "135413.319000", "135413.322000", "135413.331000", "135413.334000", "135413.337000", "135413.340000", "135413.343000", "135413.346000", "135413.349000", "135413.352000", "135413.355000", "135413.358000", "135413.361000", "135413.364000", "135413.367000", "135413.370000", "135413.373000", "135413.376000", "135413.379000", "135413.382000", "135413.386000", "135413.389000", "135413.392000", "135413.395000", "135413.398000", "135413.401000", "135433.314000", "135433.317000", "135433.320000", "135433.323000", "135433.326000", "135433.329000", "135433.332000", "135433.335000", "135433.346000", "135433.349000", "135433.352000", "135433.355000", "135433.358000", "135433.361000", "135433.364000", "135433.367000", "135433.370000", "135433.373000", "135433.376000", "135433.379000", "135433.382000", "135433.385000", "135433.388000", "135433.391000", "135433.394000", "135433.397000", "135433.400000", "135433.403000", "135453.314000", "135453.317000", "135453.320000", "135453.323000", "135453.327000", "135453.330000", "135453.333000", "135453.336000", "135453.339000", "135453.342000", "135453.358000", "135453.361000", "135453.364000", "135453.367000", "135453.370000", "135453.373000", "135453.376000", "135453.379000", "135453.383000", "135453.386000", "135453.389000", "135453.392000", "135453.395000", "135453.398000", "135453.401000", "135453.404000", "135453.407000", "135453.410000", "135513.328000", "135513.331000", "135513.334000", "135513.337000", "135513.340000", "135513.343000", "135513.346000", "135513.349000", "135513.352000", "135513.355000", "135513.358000", "135513.361000", "135513.364000", "135513.367000", "135513.370000", "135513.373000", "135513.376000", "135513.379000", "135513.382000", "135513.385000", "135513.388000", "135513.391000", "135513.394000", "135513.397000", "135513.400000", "135513.403000", "135513.406000", "135513.409000", "135513.412000", "135533.314000", "135533.317000", "135533.320000", "135533.324000", "135533.327000", "135533.330000", "135533.333000", "135533.336000", "135533.339000", "135533.342000", "135533.345000", "135533.348000", "135533.351000", "135533.354000", "135533.357000", "135533.361000", "135533.364000", "135533.367000", "135533.370000", "135533.373000", "135533.376000", "135533.379000", "135533.382000", "135533.385000", "135533.388000", "135533.391000", "135533.394000", "135533.397000", "135553.313000", "135553.316000", "135553.319000", "135553.323000", "135553.326000", "135553.329000", "135553.332000", "135553.335000", "135553.338000", "135553.341000", "135553.344000", "135553.359000", "135553.362000", "135553.365000", "135553.368000", "135553.371000", "135553.375000", "135553.378000", "135553.381000", "135553.384000", "135553.387000", "135553.390000", "135553.393000", "135553.396000", "135613.313000", "135613.316000", "135613.319000", "135613.322000", "135613.326000", "135613.329000", "135613.332000", "135613.335000", "135613.338000", "135613.341000", "135613.344000", "135613.347000", "135613.350000", "135613.353000", "135613.356000", "135613.359000", "135613.362000", "135613.365000", "135613.368000", "135613.371000", "135633.313000", "135633.316000", "135633.319000", "135633.322000", "135633.325000", "135633.329000", "135633.331000", "135633.334000", "135633.338000", "135633.341000", "135633.344000", "135633.347000", "135633.350000", "135633.353000", "135633.356000", "135633.359000", "135633.362000", "135633.365000", "135633.368000", "135633.371000", "135653.314000", "135653.317000", "135653.320000", "135653.324000", "135653.327000", "135653.330000", "135653.333000", "135653.336000", "135653.339000", "135653.347000", "135653.350000", "135653.353000", "135653.356000", "135653.359000", "135653.362000", "135653.366000", "135653.369000", "135653.372000", "135653.375000", "135653.378000", "135713.314000", "135713.317000", "135713.320000", "135713.324000", "135713.327000", "135713.330000", "135713.333000", "135713.336000", "135713.339000", "135713.342000", "135713.345000", "135713.348000", "135713.351000", "135713.354000", "135713.357000", "135713.361000", "135713.364000", "135713.367000", "135713.370000", "135713.373000", "135733.314000", "135733.317000", "135733.320000", "135733.323000", "135733.326000", "135733.329000", "135733.332000", "135733.335000", "135733.338000", "135733.342000", "135733.345000", "135733.348000", "135733.351000", "135733.354000", "135733.357000", "135733.360000", "135733.363000", "135733.366000", "135733.369000", "135733.372000", "135753.314000", "135753.329000", "135753.332000", "135753.335000", "135753.338000", "135753.341000", "135753.344000", "135753.347000", "135753.350000", "135753.353000", "135753.356000", "135753.359000", "135753.362000", "135753.365000", "135753.368000", "135753.371000", "135753.374000", "135753.377000", "135753.380000", "135753.383000", "135755.740000", "135755.744000", "135755.747000"],
      "InstanceNumber": [1, 2, 3, 4, 5, 6, 7, 8, 9, 10, 11, 12, 13, 14, 15, 16, 17, 18, 19, 20, 21, 22, 23, 24, 25, 26, 27, 28, 29, 30, 31, 32, 33, 34, 35, 36, 37, 38, 39, 40, 41, 42, 43, 44, 45, 46, 47, 48, 49, 50, 51, 52, 53, 54, 55, 56, 57, 58, 59, 60, 61, 62, 63, 64, 65, 66, 67, 68, 69, 70, 71, 72, 73, 74, 75, 76, 77, 78, 79, 80, 81, 82, 83, 84, 85, 86, 87, 88, 89, 90, 91, 92, 93, 94, 95, 96, 97, 98, 99, 100, 101, 102, 103, 104, 105, 106, 107, 108, 109, 110, 111, 112, 113, 114, 115, 116, 117, 118, 119, 120, 121, 122, 123, 124, 125, 126, 127, 128, 129, 130, 131, 132, 133, 134, 135, 136, 137, 138, 139, 140, 141, 142, 143, 144, 145, 146, 147, 148, 149, 150, 151, 152, 153, 154, 155, 156, 157, 158, 159, 160, 161, 162, 163, 164, 165, 166, 167, 168, 169, 170, 171, 172, 173, 174, 175, 176, 177, 178, 179, 180, 181, 182, 183, 184, 185, 186, 187, 188, 189, 190, 191, 192, 193, 194, 195, 196, 197, 198, 199, 200, 201, 202, 203, 204, 205, 206, 207, 208, 209, 210, 211, 212, 213, 214, 215, 216, 217, 218, 219, 220, 221, 222, 223, 224, 225, 226, 227, 228, 229, 230, 231, 232, 233, 234, 235, 236, 237, 238, 239, 240, 241, 242, 243, 244, 245, 246, 247, 248, 249, 250, 251, 252, 253, 254, 255, 256, 257, 258, 259, 260, 261, 262, 263, 264, 265, 266, 267, 268, 269, 270, 271, 272, 273, 274, 275, 276, 277, 278, 279, 280, 281, 282, 283, 284, 285, 286, 287, 288, 289, 290, 291, 292, 293, 294, 295, 296, 297, 298, 299, 300],
      "LargestImagePixelValue": [56846, 56734, 55402, 55089, 54421, 56129, 56650, 59542, 57261, 56456, 59739, 59183, 55573, 59690, 56729, 57036, 57381, 58672, 54612, 56265, 54684, 55619, 61665, 60924, 58280, 59932, 56645, 56086, 58421, 56034, 60042, 61361, 59301, 59075, 60613, 57467, 56074, 59251, 56403, 55237, 61013, 58500, 57469, 60498, 57559, 57505, 59089, 57227, 59636, 58241, 56794, 59805, 57733, 56401, 58873, 57615, 56978, 61439, 60930, 57452, 57860, 56942, 55924, 55291, 54446, 56663, 56216, 57291, 55721, 58899, 58446, 57713, 60875, 59788, 55437, 57662, 55631, 56010, 57156, 59171, 54759, 57944, 56145, 55804, 60263, 58946, 55343, 59241, 56378, 54989, 58296, 54923, 57098, 59973, 59210, 58293, 60492, 59127, 55488, 58976, 58404, 55998, 56567, 58735, 55553, 57986, 60651, 57804, 61518, 61560, 58349, 55896, 58915, 57672, 55439, 58922, 58753, 57056, 60540, 59867, 57052, 58962, 57414, 56767, 57225, 55344, 55873, 57617, 55136, 59020, 57746, 56209, 58491, 58907, 59918, 58997, 56496, 55151, 59572, 59411, 55627, 60860, 56047, 57589, 56887, 57436, 56161, 57605, 59479, 55624, 56702, 57903, 56523, 57908, 56320, 56645, 60018, 59557, 58472, 58071, 57397, 55534, 55895, 60177, 55858, 56985, 58547, 55406, 56910, 60683, 60007, 57833, 60149, 56804, 55414, 57873, 55316, 55654, 56712, 56337, 55585, 56321, 56512, 59632, 59716, 56028, 58847, 59605, 54668, 55464, 55796, 55952, 56708, 56761, 55807, 55570, 55549, 55978, 59201, 56955, 55505, 59714, 59196, 59136, 59168, 55386, 60269, 57110, 57389, 56871, 56143, 56365, 57024, 54685, 56018, 54700, 55372, 55949, 54745, 55469, 56357, 55695, 54910, 55485, 59828, 57616, 55921, 55472, 57324, 57951, 59351, 59811, 59177, 54770, 55454, 56108, 56092, 56539, 57373, 57555, 59140, 58158, 58810, 58949, 57535, 58956, 56788, 57188, 61437, 57412, 57028, 59157, 60003, 59039, 59772, 58976, 57049, 58462, 57952, 56370, 58554, 57716, 57211, 57312, 56052, 55924, 57202, 56006, 58919, 55842, 55777, 56531, 56084, 55950, 54870, 58533, 57484, 57295, 57624, 56221, 55704, 54703, 56128, 56596, 56998, 55812, 56775, 56290, 58025, 57266, 55439, 57968, 55331, 57303, 55831, 57423, 55645, 57626, 56912, 54881],
      "WindowCenter": [10631.0, 10602.0, 10569.0, 10568.0, 10553.0, 10571.0, 10573.0, 10591.0, 10586.0, 10589.0, 10616.0, 10607.0, 10589.0, 10640.0, 10631.0, 10653.0, 10639.0, 10620.0, 10579.0, 10580.0, 10566.0, 10575.0, 10616.0, 10602.0, 10596.0, 10610.0, 10587.0, 10576.0, 10583.0, 10565.0, 10595.0, 10601.0, 10603.0, 10612.0, 10619.0, 10598.0, 10580.0, 10584.0, 10559.0, 10551.0, 10589.0, 10567.0, 10571.0, 10582.0, 10562.0, 10563.0, 10580.0, 10566.0, 10583.0, 10582.0, 10576.0, 10602.0, 10578.0, 10560.0, 10566.0, 10559.0, 10565.0, 10602.0, 10601.0, 10595.0, 10603.0, 10609.0, 10602.0, 10589.0, 10558.0, 10570.0, 10561.0, 10557.0, 10540.0, 10564.0, 10558.0, 10565.0, 10595.0, 10591.0, 10577.0, 10603.0, 10583.0, 10583.0, 10578.0, 10576.0, 10539.0, 10564.0, 10549.0, 10553.0, 10578.0, 10573.0, 10558.0, 10589.0, 10565.0, 10560.0, 10580.0, 10555.0, 10573.0, 10588.0, 10581.0, 10593.0, 10625.0, 10627.0, 10621.0, 10632.0, 10606.0, 10569.0, 10564.0, 10569.0, 10552.0, 10571.0, 10593.0, 10580.0, 10604.0, 10602.0, 10578.0, 10573.0, 10591.0, 10572.0, 10551.0, 10565.0, 10558.0, 10543.0, 10569.0, 10562.0, 10540.0, 10549.0, 10540.0, 10536.0, 10533.0, 10524.0, 10532.0, 10539.0, 10526.0, 10552.0, 10546.0, 10546.0, 10559.0, 10560.0, 10571.0, 10565.0, 10569.0, 10571.0, 10615.0, 10616.0, 10604.0, 10650.0, 10606.0, 10618.0, 10594.0, 10583.0, 10595.0, 10593.0, 10608.0, 10587.0, 10617.0, 10622.0, 10596.0, 10605.0, 10576.0, 10564.0, 10622.0, 10589.0, 10588.0, 10579.0, 10569.0, 10555.0, 10558.0, 10588.0, 10565.0, 10581.0, 10598.0, 10581.0, 10598.0, 10620.0, 10622.0, 10619.0, 10638.0, 10615.0, 10592.0, 10596.0, 10557.0, 10557.0, 10559.0, 10550.0, 10545.0, 10538.0, 10539.0, 10570.0, 10577.0, 10566.0, 10584.0, 10589.0, 10555.0, 10572.0, 10578.0, 10596.0, 10595.0, 10581.0, 10565.0, 10552.0, 10547.0, 10553.0, 10568.0, 10556.0, 10563.0, 10592.0, 10585.0, 10591.0, 10600.0, 10583.0, 10680.0, 10616.0, 10612.0, 10605.0, 10583.0, 10572.0, 10575.0, 10554.0, 10562.0, 10546.0, 10546.0, 10543.0, 10537.0, 10534.0, 10550.0, 10543.0, 10543.0, 10557.0, 10581.0, 10574.0, 10576.0, 10581.0, 10585.0, 10590.0, 10654.0, 10656.0, 10629.0, 10552.0, 10550.0, 10554.0, 10545.0, 10540.0, 10525.0, 10515.0, 10530.0, 10508.0, 10523.0, 10531.0, 10522.0, 10551.0, 10546.0, 10562.0, 10607.0, 10588.0, 10601.0, 10627.0, 10651.0, 10631.0, 10626.0, 10614.0, 10578.0, 10589.0, 10582.0, 10562.0, 10576.0, 10573.0, 10573.0, 10572.0, 10571.0, 10577.0, 10600.0, 10581.0, 10595.0, 10575.0, 10578.0, 10598.0, 10605.0, 10609.0, 10580.0, 10598.0, 10581.0, 10564.0, 10563.0, 10546.0, 10541.0, 10529.0, 10532.0, 10537.0, 10536.0, 10523.0, 10530.0, 10540.0, 10540.0, 10548.0, 10554.0, 10583.0, 10566.0, 10584.0, 10570.0, 10577.0, 10566.0, 10579.0, 10573.0, 10575.0],
