{
  "AcquisitionMatrixPE": 104,
  "AcquisitionNumber": 1,
  "AcquisitionTime": "10:40:23.570000",
  "BandwidthPerPixelPhaseEncode": 16.297,
  "BaseResolution": 104,
  "BodyPartExamined": "BRAIN",
  "ConsistencyInfo": "N4_VE11C_LATEST_20160120",
  "ConversionSoftware": "dcm2niix",
  "ConversionSoftwareVersion": "v1.0.20210317",
  "DerivedVendorReportedEchoSpacing": 0.000590009,
  "DeviceSerialNumber": "166018",
  "DwellTime": 2.1e-06,
  "EchoTime": 0.0376,
  "EchoTrainLength": 104,
  "EffectiveEchoSpacing": 0.000590009,
  "FlipAngle": 68,
  "ImageComments": "Unaliased MB6/PE3/LB",
  "ImageOrientationPatientDICOM": [0.999879, 0.0150579, 0.00401334, -0.0129145, 0.944808, -0.327371],
  "ImageType": [
    "ORIGINAL",
    "PRIMARY",
    "M",
    "MB",
    "ND",
    "MOSAIC"
],
  "ImagingFrequency": 123.197,
  "InPlanePhaseEncodingDirectionDICOM": "COL",
  "InstitutionAddress": "Washington Place 6,NYC,NYC,US,10003",
  "InstitutionName": "NYU - CBI",
  "InstitutionalDepartmentName": "Department",
  "MRAcquisitionType": "2D",
  "MagneticFieldStrength": 3,
  "Manufacturer": "Siemens",
  "ManufacturersModelName": "Prisma",
  "Modality": "MR",
  "MultibandAccelerationFactor": 6,
  "PartialFourier": 1,
  "PatientPosition": "HFS",
  "PercentPhaseFOV": 100,
  "PercentSampling": 100,
  "PhaseEncodingDirection": "j",
  "PhaseEncodingSteps": 104,
  "PhaseResolution": 1,
  "PixelBandwidth": 2290,
  "ProcedureStepDescription": "Investigators^Winawer",
  "ProtocolName": "cmrr_mbepi_s6_2mm_66sl_PA_task-bar3",
  "PulseSequenceDetails": "%CustomerSeq%\\cmrr_mbep2d_bold",
  "ReceiveCoilActiveElements": "HC1-7",
  "ReceiveCoilName": "HeadNeck_64",
  "ReconMatrixPE": 104,
  "RepetitionTime": 1,
  "SAR": 0.0676004,
  "ScanOptions": "FS",
  "ScanningSequence": "EP",
  "SequenceName": "epfid2d1_104",
  "SequenceVariant": "SK\\SS",
  "SeriesDescription": "cmrr_mbepi_s6_2mm_66sl_PA_task-bar3",
  "SeriesNumber": 16,
  "ShimSetting": [301, -12577, -8458, 394, 57, 122, -107, 27],
  "SliceThickness": 2,
  "SliceTiming": [0, 0.535, 0.09, 0.625, 0.18, 0.715, 0.2675, 0.8025, 0.3575, 0.8925, 0.4475, 0, 0.535, 0.09, 0.625, 0.18, 0.715, 0.2675, 0.8025, 0.3575, 0.8925, 0.4475, 0, 0.535, 0.09, 0.625, 0.18, 0.715, 0.2675, 0.8025, 0.3575, 0.8925, 0.4475, 0, 0.535, 0.09, 0.625, 0.18, 0.715, 0.2675, 0.8025, 0.3575, 0.8925, 0.4475, 0, 0.535, 0.09, 0.625, 0.18, 0.715, 0.2675, 0.8025, 0.3575, 0.8925, 0.4475, 0, 0.535, 0.09, 0.625, 0.18, 0.715, 0.2675, 0.8025, 0.3575, 0.8925, 0.4475],
  "SoftwareVersions": "syngo MR E11",
  "SpacingBetweenSlices": 2,
  "StationName": "AWP166018",
  "TaskName": "bar3",
  "TotalReadoutTime": 0.060771,
  "TxRefAmp": 216.184,
  "VendorReportedEchoSpacing": 0.00059,
  "WipMemBlock": "c62aff3f-de57-46fa-b738-00cb0609cf09||Sequence: R016 ve11c/master r/8780670; Nov 27 2017 15:05:12 by eja",
  "dcmmeta_affine": [
    [-1.999757170677185, -0.025829024612903595, 0.017442695796489716, 107.87905883789062],
    [-0.030115753412246704, 1.8896151781082153, -0.6545590162277222, -58.330081939697266],
    [0.008026680909097195, 0.6547421813011169, 1.8897745609283447, -70.65377807617188],
    [0.0, 0.0, 0.0, 1.0]
],
  "dcmmeta_reorient_transform": [
    [0.0, -1.0, 0.0, 103.0],
    [1.0, 0.0, 0.0, 0.0],
    [0.0, 0.0, 1.0, 0.0],
    [0.0, 0.0, 0.0, 1.0]
],
  "dcmmeta_shape": [104, 104, 66, 300],
  "dcmmeta_slice_dim": 2,
  "dcmmeta_version": 0.6,
  "global": {
    "const": {
      "AccessionNumber": "Lepz142f",
      "AcquisitionMatrix": [104, 0, 0, 104],
      "AngioFlag": "N",
      "BitsAllocated": 16,
      "BitsStored": 16,
      "BodyPartExamined": "BRAIN",
      "Columns": 936,
      "EchoNumbers": 1,
      "EchoTime": 37.6,
      "EchoTrainLength": 104,
      "FlipAngle": 68.0,
      "HighBit": 15,
      "ImageOrientationPatient": [0.99987856935427, 0.0150578764862, 0.00401334047721, -0.0129145125199, 0.94480758894292, -0.3273710971394],
      "ImagePositionPatient": [-926.37276548973, -934.9083493233, 265.81832440817],
      "ImageType": [
        "ORIGINAL",
        "PRIMARY",
        "M",
        "MB",
        "ND",
        "MOSAIC"
],
      "ImagedNucleus": "1H",
      "ImagingFrequency": 123.19682,
      "InPlanePhaseEncodingDirection": "COL",
      "MRAcquisitionType": "2D",
      "MagneticFieldStrength": 3.0,
      "Manufacturer": "SIEMENS",
      "ManufacturerModelName": "Prisma",
      "Modality": "MR",
      "NumberOfAverages": 1.0,
      "NumberOfPhaseEncodingSteps": 104,
      "PercentPhaseFieldOfView": 100.0,
      "PercentSampling": 100.0,
      "PerformedProcedureStepStartTime": "095629.205000",
      "PhotometricInterpretation": "MONOCHROME2",
      "PixelBandwidth": 2290.0,
      "PixelRepresentation": 0,
      "PixelSpacing": [2.0, 2.0],
      "ProtocolName": "cmrr_mbepi_s6_2mm_66sl_PA_task-bar3",
      "RepetitionTime": 1000.0,
      "Rows": 936,
      "SAR": 0.06760036574789,
      "SamplesPerPixel": 1,
      "ScanOptions": "FS",
      "ScanningSequence": "EP",
      "SequenceName": "epfid2d1_104",
      "SequenceVariant": [
        "SK",
        "SS"
],
      "SeriesDescription": "cmrr_mbepi_s6_2mm_66sl_PA_task-bar3",
      "SeriesNumber": 16,
      "SeriesTime": "104146.333000",
      "SliceLocation": -46.72876516706,
      "SliceThickness": 2.0,
      "SmallestImagePixelValue": 0,
      "SoftwareVersions": "syngo MR E11",
      "SpacingBetweenSlices": 1.9999999591661,
      "SpecificCharacterSet": "ISO_IR 100",
      "StudyID": "1",
      "StudyTime": "095629.138000",
      "TransmitCoilName": "Body",
      "VariableFlipAngleFlag": "N",
      "WindowCenterWidthExplanation": "Algo1",
      "dBdt": 0.0},
    "slices": {}
  },
  "time": {
    "samples": {
      "AcquisitionNumber": [1, 2, 3, 4, 5, 6, 7, 8, 9, 10, 11, 12, 13, 14, 15, 16, 17, 18, 19, 20, 21, 22, 23, 24, 25, 26, 27, 28, 29, 30, 31, 32, 33, 34, 35, 36, 37, 38, 39, 40, 41, 42, 43, 44, 45, 46, 47, 48, 49, 50, 51, 52, 53, 54, 55, 56, 57, 58, 59, 60, 61, 62, 63, 64, 65, 66, 67, 68, 69, 70, 71, 72, 73, 74, 75, 76, 77, 78, 79, 80, 81, 82, 83, 84, 85, 86, 87, 88, 89, 90, 91, 92, 93, 94, 95, 96, 97, 98, 99, 100, 101, 102, 103, 104, 105, 106, 107, 108, 109, 110, 111, 112, 113, 114, 115, 116, 117, 118, 119, 120, 121, 122, 123, 124, 125, 126, 127, 128, 129, 130, 131, 132, 133, 134, 135, 136, 137, 138, 139, 140, 141, 142, 143, 144, 145, 146, 147, 148, 149, 150, 151, 152, 153, 154, 155, 156, 157, 158, 159, 160, 161, 162, 163, 164, 165, 166, 167, 168, 169, 170, 171, 172, 173, 174, 175, 176, 177, 178, 179, 180, 181, 182, 183, 184, 185, 186, 187, 188, 189, 190, 191, 192, 193, 194, 195, 196, 197, 198, 199, 200, 201, 202, 203, 204, 205, 206, 207, 208, 209, 210, 211, 212, 213, 214, 215, 216, 217, 218, 219, 220, 221, 222, 223, 224, 225, 226, 227, 228, 229, 230, 231, 232, 233, 234, 235, 236, 237, 238, 239, 240, 241, 242, 243, 244, 245, 246, 247, 248, 249, 250, 251, 252, 253, 254, 255, 256, 257, 258, 259, 260, 261, 262, 263, 264, 265, 266, 267, 268, 269, 270, 271, 272, 273, 274, 275, 276, 277, 278, 279, 280, 281, 282, 283, 284, 285, 286, 287, 288, 289, 290, 291, 292, 293, 294, 295, 296, 297, 298, 299, 300],
      "AcquisitionTime": ["104023.570000", "104024.570000", "104025.570000", "104026.570000", "104027.570000", "104028.570000", "104029.570000", "104030.570000", "104031.570000", "104032.570000", "104033.570000", "104034.570000", "104035.570000", "104036.570000", "104037.570000", "104038.570000", "104039.570000", "104040.570000", "104041.570000", "104042.570000", "104043.570000", "104044.570000", "104045.570000", "104046.570000", "104047.570000", "104048.570000", "104049.570000", "104050.570000", "104051.570000", "104052.570000", "104053.570000", "104054.570000", "104055.570000", "104056.570000", "104057.570000", "104058.570000", "104059.570000", "104100.570000", "104101.570000", "104102.570000", "104103.570000", "104104.570000", "104105.570000", "104106.570000", "104107.570000", "104108.570000", "104109.570000", "104110.570000", "104111.570000", "104112.570000", "104113.570000", "104114.570000", "104115.570000", "104116.570000", "104117.570000", "104118.570000", "104119.570000", "104120.570000", "104121.570000", "104122.570000", "104123.570000", "104124.570000", "104125.570000", "104126.570000", "104127.570000", "104128.570000", "104129.570000", "104130.570000", "104131.570000", "104132.570000", "104133.570000", "104134.570000", "104135.570000", "104136.570000", "104137.570000", "104138.570000", "104139.570000", "104140.570000", "104141.570000", "104142.570000", "104143.570000", "104144.570000", "104145.570000", "104146.570000", "104147.570000", "104148.570000", "104149.570000", "104150.570000", "104151.570000", "104152.570000", "104153.570000", "104154.570000", "104155.570000", "104156.570000", "104157.570000", "104158.570000", "104159.570000", "104200.570000", "104201.570000", "104202.570000", "104203.570000", "104204.570000", "104205.570000", "104206.570000", "104207.570000", "104208.570000", "104209.570000", "104210.570000", "104211.570000", "104212.570000", "104213.570000", "104214.570000", "104215.570000", "104216.570000", "104217.570000", "104218.570000", "104219.570000", "104220.570000", "104221.570000", "104222.570000", "104223.570000", "104224.570000", "104225.570000", "104226.570000", "104227.570000", "104228.570000", "104229.570000", "104230.570000", "104231.570000", "104232.570000", "104233.570000", "104234.570000", "104235.570000", "104236.570000", "104237.570000", "104238.570000", "104239.570000", "104240.570000", "104241.570000", "104242.570000", "104243.570000", "104244.570000", "104245.570000", "104246.570000", "104247.570000", "104248.570000", "104249.570000", "104250.570000", "104251.570000", "104252.570000", "104253.570000", "104254.570000", "104255.570000", "104256.570000", "104257.570000", "104258.570000", "104259.570000", "104300.570000", "104301.570000", "104302.570000", "104303.570000", "104304.570000", "104305.570000", "104306.570000", "104307.570000", "104308.570000", "104309.570000", "104310.570000", "104311.570000", "104312.570000", "104313.570000", "104314.570000", "104315.570000", "104316.570000", "104317.570000", "104318.570000", "104319.570000", "104320.570000", "104321.570000", "104322.570000", "104323.570000", "104324.570000", "104325.570000", "104326.570000", "104327.570000", "104328.570000", "104329.570000", "104330.570000", "104331.570000", "104332.570000", "104333.570000", "104334.570000", "104335.570000", "104336.570000", "104337.570000", "104338.570000", "104339.570000", "104340.570000", "104341.570000", "104342.570000", "104343.570000", "104344.570000", "104345.570000", "104346.570000", "104347.570000", "104348.570000", "104349.570000", "104350.570000", "104351.570000", "104352.570000", "104353.570000", "104354.570000", "104355.570000", "104356.570000", "104357.570000", "104358.570000", "104359.570000", "104400.570000", "104401.570000", "104402.570000", "104403.570000", "104404.570000", "104405.570000", "104406.570000", "104407.570000", "104408.570000", "104409.570000", "104410.570000", "104411.570000", "104412.570000", "104413.570000", "104414.570000", "104415.570000", "104416.570000", "104417.570000", "104418.570000", "104419.570000", "104420.570000", "104421.570000", "104422.570000", "104423.570000", "104424.570000", "104425.570000", "104426.570000", "104427.570000", "104428.570000", "104429.570000", "104430.570000", "104431.570000", "104432.570000", "104433.570000", "104434.570000", "104435.570000", "104436.570000", "104437.570000", "104438.570000", "104439.570000", "104440.570000", "104441.570000", "104442.570000", "104443.570000", "104444.570000", "104445.570000", "104446.570000", "104447.570000", "104448.570000", "104449.570000", "104450.570000", "104451.570000", "104452.570000", "104453.570000", "104454.570000", "104455.570000", "104456.570000", "104457.570000", "104458.570000", "104459.570000", "104500.570000", "104501.570000", "104502.570000", "104503.570000", "104504.570000", "104505.570000", "104506.570000", "104507.570000", "104508.570000", "104509.570000", "104510.570000", "104511.570000", "104512.570000", "104513.570000", "104514.570000", "104515.570000", "104516.570000", "104517.570000", "104518.570000", "104519.570000", "104520.570000", "104521.570000", "104522.570000"],
      "ContentTime": ["104146.336000", "104146.339000", "104146.342000", "104146.345000", "104146.353000", "104146.356000", "104146.359000", "104146.362000", "104146.365000", "104146.369000", "104146.372000", "104146.375000", "104146.378000", "104146.381000", "104146.384000", "104146.387000", "104146.390000", "104146.393000", "104146.396000", "104146.399000", "104146.402000", "104146.405000", "104146.408000", "104146.411000", "104146.414000", "104146.417000", "104146.420000", "104146.423000", "104146.426000", "104146.429000", "104146.432000", "104146.435000", "104146.438000", "104146.441000", "104146.444000", "104146.447000", "104146.450000", "104146.453000", "104146.464000", "104146.467000", "104146.470000", "104146.473000", "104146.476000", "104146.479000", "104146.482000", "104146.485000", "104146.488000", "104206.306000", "104206.309000", "104206.312000", "104206.315000", "104206.318000", "104206.321000", "104206.324000", "104206.327000", "104206.330000", "104206.333000", "104206.336000", "104206.339000", "104206.342000", "104206.345000", "104206.348000", "104206.351000", "104206.354000", "104206.357000", "104206.360000", "104206.363000", "104206.366000", "104206.369000", "104206.372000", "104206.375000", "104206.378000", "104206.381000", "104206.384000", "104206.387000", "104206.390000", "104226.306000", "104226.309000", "104226.312000", "104226.315000", "104226.318000", "104226.321000", "104226.324000", "104226.327000", "104226.330000", "104226.333000", "104226.336000", "104226.339000", "104226.342000", "104226.345000", "104226.348000", "104226.351000", "104226.354000", "104226.357000", "104226.360000", "104226.363000", "104226.366000", "104226.369000", "104226.372000", "104226.375000", "104226.378000", "104226.392000", "104226.395000", "104226.398000", "104246.306000", "104246.309000", "104246.312000", "104246.315000", "104246.318000", "104246.321000", "104246.324000", "104246.327000", "104246.330000", "104246.333000", "104246.336000", "104246.339000", "104246.342000", "104246.345000", "104246.348000", "104246.351000", "104246.354000", "104246.357000", "104246.360000", "104246.363000", "104246.366000", "104246.369000", "104246.372000", "104246.375000", "104246.378000", "104246.381000", "104246.384000", "104246.396000", "104246.406000", "104306.307000", "104306.310000", "104306.313000", "104306.316000", "104306.319000", "104306.322000", "104306.325000", "104306.328000", "104306.331000", "104306.334000", "104306.337000", "104306.340000", "104306.343000", "104306.346000", "104306.349000", "104306.352000", "104306.355000", "104306.358000", "104306.361000", "104306.364000", "104306.367000", "104306.370000", "104306.373000", "104306.376000", "104306.379000", "104306.382000", "104306.385000", "104306.388000", "104326.307000", "104326.310000", "104326.313000", "104326.316000", "104326.319000", "104326.322000", "104326.325000", "104326.328000", "104326.331000", "104326.334000", "104326.337000", "104326.340000", "104326.343000", "104326.346000", "104326.349000", "104326.352000", "104326.355000", "104326.358000", "104326.361000", "104326.364000", "104326.367000", "104346.306000", "104346.309000", "104346.312000", "104346.315000", "104346.318000", "104346.321000", "104346.324000", "104346.327000", "104346.330000", "104346.333000", "104346.336000", "104346.339000", "104346.342000", "104346.345000", "104346.348000", "104346.351000", "104346.354000", "104346.357000", "104346.360000", "104346.363000", "104406.306000", "104406.309000", "104406.312000", "104406.315000", "104406.318000", "104406.321000", "104406.324000", "104406.327000", "104406.330000", "104406.333000", "104406.336000", "104406.339000", "104406.342000", "104406.345000", "104406.348000", "104406.351000", "104406.354000", "104406.357000", "104406.360000", "104406.363000", "104426.306000", "104426.309000", "104426.312000", "104426.315000", "104426.318000", "104426.321000", "104426.324000", "104426.327000", "104426.330000", "104426.333000", "104426.336000", "104426.339000", "104426.342000", "104426.345000", "104426.348000", "104426.351000", "104426.354000", "104426.357000", "104426.360000", "104426.363000", "104446.306000", "104446.309000", "104446.312000", "104446.315000", "104446.318000", "104446.321000", "104446.324000", "104446.327000", "104446.330000", "104446.333000", "104446.345000", "104446.348000", "104446.351000", "104446.354000", "104446.357000", "104446.360000", "104446.363000", "104446.366000", "104446.369000", "104446.372000", "104506.306000", "104506.309000", "104506.313000", "104506.316000", "104506.319000", "104506.322000", "104506.325000", "104506.328000", "104506.331000", "104506.334000", "104506.337000", "104506.340000", "104506.343000", "104506.346000", "104506.349000", "104506.352000", "104506.355000", "104506.359000", "104506.362000", "104506.365000", "104523.823000", "104523.827000", "104523.830000", "104523.833000", "104523.836000", "104523.839000", "104523.842000", "104523.845000", "104523.848000", "104523.851000", "104523.854000", "104523.857000", "104523.860000", "104523.863000", "104523.866000", "104523.869000", "104523.872000", "104523.876000"],
      "InstanceCreationTime": ["104146.336000", "104146.339000", "104146.342000", "104146.345000", "104146.353000", "104146.356000", "104146.359000", "104146.362000", "104146.365000", "104146.369000", "104146.372000", "104146.375000", "104146.378000", "104146.381000", "104146.384000", "104146.387000", "104146.390000", "104146.393000", "104146.396000", "104146.399000", "104146.402000", "104146.405000", "104146.408000", "104146.411000", "104146.414000", "104146.417000", "104146.420000", "104146.423000", "104146.426000", "104146.429000", "104146.432000", "104146.435000", "104146.438000", "104146.441000", "104146.444000", "104146.447000", "104146.450000", "104146.453000", "104146.464000", "104146.467000", "104146.470000", "104146.473000", "104146.476000", "104146.479000", "104146.482000", "104146.485000", "104146.488000", "104206.306000", "104206.309000", "104206.312000", "104206.315000", "104206.318000", "104206.321000", "104206.324000", "104206.327000", "104206.330000", "104206.333000", "104206.336000", "104206.339000", "104206.342000", "104206.345000", "104206.348000", "104206.351000", "104206.354000", "104206.357000", "104206.360000", "104206.363000", "104206.366000", "104206.369000", "104206.372000", "104206.375000", "104206.378000", "104206.381000", "104206.384000", "104206.387000", "104206.390000", "104226.306000", "104226.309000", "104226.312000", "104226.315000", "104226.318000", "104226.321000", "104226.324000", "104226.327000", "104226.330000", "104226.333000", "104226.336000", "104226.339000", "104226.342000", "104226.345000", "104226.348000", "104226.351000", "104226.354000", "104226.357000", "104226.360000", "104226.363000", "104226.366000", "104226.369000", "104226.372000", "104226.375000", "104226.378000", "104226.392000", "104226.395000", "104226.398000", "104246.306000", "104246.309000", "104246.312000", "104246.315000", "104246.318000", "104246.321000", "104246.324000", "104246.327000", "104246.330000", "104246.333000", "104246.336000", "104246.339000", "104246.342000", "104246.345000", "104246.348000", "104246.351000", "104246.354000", "104246.357000", "104246.360000", "104246.363000", "104246.366000", "104246.369000", "104246.372000", "104246.375000", "104246.378000", "104246.381000", "104246.384000", "104246.396000", "104246.406000", "104306.307000", "104306.310000", "104306.313000", "104306.316000", "104306.319000", "104306.322000", "104306.325000", "104306.328000", "104306.331000", "104306.334000", "104306.337000", "104306.340000", "104306.343000", "104306.346000", "104306.349000", "104306.352000", "104306.355000", "104306.358000", "104306.361000", "104306.364000", "104306.367000", "104306.370000", "104306.373000", "104306.376000", "104306.379000", "104306.382000", "104306.385000", "104306.388000", "104326.307000", "104326.310000", "104326.313000", "104326.316000", "104326.319000", "104326.322000", "104326.325000", "104326.328000", "104326.331000", "104326.334000", "104326.337000", "104326.340000", "104326.343000", "104326.346000", "104326.349000", "104326.352000", "104326.355000", "104326.358000", "104326.361000", "104326.364000", "104326.367000", "104346.306000", "104346.309000", "104346.312000", "104346.315000", "104346.318000", "104346.321000", "104346.324000", "104346.327000", "104346.330000", "104346.333000", "104346.336000", "104346.339000", "104346.342000", "104346.345000", "104346.348000", "104346.351000", "104346.354000", "104346.357000", "104346.360000", "104346.363000", "104406.306000", "104406.309000", "104406.312000", "104406.315000", "104406.318000", "104406.321000", "104406.324000", "104406.327000", "104406.330000", "104406.333000", "104406.336000", "104406.339000", "104406.342000", "104406.345000", "104406.348000", "104406.351000", "104406.354000", "104406.357000", "104406.360000", "104406.363000", "104426.306000", "104426.309000", "104426.312000", "104426.315000", "104426.318000", "104426.321000", "104426.324000", "104426.327000", "104426.330000", "104426.333000", "104426.336000", "104426.339000", "104426.342000", "104426.345000", "104426.348000", "104426.351000", "104426.354000", "104426.357000", "104426.360000", "104426.363000", "104446.306000", "104446.309000", "104446.312000", "104446.315000", "104446.318000", "104446.321000", "104446.324000", "104446.327000", "104446.330000", "104446.333000", "104446.345000", "104446.348000", "104446.351000", "104446.354000", "104446.357000", "104446.360000", "104446.363000", "104446.366000", "104446.369000", "104446.372000", "104506.306000", "104506.309000", "104506.313000", "104506.316000", "104506.319000", "104506.322000", "104506.325000", "104506.328000", "104506.331000", "104506.334000", "104506.337000", "104506.340000", "104506.343000", "104506.346000", "104506.349000", "104506.352000", "104506.355000", "104506.359000", "104506.362000", "104506.365000", "104523.823000", "104523.827000", "104523.830000", "104523.833000", "104523.836000", "104523.839000", "104523.842000", "104523.845000", "104523.848000", "104523.851000", "104523.854000", "104523.857000", "104523.860000", "104523.863000", "104523.866000", "104523.869000", "104523.872000", "104523.876000"],
      "InstanceNumber": [1, 2, 3, 4, 5, 6, 7, 8, 9, 10, 11, 12, 13, 14, 15, 16, 17, 18, 19, 20, 21, 22, 23, 24, 25, 26, 27, 28, 29, 30, 31, 32, 33, 34, 35, 36, 37, 38, 39, 40, 41, 42, 43, 44, 45, 46, 47, 48, 49, 50, 51, 52, 53, 54, 55, 56, 57, 58, 59, 60, 61, 62, 63, 64, 65, 66, 67, 68, 69, 70, 71, 72, 73, 74, 75, 76, 77, 78, 79, 80, 81, 82, 83, 84, 85, 86, 87, 88, 89, 90, 91, 92, 93, 94, 95, 96, 97, 98, 99, 100, 101, 102, 103, 104, 105, 106, 107, 108, 109, 110, 111, 112, 113, 114, 115, 116, 117, 118, 119, 120, 121, 122, 123, 124, 125, 126, 127, 128, 129, 130, 131, 132, 133, 134, 135, 136, 137, 138, 139, 140, 141, 142, 143, 144, 145, 146, 147, 148, 149, 150, 151, 152, 153, 154, 155, 156, 157, 158, 159, 160, 161, 162, 163, 164, 165, 166, 167, 168, 169, 170, 171, 172, 173, 174, 175, 176, 177, 178, 179, 180, 181, 182, 183, 184, 185, 186, 187, 188, 189, 190, 191, 192, 193, 194, 195, 196, 197, 198, 199, 200, 201, 202, 203, 204, 205, 206, 207, 208, 209, 210, 211, 212, 213, 214, 215, 216, 217, 218, 219, 220, 221, 222, 223, 224, 225, 226, 227, 228, 229, 230, 231, 232, 233, 234, 235, 236, 237, 238, 239, 240, 241, 242, 243, 244, 245, 246, 247, 248, 249, 250, 251, 252, 253, 254, 255, 256, 257, 258, 259, 260, 261, 262, 263, 264, 265, 266, 267, 268, 269, 270, 271, 272, 273, 274, 275, 276, 277, 278, 279, 280, 281, 282, 283, 284, 285, 286, 287, 288, 289, 290, 291, 292, 293, 294, 295, 296, 297, 298, 299, 300],
      "LargestImagePixelValue": [42790, 41785, 40393, 40279, 38812, 38841, 38342, 38882, 38353, 38943, 39398, 39556, 39364, 39327, 39935, 39448, 40713, 39915, 39863, 39443, 40253, 39528, 39140, 38380, 38413, 38802, 38919, 40225, 39356, 40257, 40495, 39998, 40102, 40463, 40708, 39860, 40946, 40343, 40985, 40603, 40249, 39939, 39700, 40148, 40071, 40963, 40707, 40586, 40274, 40360, 40703, 40588, 40396, 40114, 40523, 40619, 40725, 40362, 40291, 40250, 40718, 40377, 40533, 40926, 40558, 40730, 40242, 40600, 39865, 40127, 40090, 40291, 40250, 40026, 40747, 39619, 40508, 39843, 40382, 40514, 39824, 40927, 40237, 40193, 39758, 40196, 39707, 39979, 39972, 40275, 40271, 39619, 40100, 39539, 39786, 40249, 40293, 40515, 39653, 40796, 40276, 40314, 39909, 40044, 40279, 40269, 40599, 39703, 40851, 39823, 39908, 39913, 39901, 40291, 40559, 40363, 39957, 40338, 39566, 39909, 39887, 39962, 40428, 40118, 40588, 39466, 40955, 39883, 40137, 39558, 39805, 39220, 39694, 39816, 39954, 41092, 41168, 40766, 40464, 40611, 40893, 40721, 40341, 40876, 40226, 40600, 40354, 40624, 39348, 38128, 39274, 39060, 39692, 40214, 40420, 40403, 40360, 40700, 40870, 40174, 40182, 39865, 40638, 40648, 40194, 40478, 40471, 39669, 40298, 39523, 40592, 39836, 40287, 39639, 39827, 39909, 39757, 39990, 39944, 40293, 39589, 39929, 39551, 40399, 40033, 39806, 39788, 39590, 39832, 39682, 39433, 38958, 40177, 39435, 39963, 39610, 39933, 39953, 39411, 39892, 39392, 40283, 39355, 39897, 39621, 39850, 39507, 39831, 39413, 39332, 39675, 39345, 39757, 39504, 39753, 39638, 39703, 39189, 39766, 39607, 39394, 39384, 39178, 39324, 39327, 39870, 39213, 39729, 39778, 39806, 39598, 39415, 39651, 39467, 39522, 39542, 39474, 39859, 39237, 39370, 39457, 39634, 39512, 39057, 39298, 39168, 39691, 39147, 39320, 38885, 39217, 39854, 39309, 39911, 39477, 39464, 39465, 39409, 39346, 39536, 40562, 40956, 39982, 39724, 40305, 39811, 39488, 39760, 39616, 40183, 40045, 40222, 39803, 40418, 40210, 40008, 40567, 39918, 40486, 40431, 40995, 40749, 41219, 40604, 41136, 40962, 40283, 40321, 40542, 40434, 40679, 40400, 40423, 40522, 40604, 40307, 40753, 40632, 40821, 40666],
      "WindowCenter": [9687.0, 9643.0, 9620.0, 9632.0, 9591.0, 9573.0, 9580.0, 9581.0, 9581.0, 9588.0, 9591.0, 9591.0, 9575.0, 9576.0, 9573.0, 9563.0, 9571.0, 9566.0, 9564.0, 9554.0, 9564.0, 9564.0, 9544.0, 9540.0, 9539.0, 9546.0, 9561.0, 9580.0, 9571.0, 9575.0, 9580.0, 9576.0, 9576.0, 9584.0, 9591.0, 9594.0, 9606.0, 9603.0, 9608.0, 9608.0, 9602.0, 9593.0, 9586.0, 9585.0, 9579.0, 9589.0, 9598.0, 9591.0, 9592.0, 9593.0, 9599.0, 9594.0, 9594.0, 9594.0, 9599.0, 9605.0, 9593.0, 9588.0, 9588.0, 9587.0, 9591.0, 9591.0, 9605.0, 9599.0, 9600.0, 9593.0, 9593.0, 9592.0, 9586.0, 9587.0, 9594.0, 9602.0, 9601.0, 9597.0, 9595.0, 9590.0, 9595.0, 9595.0, 9602.0, 9608.0, 9598.0, 9600.0, 9594.0, 9586.0, 9587.0, 9592.0, 9589.0, 9595.0, 9595.0, 9596.0, 9593.0, 9583.0, 9580.0, 9580.0, 9580.0, 9591.0, 9593.0, 9584.0, 9574.0, 9583.0, 9576.0, 9571.0, 9571.0, 9578.0, 9590.0, 9593.0, 9599.0, 9590.0, 9599.0, 9582.0, 9588.0, 9581.0, 9587.0, 9586.0, 9593.0, 9587.0, 9587.0, 9593.0, 9590.0, 9596.0, 9596.0, 9596.0, 9596.0, 9598.0, 9601.0, 9593.0, 9609.0, 9604.0, 9597.0, 9600.0, 9596.0, 9582.0, 9595.0, 9596.0, 9611.0, 9622.0, 9620.0, 9610.0, 9597.0, 9604.0, 9600.0, 9594.0, 9586.0, 9574.0, 9570.0, 9568.0, 9569.0, 9581.0, 9571.0, 9540.0, 9567.0, 9568.0, 9568.0, 9560.0, 9557.0, 9550.0, 9541.0, 9539.0, 9538.0, 9532.0, 9532.0, 9526.0, 9538.0, 9540.0, 9558.0, 9567.0, 9577.0, 9580.0, 9594.0, 9592.0, 9602.0, 9605.0, 9613.0, 9616.0, 9617.0, 9624.0, 9618.0, 9608.0, 9605.0, 9591.0, 9589.0, 9587.0, 9580.0, 9593.0, 9593.0, 9589.0, 9582.0, 9577.0, 9575.0, 9574.0, 9573.0, 9574.0, 9585.0, 9583.0, 9588.0, 9588.0, 9588.0, 9588.0, 9586.0, 9597.0, 9599.0, 9611.0, 9608.0, 9612.0, 9607.0, 9606.0, 9600.0, 9600.0, 9594.0, 9594.0, 9598.0, 9592.0, 9598.0, 9594.0, 9591.0, 9590.0, 9583.0, 9583.0, 9583.0, 9582.0, 9583.0, 9576.0, 9578.0, 9576.0, 9582.0, 9581.0, 9575.0, 9574.0, 9572.0, 9573.0, 9573.0, 9575.0, 9579.0, 9575.0, 9588.0, 9588.0, 9590.0, 9594.0, 9590.0, 9585.0, 9584.0, 9583.0, 9577.0, 9585.0, 9584.0, 9585.0, 9583.0, 9577.0, 9577.0, 9570.0, 9582.0, 9586.0, 9590.0, 9597.0, 9606.0, 9603.0, 9602.0, 9604.0, 9603.0, 9610.0, 9622.0, 9626.0, 9617.0, 9616.0, 9613.0, 9602.0, 9594.0, 9587.0, 9587.0, 9595.0, 9591.0, 9600.0, 9602.0, 9609.0, 9610.0, 9605.0, 9601.0, 9594.0, 9589.0, 9583.0, 9586.0, 9588.0, 9588.0, 9589.0, 9596.0, 9596.0, 9598.0, 9599.0, 9612.0, 9602.0, 9608.0, 9600.0, 9600.0, 9597.0, 9597.0, 9598.0, 9605.0, 9614.0, 9612.0, 9614.0],
