{
  "AcquisitionMatrixPE": 104,
  "AcquisitionNumber": 1,
  "AcquisitionTime": "14:12:1.290000",
  "BandwidthPerPixelPhaseEncode": 16.297,
  "BaseResolution": 104,
  "BodyPartExamined": "BRAIN",
  "ConsistencyInfo": "N4_VE11C_LATEST_20160120",
  "ConversionSoftware": "dcm2niix",
  "ConversionSoftwareVersion": "v1.0.20210317",
  "DerivedVendorReportedEchoSpacing": 0.000590009,
  "DeviceSerialNumber": "166018",
  "DwellTime": 2.1e-06,
  "EchoTime": 0.0376,
  "EchoTrainLength": 104,
  "EffectiveEchoSpacing": 0.000590009,
  "FlipAngle": 68,
  "ImageComments": "Unaliased MB6/PE3/LB",
  "ImageOrientationPatientDICOM": [0.995335, -0.0798045, 0.0542087, 0.0883061, 0.979914, -0.178801],
  "ImageType": [
    "ORIGINAL",
    "PRIMARY",
    "M",
    "MB",
    "ND",
    "MOSAIC"
],
  "ImagingFrequency": 123.197,
  "InPlanePhaseEncodingDirectionDICOM": "COL",
  "InstitutionAddress": "Washington Place 6,NYC,NYC,US,10003",
  "InstitutionName": "NYU - CBI",
  "InstitutionalDepartmentName": "Department",
  "MRAcquisitionType": "2D",
  "MagneticFieldStrength": 3,
  "Manufacturer": "Siemens",
  "ManufacturersModelName": "Prisma",
  "Modality": "MR",
  "MultibandAccelerationFactor": 6,
  "PartialFourier": 1,
  "PatientPosition": "HFS",
  "PercentPhaseFOV": 100,
  "PercentSampling": 100,
  "PhaseEncodingDirection": "j",
  "PhaseEncodingSteps": 104,
  "PhaseResolution": 1,
  "PixelBandwidth": 2290,
  "ProcedureStepDescription": "Investigators^Winawer",
  "ProtocolName": "cmrr_mbepi_s6_2mm_66sl_PA_task-bar2",
  "PulseSequenceDetails": "%CustomerSeq%\\cmrr_mbep2d_bold",
  "ReceiveCoilActiveElements": "HC1-7",
  "ReceiveCoilName": "HeadNeck_64",
  "ReconMatrixPE": 104,
  "RepetitionTime": 1,
  "SAR": 0.0780671,
  "ScanOptions": "FS",
  "ScanningSequence": "EP",
  "SequenceName": "epfid2d1_104",
  "SequenceVariant": "SK\\SS",
  "SeriesDescription": "cmrr_mbepi_s6_2mm_66sl_PA_task-bar2",
  "SeriesNumber": 12,
  "ShimSetting": [300, -12643, -8515, 207, -18, -172, -74, 18],
  "SliceThickness": 2,
  "SliceTiming": [0, 0.535, 0.09, 0.625, 0.18, 0.715, 0.2675, 0.8025, 0.3575, 0.8925, 0.4475, 0, 0.535, 0.09, 0.625, 0.18, 0.715, 0.2675, 0.8025, 0.3575, 0.8925, 0.4475, 0, 0.535, 0.09, 0.625, 0.18, 0.715, 0.2675, 0.8025, 0.3575, 0.8925, 0.4475, 0, 0.535, 0.09, 0.625, 0.18, 0.715, 0.2675, 0.8025, 0.3575, 0.8925, 0.4475, 0, 0.535, 0.09, 0.625, 0.18, 0.715, 0.2675, 0.8025, 0.3575, 0.8925, 0.4475, 0, 0.535, 0.09, 0.625, 0.18, 0.715, 0.2675, 0.8025, 0.3575, 0.8925, 0.4475],
  "SoftwareVersions": "syngo MR E11",
  "SpacingBetweenSlices": 2,
  "StationName": "AWP166018",
  "TaskName": "bar2",
  "TotalReadoutTime": 0.060771,
  "TxRefAmp": 239.741,
  "VendorReportedEchoSpacing": 0.00059,
  "WipMemBlock": "195da9d8-a4ab-4d0d-a88b-344294f3c627||Sequence: R016 ve11c/master r/8780670; Nov 27 2017 15:05:12 by eja",
  "dcmmeta_affine": [
    [-1.990670919418335, 0.17661213874816895, 0.07770151644945145, 99.3342056274414],
    [0.15960901975631714, 1.9598287343978882, -0.3655080497264862, -78.64195251464844],
    [0.10841742157936096, 0.35760220885276794, 1.964781403541565, -67.52146911621094],
    [0.0, 0.0, 0.0, 1.0]
],
  "dcmmeta_reorient_transform": [
    [0.0, -1.0, 0.0, 103.0],
    [1.0, 0.0, 0.0, 0.0],
    [0.0, 0.0, 1.0, 0.0],
    [0.0, 0.0, 0.0, 1.0]
],
  "dcmmeta_shape": [104, 104, 66, 300],
  "dcmmeta_slice_dim": 2,
  "dcmmeta_version": 0.6,
  "global": {
    "const": {
      "AccessionNumber": "JKJN96HK",
      "AcquisitionMatrix": [104, 0, 0, 104],
      "AngioFlag": "N",
      "BitsAllocated": 16,
      "BitsStored": 16,
      "BodyPartExamined": "BRAIN",
      "Columns": 936,
      "EchoNumbers": 1,
      "EchoTime": 37.6,
      "EchoTrainLength": 104,
      "FlipAngle": 68.0,
      "HighBit": 15,
      "ImageOrientationPatient": [0.99533544900973, -0.0798045096596, 0.05420870947169, 0.08830607233109, 0.97991438537247, -0.1788011043857],
      "ImagePositionPatient": [-1019.1150020609, -872.11182956808, 72.972432140004],
      "ImageType": [
        "ORIGINAL",
        "PRIMARY",
        "M",
        "MB",
        "ND",
        "MOSAIC"
],
      "ImagedNucleus": "1H",
      "ImagingFrequency": 123.19673,
      "InPlanePhaseEncodingDirection": "COL",
      "MRAcquisitionType": "2D",
      "MagneticFieldStrength": 3.0,
      "Manufacturer": "SIEMENS",
      "ManufacturerModelName": "Prisma",
      "Modality": "MR",
      "NumberOfAverages": 1.0,
      "NumberOfPhaseEncodingSteps": 104,
      "PercentPhaseFieldOfView": 100.0,
      "PercentSampling": 100.0,
      "PerformedProcedureStepStartTime": "134627.280000",
      "PhotometricInterpretation": "MONOCHROME2",
      "PixelBandwidth": 2290.0,
      "PixelRepresentation": 0,
      "PixelSpacing": [2.0, 2.0],
      "ProtocolName": "cmrr_mbepi_s6_2mm_66sl_PA_task-bar2",
      "RepetitionTime": 1000.0,
      "Rows": 936,
      "SAR": 0.07806711294901,
      "SamplesPerPixel": 1,
      "ScanOptions": "FS",
      "ScanningSequence": "EP",
      "SequenceName": "epfid2d1_104",
      "SequenceVariant": [
        "SK",
        "SS"
],
      "SeriesDescription": "cmrr_mbepi_s6_2mm_66sl_PA_task-bar2",
      "SeriesNumber": 12,
      "SeriesTime": "141300.069000",
      "SliceLocation": -48.101122191587,
      "SliceThickness": 2.0,
      "SmallestImagePixelValue": 0,
      "SoftwareVersions": "syngo MR E11",
      "SpacingBetweenSlices": 1.9999999342067,
      "SpecificCharacterSet": "ISO_IR 100",
      "StudyID": "1",
      "StudyTime": "134627.206000",
      "TransmitCoilName": "Body",
      "VariableFlipAngleFlag": "N",
      "WindowCenterWidthExplanation": "Algo1",
      "dBdt": 0.0},
    "slices": {}
  },
  "time": {
    "samples": {
      "AcquisitionNumber": [1, 2, 3, 4, 5, 6, 7, 8, 9, 10, 11, 12, 13, 14, 15, 16, 17, 18, 19, 20, 21, 22, 23, 24, 25, 26, 27, 28, 29, 30, 31, 32, 33, 34, 35, 36, 37, 38, 39, 40, 41, 42, 43, 44, 45, 46, 47, 48, 49, 50, 51, 52, 53, 54, 55, 56, 57, 58, 59, 60, 61, 62, 63, 64, 65, 66, 67, 68, 69, 70, 71, 72, 73, 74, 75, 76, 77, 78, 79, 80, 81, 82, 83, 84, 85, 86, 87, 88, 89, 90, 91, 92, 93, 94, 95, 96, 97, 98, 99, 100, 101, 102, 103, 104, 105, 106, 107, 108, 109, 110, 111, 112, 113, 114, 115, 116, 117, 118, 119, 120, 121, 122, 123, 124, 125, 126, 127, 128, 129, 130, 131, 132, 133, 134, 135, 136, 137, 138, 139, 140, 141, 142, 143, 144, 145, 146, 147, 148, 149, 150, 151, 152, 153, 154, 155, 156, 157, 158, 159, 160, 161, 162, 163, 164, 165, 166, 167, 168, 169, 170, 171, 172, 173, 174, 175, 176, 177, 178, 179, 180, 181, 182, 183, 184, 185, 186, 187, 188, 189, 190, 191, 192, 193, 194, 195, 196, 197, 198, 199, 200, 201, 202, 203, 204, 205, 206, 207, 208, 209, 210, 211, 212, 213, 214, 215, 216, 217, 218, 219, 220, 221, 222, 223, 224, 225, 226, 227, 228, 229, 230, 231, 232, 233, 234, 235, 236, 237, 238, 239, 240, 241, 242, 243, 244, 245, 246, 247, 248, 249, 250, 251, 252, 253, 254, 255, 256, 257, 258, 259, 260, 261, 262, 263, 264, 265, 266, 267, 268, 269, 270, 271, 272, 273, 274, 275, 276, 277, 278, 279, 280, 281, 282, 283, 284, 285, 286, 287, 288, 289, 290, 291, 292, 293, 294, 295, 296, 297, 298, 299, 300],
      "AcquisitionTime": ["141201.290000", "141202.290000", "141203.290000", "141204.290000", "141205.290000", "141206.290000", "141207.290000", "141208.290000", "141209.290000", "141210.290000", "141211.290000", "141212.290000", "141213.290000", "141214.290000", "141215.290000", "141216.290000", "141217.290000", "141218.290000", "141219.290000", "141220.290000", "141221.290000", "141222.290000", "141223.290000", "141224.290000", "141225.290000", "141226.290000", "141227.290000", "141228.290000", "141229.290000", "141230.290000", "141231.290000", "141232.290000", "141233.290000", "141234.290000", "141235.290000", "141236.290000", "141237.290000", "141238.290000", "141239.290000", "141240.290000", "141241.290000", "141242.290000", "141243.290000", "141244.290000", "141245.290000", "141246.290000", "141247.290000", "141248.290000", "141249.290000", "141250.290000", "141251.290000", "141252.290000", "141253.290000", "141254.290000", "141255.290000", "141256.290000", "141257.290000", "141258.290000", "141259.290000", "141300.290000", "141301.290000", "141302.290000", "141303.290000", "141304.290000", "141305.290000", "141306.290000", "141307.290000", "141308.290000", "141309.290000", "141310.290000", "141311.290000", "141312.290000", "141313.290000", "141314.290000", "141315.290000", "141316.290000", "141317.290000", "141318.290000", "141319.290000", "141320.290000", "141321.290000", "141322.290000", "141323.290000", "141324.290000", "141325.290000", "141326.290000", "141327.290000", "141328.290000", "141329.290000", "141330.290000", "141331.290000", "141332.290000", "141333.290000", "141334.290000", "141335.290000", "141336.290000", "141337.290000", "141338.290000", "141339.290000", "141340.290000", "141341.290000", "141342.290000", "141343.290000", "141344.290000", "141345.290000", "141346.290000", "141347.290000", "141348.290000", "141349.290000", "141350.290000", "141351.290000", "141352.290000", "141353.290000", "141354.290000", "141355.290000", "141356.290000", "141357.290000", "141358.290000", "141359.290000", "141400.290000", "141401.290000", "141402.290000", "141403.290000", "141404.290000", "141405.290000", "141406.290000", "141407.290000", "141408.290000", "141409.290000", "141410.290000", "141411.290000", "141412.290000", "141413.290000", "141414.290000", "141415.290000", "141416.290000", "141417.290000", "141418.290000", "141419.290000", "141420.290000", "141421.290000", "141422.290000", "141423.290000", "141424.290000", "141425.290000", "141426.290000", "141427.290000", "141428.290000", "141429.290000", "141430.290000", "141431.290000", "141432.290000", "141433.290000", "141434.290000", "141435.290000", "141436.290000", "141437.290000", "141438.290000", "141439.290000", "141440.290000", "141441.290000", "141442.290000", "141443.290000", "141444.290000", "141445.290000", "141446.290000", "141447.290000", "141448.290000", "141449.290000", "141450.290000", "141451.290000", "141452.290000", "141453.290000", "141454.290000", "141455.290000", "141456.290000", "141457.290000", "141458.290000", "141459.290000", "141500.290000", "141501.290000", "141502.290000", "141503.290000", "141504.290000", "141505.290000", "141506.290000", "141507.290000", "141508.290000", "141509.290000", "141510.290000", "141511.290000", "141512.290000", "141513.290000", "141514.290000", "141515.290000", "141516.290000", "141517.290000", "141518.290000", "141519.290000", "141520.290000", "141521.290000", "141522.290000", "141523.290000", "141524.290000", "141525.290000", "141526.290000", "141527.290000", "141528.290000", "141529.290000", "141530.290000", "141531.290000", "141532.290000", "141533.290000", "141534.290000", "141535.290000", "141536.290000", "141537.290000", "141538.290000", "141539.290000", "141540.290000", "141541.290000", "141542.290000", "141543.290000", "141544.290000", "141545.290000", "141546.290000", "141547.290000", "141548.290000", "141549.290000", "141550.290000", "141551.290000", "141552.290000", "141553.290000", "141554.290000", "141555.290000", "141556.290000", "141557.290000", "141558.290000", "141559.290000", "141600.290000", "141601.290000", "141602.290000", "141603.290000", "141604.290000", "141605.290000", "141606.290000", "141607.290000", "141608.290000", "141609.290000", "141610.290000", "141611.290000", "141612.290000", "141613.290000", "141614.290000", "141615.290000", "141616.290000", "141617.290000", "141618.290000", "141619.290000", "141620.290000", "141621.290000", "141622.290000", "141623.290000", "141624.290000", "141625.290000", "141626.290000", "141627.290000", "141628.290000", "141629.290000", "141630.290000", "141631.290000", "141632.290000", "141633.290000", "141634.290000", "141635.290000", "141636.290000", "141637.290000", "141638.290000", "141639.290000", "141640.290000", "141641.290000", "141642.290000", "141643.290000", "141644.290000", "141645.290000", "141646.290000", "141647.290000", "141648.290000", "141649.290000", "141650.290000", "141651.290000", "141652.290000", "141653.290000", "141654.290000", "141655.290000", "141656.290000", "141657.290000", "141658.290000", "141659.290000", "141700.290000"],
      "ContentTime": ["141300.073000", "141300.076000", "141300.079000", "141300.082000", "141300.085000", "141300.088000", "141305.044000", "141305.047000", "141305.050000", "141305.053000", "141305.056000", "141305.059000", "141305.062000", "141310.044000", "141310.047000", "141310.050000", "141310.053000", "141310.061000", "141310.064000", "141310.067000", "141315.044000", "141315.047000", "141315.050000", "141315.054000", "141315.057000", "141315.060000", "141315.063000", "141320.045000", "141320.050000", "141320.054000", "141320.064000", "141320.067000", "141320.070000", "141320.073000", "141325.044000", "141325.047000", "141325.050000", "141325.053000", "141325.056000", "141325.059000", "141325.062000", "141325.065000", "141330.044000", "141330.047000", "141330.050000", "141330.053000", "141330.056000", "141330.059000", "141330.062000", "141335.043000", "141335.046000", "141335.049000", "141335.052000", "141335.055000", "141335.058000", "141335.061000", "141340.044000", "141340.047000", "141340.050000", "141340.053000", "141340.056000", "141340.059000", "141340.062000", "141350.044000", "141350.047000", "141350.050000", "141350.053000", "141350.056000", "141350.059000", "141350.062000", "141350.065000", "141350.085000", "141350.089000", "141350.093000", "141350.100000", "141350.103000", "141350.106000", "141355.044000", "141355.047000", "141355.051000", "141355.054000", "141355.057000", "141355.060000", "141355.063000", "141400.044000", "141400.047000", "141400.050000", "141400.053000", "141400.056000", "141400.059000", "141400.062000", "141400.065000", "141405.044000", "141405.047000", "141405.050000", "141405.053000", "141405.056000", "141405.059000", "141405.062000", "141410.043000", "141410.046000", "141410.049000", "141410.052000", "141410.055000", "141410.058000", "141410.061000", "141415.044000", "141415.047000", "141415.050000", "141415.053000", "141415.056000", "141415.059000", "141415.062000", "141420.044000", "141420.047000", "141420.050000", "141420.053000", "141420.056000", "141420.059000", "141420.062000", "141425.044000", "141425.047000", "141425.050000", "141425.053000", "141425.056000", "141425.059000", "141425.062000", "141430.044000", "141430.047000", "141430.050000", "141430.053000", "141430.056000", "141430.059000", "141430.062000", "141435.044000", "141435.047000", "141435.050000", "141435.053000", "141435.056000", "141435.059000", "141435.062000", "141440.044000", "141440.047000", "141440.050000", "141440.053000", "141440.056000", "141440.059000", "141440.062000", "141445.043000", "141445.046000", "141445.049000", "141445.052000", "141445.055000", "141445.058000", "141445.061000", "141450.044000", "141450.047000", "141450.050000", "141450.053000", "141450.056000", "141450.059000", "141450.062000", "141455.044000", "141455.047000", "141455.050000", "141455.053000", "141455.056000", "141455.059000", "141455.062000", "141500.044000", "141500.047000", "141500.050000", "141500.053000", "141500.056000", "141500.059000", "141500.064000", "141505.044000", "141505.047000", "141505.050000", "141505.053000", "141505.056000", "141505.059000", "141510.044000", "141510.047000", "141510.050000", "141510.053000", "141510.056000", "141515.044000", "141515.047000", "141515.050000", "141515.053000", "141515.056000", "141520.043000", "141520.046000", "141520.049000", "141520.052000", "141520.055000", "141525.044000", "141525.047000", "141525.050000", "141525.053000", "141525.056000", "141530.044000", "141530.047000", "141530.050000", "141530.053000", "141530.056000", "141535.044000", "141535.047000", "141535.050000", "141535.053000", "141535.056000", "141540.044000", "141540.047000", "141540.050000", "141540.053000", "141540.056000", "141545.044000", "141545.047000", "141545.050000", "141545.053000", "141545.056000", "141550.044000", "141550.047000", "141550.050000", "141550.053000", "141550.056000", "141555.043000", "141555.046000", "141555.049000", "141555.052000", "141555.055000", "141600.044000", "141600.047000", "141600.050000", "141600.053000", "141600.056000", "141605.044000", "141605.047000", "141605.050000", "141605.053000", "141605.056000", "141610.044000", "141610.047000", "141610.050000", "141610.053000", "141610.056000", "141615.044000", "141615.047000", "141615.050000", "141615.053000", "141615.056000", "141620.044000", "141620.047000", "141620.050000", "141620.053000", "141620.056000", "141625.044000", "141625.047000", "141625.050000", "141625.053000", "141625.056000", "141630.043000", "141630.046000", "141630.049000", "141630.066000", "141630.069000", "141635.044000", "141635.047000", "141635.050000", "141635.053000", "141635.056000", "141640.044000", "141640.047000", "141640.050000", "141640.053000", "141640.056000", "141645.044000", "141645.047000", "141645.050000", "141645.053000", "141645.056000", "141650.044000", "141650.047000", "141650.050000", "141650.065000", "141650.068000", "141655.044000", "141655.047000", "141655.050000", "141655.053000", "141655.056000", "141700.044000", "141700.047000", "141700.050000", "141700.053000", "141700.056000", "141702.143000", "141702.146000", "141702.149000"],
      "InstanceCreationTime": ["141300.073000", "141300.076000", "141300.079000", "141300.082000", "141300.085000", "141300.088000", "141305.044000", "141305.047000", "141305.050000", "141305.053000", "141305.056000", "141305.059000", "141305.062000", "141310.044000", "141310.047000", "141310.050000", "141310.053000", "141310.061000", "141310.064000", "141310.067000", "141315.044000", "141315.047000", "141315.050000", "141315.054000", "141315.057000", "141315.060000", "141315.063000", "141320.045000", "141320.050000", "141320.054000", "141320.064000", "141320.067000", "141320.070000", "141320.073000", "141325.044000", "141325.047000", "141325.050000", "141325.053000", "141325.056000", "141325.059000", "141325.062000", "141325.065000", "141330.044000", "141330.047000", "141330.050000", "141330.053000", "141330.056000", "141330.059000", "141330.062000", "141335.043000", "141335.046000", "141335.049000", "141335.052000", "141335.055000", "141335.058000", "141335.061000", "141340.044000", "141340.047000", "141340.050000", "141340.053000", "141340.056000", "141340.059000", "141340.062000", "141350.044000", "141350.047000", "141350.050000", "141350.053000", "141350.056000", "141350.059000", "141350.062000", "141350.065000", "141350.085000", "141350.089000", "141350.093000", "141350.100000", "141350.103000", "141350.106000", "141355.044000", "141355.047000", "141355.051000", "141355.054000", "141355.057000", "141355.060000", "141355.063000", "141400.044000", "141400.047000", "141400.050000", "141400.053000", "141400.056000", "141400.059000", "141400.062000", "141400.065000", "141405.044000", "141405.047000", "141405.050000", "141405.053000", "141405.056000", "141405.059000", "141405.062000", "141410.043000", "141410.046000", "141410.049000", "141410.052000", "141410.055000", "141410.058000", "141410.061000", "141415.044000", "141415.047000", "141415.050000", "141415.053000", "141415.056000", "141415.059000", "141415.062000", "141420.044000", "141420.047000", "141420.050000", "141420.053000", "141420.056000", "141420.059000", "141420.062000", "141425.044000", "141425.047000", "141425.050000", "141425.053000", "141425.056000", "141425.059000", "141425.062000", "141430.044000", "141430.047000", "141430.050000", "141430.053000", "141430.056000", "141430.059000", "141430.062000", "141435.044000", "141435.047000", "141435.050000", "141435.053000", "141435.056000", "141435.059000", "141435.062000", "141440.044000", "141440.047000", "141440.050000", "141440.053000", "141440.056000", "141440.059000", "141440.062000", "141445.043000", "141445.046000", "141445.049000", "141445.052000", "141445.055000", "141445.058000", "141445.061000", "141450.044000", "141450.047000", "141450.050000", "141450.053000", "141450.056000", "141450.059000", "141450.062000", "141455.044000", "141455.047000", "141455.050000", "141455.053000", "141455.056000", "141455.059000", "141455.062000", "141500.044000", "141500.047000", "141500.050000", "141500.053000", "141500.056000", "141500.059000", "141500.064000", "141505.044000", "141505.047000", "141505.050000", "141505.053000", "141505.056000", "141505.059000", "141510.044000", "141510.047000", "141510.050000", "141510.053000", "141510.056000", "141515.044000", "141515.047000", "141515.050000", "141515.053000", "141515.056000", "141520.043000", "141520.046000", "141520.049000", "141520.052000", "141520.055000", "141525.044000", "141525.047000", "141525.050000", "141525.053000", "141525.056000", "141530.044000", "141530.047000", "141530.050000", "141530.053000", "141530.056000", "141535.044000", "141535.047000", "141535.050000", "141535.053000", "141535.056000", "141540.044000", "141540.047000", "141540.050000", "141540.053000", "141540.056000", "141545.044000", "141545.047000", "141545.050000", "141545.053000", "141545.056000", "141550.044000", "141550.047000", "141550.050000", "141550.053000", "141550.056000", "141555.043000", "141555.046000", "141555.049000", "141555.052000", "141555.055000", "141600.044000", "141600.047000", "141600.050000", "141600.053000", "141600.056000", "141605.044000", "141605.047000", "141605.050000", "141605.053000", "141605.056000", "141610.044000", "141610.047000", "141610.050000", "141610.053000", "141610.056000", "141615.044000", "141615.047000", "141615.050000", "141615.053000", "141615.056000", "141620.044000", "141620.047000", "141620.050000", "141620.053000", "141620.056000", "141625.044000", "141625.047000", "141625.050000", "141625.053000", "141625.056000", "141630.043000", "141630.046000", "141630.049000", "141630.066000", "141630.069000", "141635.044000", "141635.047000", "141635.050000", "141635.053000", "141635.056000", "141640.044000", "141640.047000", "141640.050000", "141640.053000", "141640.056000", "141645.044000", "141645.047000", "141645.050000", "141645.053000", "141645.056000", "141650.044000", "141650.047000", "141650.050000", "141650.065000", "141650.068000", "141655.044000", "141655.047000", "141655.050000", "141655.053000", "141655.056000", "141700.044000", "141700.047000", "141700.050000", "141700.053000", "141700.056000", "141702.143000", "141702.146000", "141702.149000"],
      "InstanceNumber": [1, 2, 3, 4, 5, 6, 7, 8, 9, 10, 11, 12, 13, 14, 15, 16, 17, 18, 19, 20, 21, 22, 23, 24, 25, 26, 27, 28, 29, 30, 31, 32, 33, 34, 35, 36, 37, 38, 39, 40, 41, 42, 43, 44, 45, 46, 47, 48, 49, 50, 51, 52, 53, 54, 55, 56, 57, 58, 59, 60, 61, 62, 63, 64, 65, 66, 67, 68, 69, 70, 71, 72, 73, 74, 75, 76, 77, 78, 79, 80, 81, 82, 83, 84, 85, 86, 87, 88, 89, 90, 91, 92, 93, 94, 95, 96, 97, 98, 99, 100, 101, 102, 103, 104, 105, 106, 107, 108, 109, 110, 111, 112, 113, 114, 115, 116, 117, 118, 119, 120, 121, 122, 123, 124, 125, 126, 127, 128, 129, 130, 131, 132, 133, 134, 135, 136, 137, 138, 139, 140, 141, 142, 143, 144, 145, 146, 147, 148, 149, 150, 151, 152, 153, 154, 155, 156, 157, 158, 159, 160, 161, 162, 163, 164, 165, 166, 167, 168, 169, 170, 171, 172, 173, 174, 175, 176, 177, 178, 179, 180, 181, 182, 183, 184, 185, 186, 187, 188, 189, 190, 191, 192, 193, 194, 195, 196, 197, 198, 199, 200, 201, 202, 203, 204, 205, 206, 207, 208, 209, 210, 211, 212, 213, 214, 215, 216, 217, 218, 219, 220, 221, 222, 223, 224, 225, 226, 227, 228, 229, 230, 231, 232, 233, 234, 235, 236, 237, 238, 239, 240, 241, 242, 243, 244, 245, 246, 247, 248, 249, 250, 251, 252, 253, 254, 255, 256, 257, 258, 259, 260, 261, 262, 263, 264, 265, 266, 267, 268, 269, 270, 271, 272, 273, 274, 275, 276, 277, 278, 279, 280, 281, 282, 283, 284, 285, 286, 287, 288, 289, 290, 291, 292, 293, 294, 295, 296, 297, 298, 299, 300],
      "LargestImagePixelValue": [42155, 40975, 40272, 39600, 39898, 39975, 39196, 39380, 39010, 39273, 39415, 39451, 38733, 39244, 39045, 39058, 39592, 39265, 39000, 38672, 39680, 38772, 38883, 38716, 38773, 38833, 38980, 39251, 39164, 39024, 38963, 39191, 38888, 39557, 38735, 39130, 38548, 39763, 40051, 39510, 39480, 38305, 38624, 38342, 38659, 38555, 38560, 39181, 39140, 39170, 39089, 39299, 39923, 39511, 39518, 38738, 39067, 39462, 38876, 39184, 39035, 39877, 39405, 39723, 39871, 38945, 39042, 39120, 40028, 38984, 39536, 38386, 39491, 39271, 39299, 39535, 39513, 39409, 38922, 39008, 39551, 39328, 38985, 39571, 39128, 39130, 39296, 39877, 39292, 38871, 39435, 39604, 39026, 38910, 39311, 38989, 38569, 38654, 38988, 38206, 38614, 37959, 38855, 38312, 38306, 38540, 38989, 38836, 38736, 39231, 39099, 39627, 38530, 38377, 38567, 39587, 38707, 39221, 38478, 39115, 38000, 38487, 38531, 38999, 38276, 38405, 38962, 38778, 38980, 38478, 39041, 38884, 39001, 38824, 39698, 39468, 39648, 38970, 39690, 38730, 39611, 39495, 39460, 39741, 39378, 39042, 38970, 39202, 39412, 39089, 38997, 39040, 39206, 39580, 39370, 38990, 39251, 38977, 38916, 39626, 39311, 39285, 39535, 39016, 39316, 39624, 39068, 39233, 39614, 38812, 39733, 39270, 39738, 39292, 39148, 39507, 38575, 39230, 39012, 39216, 39054, 39020, 39377, 38860, 38950, 39334, 38811, 39179, 38616, 38885, 38452, 38394, 38652, 38929, 38873, 38589, 38847, 38737, 38649, 38395, 38686, 39029, 38714, 38808, 38815, 38558, 38492, 38476, 38610, 38576, 38810, 38861, 38469, 38496, 38267, 38478, 38483, 38758, 38370, 38443, 38585, 38481, 37842, 38209, 38416, 38782, 38745, 38294, 38353, 38517, 38527, 38964, 38390, 38752, 38491, 39284, 38355, 38847, 38907, 38302, 38417, 38071, 38723, 38793, 38234, 38291, 38670, 38467, 38182, 38676, 38329, 38845, 38405, 38675, 38898, 38565, 38929, 38443, 37997, 38587, 38176, 38495, 38680, 38426, 38413, 38299, 38336, 38408, 38302, 38525, 38409, 38476, 38604, 38745, 39053, 38121, 38646, 38386, 38663, 38436, 38746, 38355, 38679, 38670, 38390, 38583, 38876, 38690, 38811, 38265, 38667, 38560, 38707, 38368, 38218, 38055, 38336, 38170, 38361, 38672],
      "WindowCenter": [9862.0, 9818.0, 9798.0, 9791.0, 9789.0, 9788.0, 9778.0, 9781.0, 9785.0, 9793.0, 9794.0, 9794.0, 9786.0, 9776.0, 9775.0, 9776.0, 9783.0, 9783.0, 9776.0, 9776.0, 9789.0, 9786.0, 9784.0, 9778.0, 9770.0, 9775.0, 9782.0, 9792.0, 9795.0, 9796.0, 9796.0, 9787.0, 9792.0, 9796.0, 9778.0, 9782.0, 9771.0, 9780.0, 9779.0, 9781.0, 9784.0, 9780.0, 9777.0, 9770.0, 9762.0, 9767.0, 9765.0, 9766.0, 9772.0, 9775.0, 9778.0, 9790.0, 9791.0, 9792.0, 9791.0, 9780.0, 9785.0, 9791.0, 9785.0, 9777.0, 9783.0, 9789.0, 9792.0, 9799.0, 9807.0, 9805.0, 9802.0, 9796.0, 9799.0, 9787.0, 9791.0, 9780.0, 9785.0, 9785.0, 9776.0, 9780.0, 9776.0, 9784.0, 9784.0, 9783.0, 9789.0, 9774.0, 9774.0, 9774.0, 9774.0, 9766.0, 9772.0, 9778.0, 9780.0, 9769.0, 9781.0, 9788.0, 9774.0, 9768.0, 9774.0, 9776.0, 9775.0, 9784.0, 9792.0, 9790.0, 9788.0, 9782.0, 9779.0, 9773.0, 9770.0, 9777.0, 9784.0, 9787.0, 9786.0, 9791.0, 9785.0, 9784.0, 9771.0, 9762.0, 9767.0, 9772.0, 9767.0, 9773.0, 9763.0, 9774.0, 9764.0, 9763.0, 9779.0, 9796.0, 9807.0, 9801.0, 9805.0, 9796.0, 9795.0, 9789.0, 9785.0, 9784.0, 9775.0, 9761.0, 9779.0, 9773.0, 9778.0, 9775.0, 9781.0, 9770.0, 9779.0, 9774.0, 9773.0, 9773.0, 9767.0, 9765.0, 9765.0, 9765.0, 9765.0, 9758.0, 9757.0, 9759.0, 9764.0, 9771.0, 9765.0, 9756.0, 9755.0, 9747.0, 9747.0, 9753.0, 9756.0, 9760.0, 9769.0, 9759.0, 9766.0, 9772.0, 9766.0, 9765.0, 9771.0, 9760.0, 9774.0, 9775.0, 9781.0, 9776.0, 9775.0, 9774.0, 9769.0, 9773.0, 9768.0, 9766.0, 9766.0, 9757.0, 9763.0, 9760.0, 9766.0, 9768.0, 9762.0, 9760.0, 9761.0, 9761.0, 9763.0, 9756.0, 9763.0, 9768.0, 9763.0, 9761.0, 9753.0, 9752.0, 9751.0, 9754.0, 9759.0, 9759.0, 9753.0, 9760.0, 9768.0, 9756.0, 9763.0, 9762.0, 9763.0, 9761.0, 9761.0, 9762.0, 9757.0, 9764.0, 9764.0, 9756.0, 9763.0, 9763.0, 9764.0, 9763.0, 9764.0, 9757.0, 9759.0, 9758.0, 9766.0, 9764.0, 9763.0, 9755.0, 9746.0, 9745.0, 9744.0, 9759.0, 9753.0, 9762.0, 9770.0, 9784.0, 9772.0, 9763.0, 9769.0, 9774.0, 9766.0, 9760.0, 9757.0, 9753.0, 9731.0, 9733.0, 9733.0, 9734.0, 9728.0, 9742.0, 9753.0, 9753.0, 9755.0, 9755.0, 9772.0, 9775.0, 9780.0, 9767.0, 9767.0, 9764.0, 9757.0, 9756.0, 9762.0, 9755.0, 9755.0, 9755.0, 9763.0, 9772.0, 9774.0, 9775.0, 9767.0, 9756.0, 9760.0, 9751.0, 9752.0, 9745.0, 9751.0, 9745.0, 9750.0, 9746.0, 9751.0, 9745.0, 9750.0, 9744.0, 9744.0, 9741.0, 9743.0, 9745.0, 9753.0, 9747.0, 9753.0, 9753.0, 9753.0, 9746.0, 9737.0, 9743.0, 9742.0, 9736.0, 9732.0, 9738.0],
