{
  "AcquisitionMatrixPE": 104,
  "AcquisitionNumber": 1,
  "AcquisitionTime": "10:19:1.430000",
  "BandwidthPerPixelPhaseEncode": 16.297,
  "BaseResolution": 104,
  "BodyPartExamined": "BRAIN",
  "ConsistencyInfo": "N4_VE11C_LATEST_20160120",
  "ConversionSoftware": "dcm2niix",
  "ConversionSoftwareVersion": "v1.0.20210317",
  "DerivedVendorReportedEchoSpacing": 0.000590009,
  "DeviceSerialNumber": "166018",
  "DwellTime": 2.1e-06,
  "EchoTime": 0.0376,
  "EchoTrainLength": 104,
  "EffectiveEchoSpacing": 0.000590009,
  "FlipAngle": 68,
  "ImageComments": "Unaliased MB6/PE3/LB",
  "ImageOrientationPatientDICOM": [0.995295, -0.0904075, 0.0348619, 0.094083, 0.987749, -0.124502],
  "ImageType": [
    "ORIGINAL",
    "PRIMARY",
    "M",
    "MB",
    "ND",
    "MOSAIC"
],
  "ImagingFrequency": 123.197,
  "InPlanePhaseEncodingDirectionDICOM": "COL",
  "InstitutionAddress": "Washington Place 6,NYC,NYC,US,10003",
  "InstitutionName": "NYU - CBI",
  "InstitutionalDepartmentName": "Department",
  "MRAcquisitionType": "2D",
  "MagneticFieldStrength": 3,
  "Manufacturer": "Siemens",
  "ManufacturersModelName": "Prisma",
  "Modality": "MR",
  "MultibandAccelerationFactor": 6,
  "PartialFourier": 1,
  "PatientPosition": "HFS",
  "PercentPhaseFOV": 100,
  "PercentSampling": 100,
  "PhaseEncodingDirection": "j",
  "PhaseEncodingSteps": 104,
  "PhaseResolution": 1,
  "PixelBandwidth": 2290,
  "ProcedureStepDescription": "Investigators^Winawer",
  "ProtocolName": "cmrr_mbepi_s6_2mm_66sl_PA_task-bar2",
  "PulseSequenceDetails": "%CustomerSeq%\\cmrr_mbep2d_bold",
  "ReceiveCoilActiveElements": "HC1-7",
  "ReceiveCoilName": "HeadNeck_64",
  "ReconMatrixPE": 104,
  "RepetitionTime": 1,
  "SAR": 0.0789361,
  "ScanOptions": "FS",
  "ScanningSequence": "EP",
  "SequenceName": "epfid2d1_104",
  "SequenceVariant": "SK\\SS",
  "SeriesDescription": "cmrr_mbepi_s6_2mm_66sl_PA_task-bar2",
  "SeriesNumber": 12,
  "ShimSetting": [310, -12650, -8405, 448, 53, 186, 32, 37],
  "SliceThickness": 2,
  "SliceTiming": [0, 0.535, 0.09, 0.625, 0.18, 0.7125, 0.2675, 0.8025, 0.3575, 0.8925, 0.445, 0, 0.535, 0.09, 0.625, 0.18, 0.7125, 0.2675, 0.8025, 0.3575, 0.8925, 0.445, 0, 0.535, 0.09, 0.625, 0.18, 0.7125, 0.2675, 0.8025, 0.3575, 0.8925, 0.445, 0, 0.535, 0.09, 0.625, 0.18, 0.7125, 0.2675, 0.8025, 0.3575, 0.8925, 0.445, 0, 0.535, 0.09, 0.625, 0.18, 0.7125, 0.2675, 0.8025, 0.3575, 0.8925, 0.445, 0, 0.535, 0.09, 0.625, 0.18, 0.7125, 0.2675, 0.8025, 0.3575, 0.8925, 0.445],
  "SoftwareVersions": "syngo MR E11",
  "SpacingBetweenSlices": 2,
  "StationName": "AWP166018",
  "TaskName": "bar2",
  "TotalReadoutTime": 0.060771,
  "TxRefAmp": 233.912,
  "VendorReportedEchoSpacing": 0.00059,
  "WipMemBlock": "da473ecf-fcf4-460d-b6a9-070f7f616441||Sequence: R016 ve11c/master r/8780670; Nov 27 2017 15:05:12 by eja",
  "dcmmeta_affine": [
    [-1.9905890226364136, 0.18816602230072021, 0.04635784402489662, 97.07295227050781],
    [0.18081504106521606, 1.9754976034164429, -0.254392147064209, -80.26819610595703],
    [0.06972388178110123, 0.24900402128696442, 1.9832134246826172, -64.1136474609375],
    [0.0, 0.0, 0.0, 1.0]
],
  "dcmmeta_reorient_transform": [
    [0.0, -1.0, 0.0, 103.0],
    [1.0, 0.0, 0.0, 0.0],
    [0.0, 0.0, 1.0, 0.0],
    [0.0, 0.0, 0.0, 1.0]
],
  "dcmmeta_shape": [104, 104, 66, 300],
  "dcmmeta_slice_dim": 2,
  "dcmmeta_version": 0.6,
  "global": {
    "const": {
      "AccessionNumber": "Lfka57ou",
      "AcquisitionMatrix": [104, 0, 0, 104],
      "AngioFlag": "N",
      "BitsAllocated": 16,
      "BitsStored": 16,
      "BodyPartExamined": "BRAIN",
      "Columns": 936,
      "EchoNumbers": 1,
      "EchoTime": 37.6,
      "EchoTrainLength": 104,
      "FlipAngle": 68.0,
      "HighBit": 15,
      "ImageOrientationPatient": [0.99529449141174, -0.0904075240855, 0.03486194134274, 0.0940830110109, 0.98774877234445, -0.1245020070969],
      "ImagePositionPatient": [-1022.816131187, -869.79596990911, 36.114298445269],
      "ImageType": [
        "ORIGINAL",
        "PRIMARY",
        "M",
        "MB",
        "ND",
        "MOSAIC"
],
      "ImagedNucleus": "1H",
      "ImagingFrequency": 123.196783,
      "InPlanePhaseEncodingDirection": "COL",
      "MRAcquisitionType": "2D",
      "MagneticFieldStrength": 3.0,
      "Manufacturer": "SIEMENS",
      "ManufacturerModelName": "Prisma",
      "Modality": "MR",
      "NumberOfAverages": 1.0,
      "NumberOfPhaseEncodingSteps": 104,
      "PercentPhaseFieldOfView": 100.0,
      "PercentSampling": 100.0,
      "PerformedProcedureStepStartTime": "095945.733000",
      "PhotometricInterpretation": "MONOCHROME2",
      "PixelBandwidth": 2290.0,
      "PixelRepresentation": 0,
      "PixelSpacing": [2.0, 2.0],
      "ProtocolName": "cmrr_mbepi_s6_2mm_66sl_PA_task-bar2",
      "RepetitionTime": 1000.0,
      "Rows": 936,
      "SAR": 0.07893607109521,
      "SamplesPerPixel": 1,
      "ScanOptions": "FS",
      "ScanningSequence": "EP",
      "SequenceName": "epfid2d1_104",
      "SequenceVariant": [
        "SK",
        "SS"
],
      "SeriesDescription": "cmrr_mbepi_s6_2mm_66sl_PA_task-bar2",
      "SeriesNumber": 12,
      "SeriesTime": "102011.654000",
      "SliceLocation": -51.115680198291,
      "SliceThickness": 2.0,
      "SmallestImagePixelValue": 0,
      "SoftwareVersions": "syngo MR E11",
      "SpacingBetweenSlices": 2.0000000074991,
      "SpecificCharacterSet": "ISO_IR 100",
      "StudyID": "1",
      "StudyTime": "095945.672000",
      "TransmitCoilName": "Body",
      "VariableFlipAngleFlag": "N",
      "WindowCenterWidthExplanation": "Algo1",
      "dBdt": 0.0},
    "slices": {}
  },
  "time": {
    "samples": {
      "AcquisitionNumber": [1, 2, 3, 4, 5, 6, 7, 8, 9, 10, 11, 12, 13, 14, 15, 16, 17, 18, 19, 20, 21, 22, 23, 24, 25, 26, 27, 28, 29, 30, 31, 32, 33, 34, 35, 36, 37, 38, 39, 40, 41, 42, 43, 44, 45, 46, 47, 48, 49, 50, 51, 52, 53, 54, 55, 56, 57, 58, 59, 60, 61, 62, 63, 64, 65, 66, 67, 68, 69, 70, 71, 72, 73, 74, 75, 76, 77, 78, 79, 80, 81, 82, 83, 84, 85, 86, 87, 88, 89, 90, 91, 92, 93, 94, 95, 96, 97, 98, 99, 100, 101, 102, 103, 104, 105, 106, 107, 108, 109, 110, 111, 112, 113, 114, 115, 116, 117, 118, 119, 120, 121, 122, 123, 124, 125, 126, 127, 128, 129, 130, 131, 132, 133, 134, 135, 136, 137, 138, 139, 140, 141, 142, 143, 144, 145, 146, 147, 148, 149, 150, 151, 152, 153, 154, 155, 156, 157, 158, 159, 160, 161, 162, 163, 164, 165, 166, 167, 168, 169, 170, 171, 172, 173, 174, 175, 176, 177, 178, 179, 180, 181, 182, 183, 184, 185, 186, 187, 188, 189, 190, 191, 192, 193, 194, 195, 196, 197, 198, 199, 200, 201, 202, 203, 204, 205, 206, 207, 208, 209, 210, 211, 212, 213, 214, 215, 216, 217, 218, 219, 220, 221, 222, 223, 224, 225, 226, 227, 228, 229, 230, 231, 232, 233, 234, 235, 236, 237, 238, 239, 240, 241, 242, 243, 244, 245, 246, 247, 248, 249, 250, 251, 252, 253, 254, 255, 256, 257, 258, 259, 260, 261, 262, 263, 264, 265, 266, 267, 268, 269, 270, 271, 272, 273, 274, 275, 276, 277, 278, 279, 280, 281, 282, 283, 284, 285, 286, 287, 288, 289, 290, 291, 292, 293, 294, 295, 296, 297, 298, 299, 300],
      "AcquisitionTime": ["101901.430000", "101902.430000", "101903.430000", "101904.430000", "101905.430000", "101906.430000", "101907.430000", "101908.430000", "101909.430000", "101910.430000", "101911.430000", "101912.430000", "101913.430000", "101914.430000", "101915.430000", "101916.430000", "101917.430000", "101918.430000", "101919.430000", "101920.430000", "101921.430000", "101922.430000", "101923.430000", "101924.430000", "101925.430000", "101926.430000", "101927.430000", "101928.430000", "101929.430000", "101930.430000", "101931.430000", "101932.430000", "101933.430000", "101934.430000", "101935.430000", "101936.430000", "101937.430000", "101938.430000", "101939.430000", "101940.430000", "101941.430000", "101942.430000", "101943.430000", "101944.430000", "101945.430000", "101946.430000", "101947.430000", "101948.430000", "101949.430000", "101950.430000", "101951.430000", "101952.430000", "101953.430000", "101954.430000", "101955.430000", "101956.430000", "101957.430000", "101958.430000", "101959.430000", "102000.430000", "102001.430000", "102002.430000", "102003.430000", "102004.430000", "102005.430000", "102006.430000", "102007.430000", "102008.430000", "102009.430000", "102010.430000", "102011.430000", "102012.430000", "102013.430000", "102014.430000", "102015.430000", "102016.430000", "102017.430000", "102018.430000", "102019.430000", "102020.430000", "102021.430000", "102022.430000", "102023.430000", "102024.430000", "102025.430000", "102026.430000", "102027.430000", "102028.430000", "102029.430000", "102030.430000", "102031.430000", "102032.430000", "102033.430000", "102034.430000", "102035.430000", "102036.430000", "102037.430000", "102038.430000", "102039.430000", "102040.430000", "102041.430000", "102042.430000", "102043.430000", "102044.430000", "102045.430000", "102046.430000", "102047.430000", "102048.430000", "102049.430000", "102050.430000", "102051.430000", "102052.430000", "102053.430000", "102054.430000", "102055.430000", "102056.430000", "102057.430000", "102058.430000", "102059.430000", "102100.430000", "102101.430000", "102102.430000", "102103.430000", "102104.430000", "102105.430000", "102106.430000", "102107.430000", "102108.430000", "102109.430000", "102110.430000", "102111.430000", "102112.430000", "102113.430000", "102114.430000", "102115.430000", "102116.430000", "102117.430000", "102118.430000", "102119.430000", "102120.430000", "102121.430000", "102122.430000", "102123.430000", "102124.430000", "102125.430000", "102126.430000", "102127.430000", "102128.430000", "102129.430000", "102130.430000", "102131.430000", "102132.430000", "102133.430000", "102134.430000", "102135.430000", "102136.430000", "102137.430000", "102138.430000", "102139.430000", "102140.430000", "102141.430000", "102142.430000", "102143.430000", "102144.430000", "102145.430000", "102146.430000", "102147.430000", "102148.430000", "102149.430000", "102150.430000", "102151.430000", "102152.430000", "102153.430000", "102154.430000", "102155.430000", "102156.430000", "102157.430000", "102158.430000", "102159.430000", "102200.430000", "102201.430000", "102202.430000", "102203.430000", "102204.430000", "102205.430000", "102206.430000", "102207.430000", "102208.430000", "102209.430000", "102210.430000", "102211.430000", "102212.430000", "102213.430000", "102214.430000", "102215.430000", "102216.430000", "102217.430000", "102218.430000", "102219.430000", "102220.430000", "102221.430000", "102222.430000", "102223.430000", "102224.430000", "102225.430000", "102226.430000", "102227.430000", "102228.430000", "102229.430000", "102230.430000", "102231.430000", "102232.430000", "102233.430000", "102234.430000", "102235.430000", "102236.430000", "102237.430000", "102238.430000", "102239.430000", "102240.430000", "102241.430000", "102242.430000", "102243.430000", "102244.430000", "102245.430000", "102246.430000", "102247.430000", "102248.430000", "102249.430000", "102250.430000", "102251.430000", "102252.430000", "102253.430000", "102254.430000", "102255.430000", "102256.430000", "102257.430000", "102258.430000", "102259.430000", "102300.430000", "102301.430000", "102302.430000", "102303.430000", "102304.430000", "102305.430000", "102306.430000", "102307.430000", "102308.430000", "102309.430000", "102310.430000", "102311.430000", "102312.430000", "102313.430000", "102314.430000", "102315.430000", "102316.430000", "102317.430000", "102318.430000", "102319.430000", "102320.430000", "102321.430000", "102322.430000", "102323.430000", "102324.430000", "102325.430000", "102326.430000", "102327.430000", "102328.430000", "102329.430000", "102330.430000", "102331.430000", "102332.430000", "102333.430000", "102334.430000", "102335.430000", "102336.430000", "102337.430000", "102338.430000", "102339.430000", "102340.430000", "102341.430000", "102342.430000", "102343.430000", "102344.430000", "102345.430000", "102346.430000", "102347.430000", "102348.430000", "102349.430000", "102350.430000", "102351.430000", "102352.430000", "102353.430000", "102354.430000", "102355.430000", "102356.430000", "102357.430000", "102358.430000", "102359.430000", "102400.430000"],
      "ContentTime": ["102011.658000", "102011.661000", "102011.664000", "102011.667000", "102011.670000", "102011.673000", "102011.676000", "102011.679000", "102011.682000", "102011.685000", "102011.688000", "102011.691000", "102011.694000", "102011.697000", "102011.700000", "102011.703000", "102011.706000", "102011.709000", "102011.712000", "102011.715000", "102031.633000", "102031.636000", "102031.639000", "102031.642000", "102031.645000", "102031.648000", "102031.651000", "102031.654000", "102031.657000", "102031.660000", "102031.663000", "102031.666000", "102031.669000", "102031.672000", "102031.675000", "102031.678000", "102031.681000", "102031.684000", "102031.687000", "102031.690000", "102031.693000", "102031.696000", "102031.699000", "102031.702000", "102031.705000", "102031.708000", "102031.711000", "102031.714000", "102051.633000", "102051.636000", "102051.640000", "102051.643000", "102051.646000", "102051.649000", "102051.652000", "102051.655000", "102051.658000", "102051.661000", "102051.664000", "102051.667000", "102051.670000", "102051.673000", "102051.676000", "102051.678000", "102051.681000", "102051.684000", "102051.687000", "102051.690000", "102051.693000", "102051.696000", "102051.699000", "102051.702000", "102051.705000", "102051.708000", "102051.711000", "102051.714000", "102111.633000", "102111.636000", "102111.639000", "102111.642000", "102111.645000", "102111.648000", "102111.651000", "102111.654000", "102111.657000", "102111.660000", "102111.663000", "102111.666000", "102111.669000", "102111.672000", "102111.675000", "102111.678000", "102111.681000", "102111.684000", "102111.687000", "102111.690000", "102111.693000", "102111.696000", "102111.699000", "102111.702000", "102111.705000", "102111.708000", "102111.711000", "102111.714000", "102111.717000", "102131.634000", "102131.637000", "102131.640000", "102131.643000", "102131.646000", "102131.649000", "102131.652000", "102131.655000", "102131.658000", "102131.661000", "102131.664000", "102131.667000", "102131.670000", "102131.673000", "102131.676000", "102131.679000", "102131.682000", "102131.685000", "102131.688000", "102131.691000", "102131.694000", "102131.697000", "102131.700000", "102131.703000", "102131.706000", "102131.717000", "102131.720000", "102131.736000", "102151.634000", "102151.637000", "102151.640000", "102151.643000", "102151.646000", "102151.649000", "102151.652000", "102151.655000", "102151.658000", "102151.661000", "102151.664000", "102151.667000", "102151.670000", "102151.673000", "102151.676000", "102151.679000", "102151.682000", "102151.685000", "102151.688000", "102151.691000", "102151.694000", "102151.697000", "102151.700000", "102151.703000", "102151.706000", "102151.709000", "102151.712000", "102151.715000", "102211.633000", "102211.636000", "102211.639000", "102211.642000", "102211.645000", "102211.648000", "102211.651000", "102211.654000", "102211.657000", "102211.660000", "102211.663000", "102211.666000", "102211.669000", "102211.672000", "102211.675000", "102211.678000", "102211.681000", "102211.684000", "102211.687000", "102211.690000", "102211.695000", "102211.698000", "102211.701000", "102211.704000", "102211.707000", "102211.710000", "102211.713000", "102211.716000", "102231.633000", "102231.636000", "102231.639000", "102231.642000", "102231.645000", "102231.648000", "102231.651000", "102231.654000", "102231.657000", "102231.660000", "102231.663000", "102231.666000", "102231.669000", "102231.672000", "102231.675000", "102231.687000", "102231.690000", "102231.695000", "102231.698000", "102231.701000", "102251.633000", "102251.636000", "102251.639000", "102251.642000", "102251.645000", "102251.648000", "102251.651000", "102251.654000", "102251.657000", "102251.660000", "102251.663000", "102251.666000", "102251.669000", "102251.672000", "102251.675000", "102251.678000", "102251.681000", "102251.684000", "102251.687000", "102251.690000", "102311.633000", "102311.636000", "102311.639000", "102311.642000", "102311.645000", "102311.648000", "102311.651000", "102311.654000", "102311.657000", "102311.660000", "102311.663000", "102311.666000", "102311.669000", "102311.672000", "102311.675000", "102311.678000", "102311.681000", "102311.684000", "102311.688000", "102311.692000", "102331.633000", "102331.637000", "102331.640000", "102331.643000", "102331.646000", "102331.649000", "102331.652000", "102331.655000", "102331.658000", "102331.661000", "102331.664000", "102331.667000", "102331.670000", "102331.673000", "102331.676000", "102331.679000", "102331.682000", "102331.685000", "102331.689000", "102331.693000", "102351.634000", "102351.637000", "102351.641000", "102351.644000", "102351.647000", "102351.650000", "102351.653000", "102351.656000", "102351.659000", "102351.662000", "102351.665000", "102351.668000", "102351.671000", "102351.674000", "102351.677000", "102351.680000", "102351.683000", "102351.686000", "102351.689000", "102351.694000", "102401.763000", "102401.766000", "102401.769000", "102401.772000", "102401.775000", "102401.778000", "102401.782000", "102401.785000", "102401.788000", "102401.791000", "102401.794000"],
      "InstanceCreationTime": ["102011.658000", "102011.661000", "102011.664000", "102011.667000", "102011.670000", "102011.673000", "102011.676000", "102011.679000", "102011.682000", "102011.685000", "102011.688000", "102011.691000", "102011.694000", "102011.697000", "102011.700000", "102011.703000", "102011.706000", "102011.709000", "102011.712000", "102011.715000", "102031.633000", "102031.636000", "102031.639000", "102031.642000", "102031.645000", "102031.648000", "102031.651000", "102031.654000", "102031.657000", "102031.660000", "102031.663000", "102031.666000", "102031.669000", "102031.672000", "102031.675000", "102031.678000", "102031.681000", "102031.684000", "102031.687000", "102031.690000", "102031.693000", "102031.696000", "102031.699000", "102031.702000", "102031.705000", "102031.708000", "102031.711000", "102031.714000", "102051.633000", "102051.636000", "102051.640000", "102051.643000", "102051.646000", "102051.649000", "102051.652000", "102051.655000", "102051.658000", "102051.661000", "102051.664000", "102051.667000", "102051.670000", "102051.673000", "102051.676000", "102051.678000", "102051.681000", "102051.684000", "102051.687000", "102051.690000", "102051.693000", "102051.696000", "102051.699000", "102051.702000", "102051.705000", "102051.708000", "102051.711000", "102051.714000", "102111.633000", "102111.636000", "102111.639000", "102111.642000", "102111.645000", "102111.648000", "102111.651000", "102111.654000", "102111.657000", "102111.660000", "102111.663000", "102111.666000", "102111.669000", "102111.672000", "102111.675000", "102111.678000", "102111.681000", "102111.684000", "102111.687000", "102111.690000", "102111.693000", "102111.696000", "102111.699000", "102111.702000", "102111.705000", "102111.708000", "102111.711000", "102111.714000", "102111.717000", "102131.634000", "102131.637000", "102131.640000", "102131.643000", "102131.646000", "102131.649000", "102131.652000", "102131.655000", "102131.658000", "102131.661000", "102131.664000", "102131.667000", "102131.670000", "102131.673000", "102131.676000", "102131.679000", "102131.682000", "102131.685000", "102131.688000", "102131.691000", "102131.694000", "102131.697000", "102131.700000", "102131.703000", "102131.706000", "102131.717000", "102131.720000", "102131.736000", "102151.634000", "102151.637000", "102151.640000", "102151.643000", "102151.646000", "102151.649000", "102151.652000", "102151.655000", "102151.658000", "102151.661000", "102151.664000", "102151.667000", "102151.670000", "102151.673000", "102151.676000", "102151.679000", "102151.682000", "102151.685000", "102151.688000", "102151.691000", "102151.694000", "102151.697000", "102151.700000", "102151.703000", "102151.706000", "102151.709000", "102151.712000", "102151.715000", "102211.633000", "102211.636000", "102211.639000", "102211.642000", "102211.645000", "102211.648000", "102211.651000", "102211.654000", "102211.657000", "102211.660000", "102211.663000", "102211.666000", "102211.669000", "102211.672000", "102211.675000", "102211.678000", "102211.681000", "102211.684000", "102211.687000", "102211.690000", "102211.695000", "102211.698000", "102211.701000", "102211.704000", "102211.707000", "102211.710000", "102211.713000", "102211.716000", "102231.633000", "102231.636000", "102231.639000", "102231.642000", "102231.645000", "102231.648000", "102231.651000", "102231.654000", "102231.657000", "102231.660000", "102231.663000", "102231.666000", "102231.669000", "102231.672000", "102231.675000", "102231.687000", "102231.690000", "102231.695000", "102231.698000", "102231.701000", "102251.633000", "102251.636000", "102251.639000", "102251.642000", "102251.645000", "102251.648000", "102251.651000", "102251.654000", "102251.657000", "102251.660000", "102251.663000", "102251.666000", "102251.669000", "102251.672000", "102251.675000", "102251.678000", "102251.681000", "102251.684000", "102251.687000", "102251.690000", "102311.633000", "102311.636000", "102311.639000", "102311.642000", "102311.645000", "102311.648000", "102311.651000", "102311.654000", "102311.657000", "102311.660000", "102311.663000", "102311.666000", "102311.669000", "102311.672000", "102311.675000", "102311.678000", "102311.681000", "102311.684000", "102311.688000", "102311.692000", "102331.633000", "102331.637000", "102331.640000", "102331.643000", "102331.646000", "102331.649000", "102331.652000", "102331.655000", "102331.658000", "102331.661000", "102331.664000", "102331.667000", "102331.670000", "102331.673000", "102331.676000", "102331.679000", "102331.682000", "102331.685000", "102331.689000", "102331.693000", "102351.634000", "102351.637000", "102351.641000", "102351.644000", "102351.647000", "102351.650000", "102351.653000", "102351.656000", "102351.659000", "102351.662000", "102351.665000", "102351.668000", "102351.671000", "102351.674000", "102351.677000", "102351.680000", "102351.683000", "102351.686000", "102351.689000", "102351.694000", "102401.763000", "102401.766000", "102401.769000", "102401.772000", "102401.775000", "102401.778000", "102401.782000", "102401.785000", "102401.788000", "102401.791000", "102401.794000"],
      "InstanceNumber": [1, 2, 3, 4, 5, 6, 7, 8, 9, 10, 11, 12, 13, 14, 15, 16, 17, 18, 19, 20, 21, 22, 23, 24, 25, 26, 27, 28, 29, 30, 31, 32, 33, 34, 35, 36, 37, 38, 39, 40, 41, 42, 43, 44, 45, 46, 47, 48, 49, 50, 51, 52, 53, 54, 55, 56, 57, 58, 59, 60, 61, 62, 63, 64, 65, 66, 67, 68, 69, 70, 71, 72, 73, 74, 75, 76, 77, 78, 79, 80, 81, 82, 83, 84, 85, 86, 87, 88, 89, 90, 91, 92, 93, 94, 95, 96, 97, 98, 99, 100, 101, 102, 103, 104, 105, 106, 107, 108, 109, 110, 111, 112, 113, 114, 115, 116, 117, 118, 119, 120, 121, 122, 123, 124, 125, 126, 127, 128, 129, 130, 131, 132, 133, 134, 135, 136, 137, 138, 139, 140, 141, 142, 143, 144, 145, 146, 147, 148, 149, 150, 151, 152, 153, 154, 155, 156, 157, 158, 159, 160, 161, 162, 163, 164, 165, 166, 167, 168, 169, 170, 171, 172, 173, 174, 175, 176, 177, 178, 179, 180, 181, 182, 183, 184, 185, 186, 187, 188, 189, 190, 191, 192, 193, 194, 195, 196, 197, 198, 199, 200, 201, 202, 203, 204, 205, 206, 207, 208, 209, 210, 211, 212, 213, 214, 215, 216, 217, 218, 219, 220, 221, 222, 223, 224, 225, 226, 227, 228, 229, 230, 231, 232, 233, 234, 235, 236, 237, 238, 239, 240, 241, 242, 243, 244, 245, 246, 247, 248, 249, 250, 251, 252, 253, 254, 255, 256, 257, 258, 259, 260, 261, 262, 263, 264, 265, 266, 267, 268, 269, 270, 271, 272, 273, 274, 275, 276, 277, 278, 279, 280, 281, 282, 283, 284, 285, 286, 287, 288, 289, 290, 291, 292, 293, 294, 295, 296, 297, 298, 299, 300],
      "LargestImagePixelValue": [27687, 26726, 26597, 26153, 26028, 26124, 26110, 26301, 26144, 26447, 25465, 25434, 26059, 25695, 25784, 26034, 25557, 25734, 26339, 25741, 25548, 26932, 25576, 25636, 26021, 25864, 25964, 26294, 26104, 25965, 26785, 26059, 25842, 26473, 26102, 25757, 26237, 26007, 25901, 26212, 26158, 25808, 25714, 25530, 25660, 25538, 25626, 26080, 26114, 25723, 26011, 25955, 25963, 25924, 26082, 26405, 26068, 25860, 26062, 26001, 26114, 27733, 25969, 25979, 27456, 26135, 25934, 26976, 25956, 25835, 26532, 26474, 26561, 26342, 26165, 26581, 26242, 26310, 26889, 26550, 26262, 26832, 27609, 26528, 26706, 26219, 27415, 26158, 26906, 26268, 26262, 26454, 26068, 26306, 26225, 27127, 26951, 26059, 26952, 26801, 26380, 26228, 26688, 26514, 26308, 27436, 27558, 26257, 26711, 26895, 26431, 26197, 27330, 27296, 26119, 27460, 27356, 26212, 26541, 26662, 26504, 27092, 27759, 26190, 26231, 26458, 26813, 28645, 26359, 26202, 27011, 25916, 26340, 28345, 26064, 27399, 27061, 26270, 26419, 26549, 26549, 26106, 27132, 26597, 26371, 26615, 27552, 26583, 25922, 27105, 28089, 26357, 26406, 28046, 29213, 26239, 26257, 27121, 26236, 26827, 28078, 26521, 26750, 26562, 27681, 26792, 26830, 26580, 26297, 26510, 26668, 27216, 26361, 26709, 28321, 26013, 26321, 27481, 26323, 27066, 27825, 26426, 26901, 28099, 26500, 28016, 26717, 26114, 28338, 26666, 27124, 29284, 27089, 28244, 28620, 26647, 27275, 27316, 26993, 27338, 27779, 28423, 27737, 27893, 27255, 27045, 28121, 28023, 28465, 26526, 28733, 29570, 26925, 27598, 28788, 27958, 26644, 26601, 28422, 26837, 26494, 27641, 26962, 27006, 28077, 28434, 26463, 27213, 26855, 27326, 26510, 27565, 26837, 26761, 27187, 27468, 26979, 26962, 26622, 26952, 27082, 27133, 26689, 26952, 26996, 26794, 27161, 27867, 26889, 27258, 27280, 27231, 27302, 26698, 26629, 27459, 27325, 26783, 26781, 26735, 26334, 26851, 27328, 26195, 26811, 27910, 26471, 26838, 27986, 26615, 26643, 27669, 26526, 26331, 27753, 27551, 28090, 26731, 27362, 27567, 26614, 26760, 27032, 26706, 27196, 27148, 27523, 27099, 27558, 28189, 26299, 27025, 28607, 27939, 26335, 27154, 28585, 28823, 27228, 26709],
      "WindowCenter": [8904.0, 8876.0, 8858.0, 8859.0, 8851.0, 8850.0, 8848.0, 8847.0, 8847.0, 8837.0, 8825.0, 8820.0, 8823.0, 8826.0, 8833.0, 8825.0, 8818.0, 8826.0, 8832.0, 8826.0, 8828.0, 8863.0, 8837.0, 8837.0, 8843.0, 8835.0, 8841.0, 8842.0, 8841.0, 8843.0, 8862.0, 8835.0, 8842.0, 8856.0, 8850.0, 8838.0, 8843.0, 8834.0, 8834.0, 8840.0, 8832.0, 8833.0, 8818.0, 8817.0, 8819.0, 8819.0, 8816.0, 8832.0, 8832.0, 8825.0, 8835.0, 8834.0, 8833.0, 8833.0, 8833.0, 8840.0, 8827.0, 8837.0, 8837.0, 8835.0, 8842.0, 8872.0, 8835.0, 8837.0, 8877.0, 8859.0, 8844.0, 8863.0, 8843.0, 8835.0, 8847.0, 8846.0, 8846.0, 8832.0, 8832.0, 8839.0, 8830.0, 8831.0, 8844.0, 8836.0, 8830.0, 8854.0, 8866.0, 8867.0, 8876.0, 8872.0, 8886.0, 8851.0, 8867.0, 8853.0, 8850.0, 8843.0, 8825.0, 8824.0, 8831.0, 8851.0, 8844.0, 8834.0, 8855.0, 8855.0, 8843.0, 8853.0, 8860.0, 8860.0, 8855.0, 8889.0, 8890.0, 8863.0, 8869.0, 8859.0, 8843.0, 8836.0, 8846.0, 8852.0, 8833.0, 8866.0, 8868.0, 8835.0, 8857.0, 8857.0, 8849.0, 8870.0, 8882.0, 8852.0, 8850.0, 8867.0, 8875.0, 8903.0, 8851.0, 8843.0, 8846.0, 8826.0, 8834.0, 8871.0, 8828.0, 8861.0, 8854.0, 8834.0, 8850.0, 8849.0, 8848.0, 8835.0, 8852.0, 8831.0, 8823.0, 8829.0, 8857.0, 8830.0, 8829.0, 8864.0, 8874.0, 8841.0, 8842.0, 8866.0, 8883.0, 8835.0, 8844.0, 8863.0, 8853.0, 8869.0, 8883.0, 8860.0, 8864.0, 8851.0, 8874.0, 8856.0, 8865.0, 8857.0, 8859.0, 8859.0, 8849.0, 8853.0, 8833.0, 8839.0, 8868.0, 8826.0, 8827.0, 8852.0, 8837.0, 8856.0, 8868.0, 8851.0, 8850.0, 8865.0, 8835.0, 8866.0, 8835.0, 8831.0, 8874.0, 8852.0, 8867.0, 8902.0, 8865.0, 8877.0, 8880.0, 8835.0, 8848.0, 8855.0, 8846.0, 8855.0, 8862.0, 8880.0, 8869.0, 8877.0, 8856.0, 8855.0, 8881.0, 8875.0, 8882.0, 8850.0, 8895.0, 8900.0, 8848.0, 8860.0, 8885.0, 8866.0, 8832.0, 8841.0, 8887.0, 8865.0, 8859.0, 8886.0, 8872.0, 8856.0, 8879.0, 8879.0, 8841.0, 8860.0, 8855.0, 8863.0, 8848.0, 8870.0, 8856.0, 8856.0, 8864.0, 8871.0, 8858.0, 8858.0, 8859.0, 8867.0, 8873.0, 8872.0, 8860.0, 8858.0, 8848.0, 8848.0, 8853.0, 8864.0, 8846.0, 8851.0, 8851.0, 8861.0, 8860.0, 8847.0, 8847.0, 8860.0, 8851.0, 8847.0, 8856.0, 8847.0, 8836.0, 8856.0, 8853.0, 8835.0, 8855.0, 8866.0, 8840.0, 8855.0, 8864.0, 8839.0, 8847.0, 8850.0, 8837.0, 8826.0, 8848.0, 8856.0, 8872.0, 8849.0, 8860.0, 8860.0, 8841.0, 8847.0, 8838.0, 8841.0, 8863.0, 8872.0, 8881.0, 8866.0, 8856.0, 8863.0, 8826.0, 8839.0, 8862.0, 8857.0, 8827.0, 8856.0, 8871.0, 8891.0, 8863.0, 8849.0],
