{
  "AcquisitionMatrixPE": 104,
  "AcquisitionNumber": 1,
  "AcquisitionTime": "10:25:37.877500",
  "BandwidthPerPixelPhaseEncode": 16.297,
  "BaseResolution": 104,
  "BodyPartExamined": "BRAIN",
  "ConsistencyInfo": "N4_VE11C_LATEST_20160120",
  "ConversionSoftware": "dcm2niix",
  "ConversionSoftwareVersion": "v1.0.20210317",
  "DerivedVendorReportedEchoSpacing": 0.000590009,
  "DeviceSerialNumber": "166018",
  "DwellTime": 2.1e-06,
  "EchoTime": 0.0376,
  "EchoTrainLength": 104,
  "EffectiveEchoSpacing": 0.000590009,
  "FlipAngle": 68,
  "ImageComments": "Unaliased MB6/PE3/LB",
  "ImageOrientationPatientDICOM": [0.995295, -0.0904075, 0.0348619, 0.094083, 0.987749, -0.124502],
  "ImageType": [
    "ORIGINAL",
    "PRIMARY",
    "M",
    "MB",
    "ND",
    "MOSAIC"
],
  "ImagingFrequency": 123.197,
  "InPlanePhaseEncodingDirectionDICOM": "COL",
  "InstitutionAddress": "Washington Place 6,NYC,NYC,US,10003",
  "InstitutionName": "NYU - CBI",
  "InstitutionalDepartmentName": "Department",
  "MRAcquisitionType": "2D",
  "MagneticFieldStrength": 3,
  "Manufacturer": "Siemens",
  "ManufacturersModelName": "Prisma",
  "Modality": "MR",
  "MultibandAccelerationFactor": 6,
  "PartialFourier": 1,
  "PatientPosition": "HFS",
  "PercentPhaseFOV": 100,
  "PercentSampling": 100,
  "PhaseEncodingDirection": "j",
  "PhaseEncodingSteps": 104,
  "PhaseResolution": 1,
  "PixelBandwidth": 2290,
  "ProcedureStepDescription": "Investigators^Winawer",
  "ProtocolName": "cmrr_mbepi_s6_2mm_66sl_PA_task-wedgering2",
  "PulseSequenceDetails": "%CustomerSeq%\\cmrr_mbep2d_bold",
  "ReceiveCoilActiveElements": "HC1-7",
  "ReceiveCoilName": "HeadNeck_64",
  "ReconMatrixPE": 104,
  "RepetitionTime": 1,
  "SAR": 0.0789361,
  "ScanOptions": "FS",
  "ScanningSequence": "EP",
  "SequenceName": "epfid2d1_104",
  "SequenceVariant": "SK\\SS",
  "SeriesDescription": "cmrr_mbepi_s6_2mm_66sl_PA_task-wedgering2",
  "SeriesNumber": 14,
  "ShimSetting": [310, -12650, -8405, 448, 53, 186, 32, 37],
  "SliceThickness": 2,
  "SliceTiming": [0, 0.5325, 0.0875, 0.6225, 0.1775, 0.7125, 0.265, 0.8, 0.355, 0.89, 0.445, 0, 0.5325, 0.0875, 0.6225, 0.1775, 0.7125, 0.265, 0.8, 0.355, 0.89, 0.445, 0, 0.5325, 0.0875, 0.6225, 0.1775, 0.7125, 0.265, 0.8, 0.355, 0.89, 0.445, 0, 0.5325, 0.0875, 0.6225, 0.1775, 0.7125, 0.265, 0.8, 0.355, 0.89, 0.445, 0, 0.5325, 0.0875, 0.6225, 0.1775, 0.7125, 0.265, 0.8, 0.355, 0.89, 0.445, 0, 0.5325, 0.0875, 0.6225, 0.1775, 0.7125, 0.265, 0.8, 0.355, 0.89, 0.445],
  "SoftwareVersions": "syngo MR E11",
  "SpacingBetweenSlices": 2,
  "StationName": "AWP166018",
  "TaskName": "wedgering2",
  "TotalReadoutTime": 0.060771,
  "TxRefAmp": 233.912,
  "VendorReportedEchoSpacing": 0.00059,
  "WipMemBlock": "9c4df08c-2258-4a51-b795-689835ea7cbd||Sequence: R016 ve11c/master r/8780670; Nov 27 2017 15:05:12 by eja",
  "dcmmeta_affine": [
    [-1.9905890226364136, 0.18816602230072021, 0.04635784402489662, 97.07295227050781],
    [0.18081504106521606, 1.9754976034164429, -0.254392147064209, -80.26819610595703],
    [0.06972388178110123, 0.24900402128696442, 1.9832134246826172, -64.1136474609375],
    [0.0, 0.0, 0.0, 1.0]
],
  "dcmmeta_reorient_transform": [
    [0.0, -1.0, 0.0, 103.0],
    [1.0, 0.0, 0.0, 0.0],
    [0.0, 0.0, 1.0, 0.0],
    [0.0, 0.0, 0.0, 1.0]
],
  "dcmmeta_shape": [104, 104, 66, 300],
  "dcmmeta_slice_dim": 2,
  "dcmmeta_version": 0.6,
  "global": {
    "const": {
      "AccessionNumber": "Lfka57ou",
      "AcquisitionMatrix": [104, 0, 0, 104],
      "AngioFlag": "N",
      "BitsAllocated": 16,
      "BitsStored": 16,
      "BodyPartExamined": "BRAIN",
      "Columns": 936,
      "EchoNumbers": 1,
      "EchoTime": 37.6,
      "EchoTrainLength": 104,
      "FlipAngle": 68.0,
      "HighBit": 15,
      "ImageOrientationPatient": [0.99529449141174, -0.0904075240855, 0.03486194134274, 0.0940830110109, 0.98774877234445, -0.1245020070969],
      "ImagePositionPatient": [-1022.816131187, -869.79596990911, 36.114298445269],
      "ImageType": [
        "ORIGINAL",
        "PRIMARY",
        "M",
        "MB",
        "ND",
        "MOSAIC"
],
      "ImagedNucleus": "1H",
      "ImagingFrequency": 123.196785,
      "InPlanePhaseEncodingDirection": "COL",
      "MRAcquisitionType": "2D",
      "MagneticFieldStrength": 3.0,
      "Manufacturer": "SIEMENS",
      "ManufacturerModelName": "Prisma",
      "Modality": "MR",
      "NumberOfAverages": 1.0,
      "NumberOfPhaseEncodingSteps": 104,
      "PercentPhaseFieldOfView": 100.0,
      "PercentSampling": 100.0,
      "PerformedProcedureStepStartTime": "095945.733000",
      "PhotometricInterpretation": "MONOCHROME2",
      "PixelBandwidth": 2290.0,
      "PixelRepresentation": 0,
      "PixelSpacing": [2.0, 2.0],
      "ProtocolName": "cmrr_mbepi_s6_2mm_66sl_PA_task-wedgering2",
      "RepetitionTime": 1000.0,
      "Rows": 936,
      "SAR": 0.07893607109521,
      "SamplesPerPixel": 1,
      "ScanOptions": "FS",
      "ScanningSequence": "EP",
      "SequenceName": "epfid2d1_104",
      "SequenceVariant": [
        "SK",
        "SS"
],
      "SeriesDescription": "cmrr_mbepi_s6_2mm_66sl_PA_task-wedgering2",
      "SeriesNumber": 14,
      "SeriesTime": "102651.516000",
      "SliceLocation": -51.115680198291,
      "SliceThickness": 2.0,
      "SmallestImagePixelValue": 0,
      "SoftwareVersions": "syngo MR E11",
      "SpacingBetweenSlices": 2.0000000074991,
      "SpecificCharacterSet": "ISO_IR 100",
      "StudyID": "1",
      "StudyTime": "095945.672000",
      "TransmitCoilName": "Body",
      "VariableFlipAngleFlag": "N",
      "WindowCenterWidthExplanation": "Algo1",
      "dBdt": 0.0},
    "slices": {}
  },
  "time": {
    "samples": {
      "AcquisitionNumber": [1, 2, 3, 4, 5, 6, 7, 8, 9, 10, 11, 12, 13, 14, 15, 16, 17, 18, 19, 20, 21, 22, 23, 24, 25, 26, 27, 28, 29, 30, 31, 32, 33, 34, 35, 36, 37, 38, 39, 40, 41, 42, 43, 44, 45, 46, 47, 48, 49, 50, 51, 52, 53, 54, 55, 56, 57, 58, 59, 60, 61, 62, 63, 64, 65, 66, 67, 68, 69, 70, 71, 72, 73, 74, 75, 76, 77, 78, 79, 80, 81, 82, 83, 84, 85, 86, 87, 88, 89, 90, 91, 92, 93, 94, 95, 96, 97, 98, 99, 100, 101, 102, 103, 104, 105, 106, 107, 108, 109, 110, 111, 112, 113, 114, 115, 116, 117, 118, 119, 120, 121, 122, 123, 124, 125, 126, 127, 128, 129, 130, 131, 132, 133, 134, 135, 136, 137, 138, 139, 140, 141, 142, 143, 144, 145, 146, 147, 148, 149, 150, 151, 152, 153, 154, 155, 156, 157, 158, 159, 160, 161, 162, 163, 164, 165, 166, 167, 168, 169, 170, 171, 172, 173, 174, 175, 176, 177, 178, 179, 180, 181, 182, 183, 184, 185, 186, 187, 188, 189, 190, 191, 192, 193, 194, 195, 196, 197, 198, 199, 200, 201, 202, 203, 204, 205, 206, 207, 208, 209, 210, 211, 212, 213, 214, 215, 216, 217, 218, 219, 220, 221, 222, 223, 224, 225, 226, 227, 228, 229, 230, 231, 232, 233, 234, 235, 236, 237, 238, 239, 240, 241, 242, 243, 244, 245, 246, 247, 248, 249, 250, 251, 252, 253, 254, 255, 256, 257, 258, 259, 260, 261, 262, 263, 264, 265, 266, 267, 268, 269, 270, 271, 272, 273, 274, 275, 276, 277, 278, 279, 280, 281, 282, 283, 284, 285, 286, 287, 288, 289, 290, 291, 292, 293, 294, 295, 296, 297, 298, 299, 300],
      "AcquisitionTime": ["102537.877500", "102538.877500", "102539.877500", "102540.877500", "102541.877500", "102542.877500", "102543.877500", "102544.877500", "102545.877500", "102546.877500", "102547.877500", "102548.877500", "102549.877500", "102550.877500", "102551.877500", "102552.877500", "102553.877500", "102554.877500", "102555.877500", "102556.877500", "102557.877500", "102558.877500", "102559.877500", "102600.877500", "102601.877500", "102602.877500", "102603.877500", "102604.877500", "102605.877500", "102606.877500", "102607.877500", "102608.877500", "102609.877500", "102610.877500", "102611.877500", "102612.877500", "102613.877500", "102614.877500", "102615.877500", "102616.877500", "102617.877500", "102618.877500", "102619.877500", "102620.877500", "102621.877500", "102622.877500", "102623.877500", "102624.877500", "102625.877500", "102626.877500", "102627.877500", "102628.877500", "102629.877500", "102630.877500", "102631.877500", "102632.877500", "102633.877500", "102634.877500", "102635.877500", "102636.877500", "102637.877500", "102638.877500", "102639.877500", "102640.877500", "102641.877500", "102642.877500", "102643.877500", "102644.877500", "102645.877500", "102646.877500", "102647.877500", "102648.877500", "102649.877500", "102650.877500", "102651.877500", "102652.877500", "102653.877500", "102654.877500", "102655.877500", "102656.877500", "102657.877500", "102658.877500", "102659.877500", "102700.877500", "102701.877500", "102702.877500", "102703.877500", "102704.877500", "102705.877500", "102706.877500", "102707.877500", "102708.877500", "102709.877500", "102710.877500", "102711.877500", "102712.877500", "102713.877500", "102714.877500", "102715.877500", "102716.877500", "102717.877500", "102718.877500", "102719.877500", "102720.877500", "102721.877500", "102722.877500", "102723.877500", "102724.877500", "102725.877500", "102726.877500", "102727.877500", "102728.877500", "102729.877500", "102730.877500", "102731.877500", "102732.877500", "102733.877500", "102734.877500", "102735.877500", "102736.877500", "102737.877500", "102738.877500", "102739.877500", "102740.877500", "102741.877500", "102742.877500", "102743.877500", "102744.877500", "102745.877500", "102746.877500", "102747.877500", "102748.877500", "102749.877500", "102750.877500", "102751.877500", "102752.877500", "102753.877500", "102754.877500", "102755.877500", "102756.877500", "102757.877500", "102758.877500", "102759.877500", "102800.877500", "102801.877500", "102802.877500", "102803.877500", "102804.877500", "102805.877500", "102806.877500", "102807.877500", "102808.877500", "102809.877500", "102810.877500", "102811.877500", "102812.877500", "102813.877500", "102814.877500", "102815.877500", "102816.877500", "102817.877500", "102818.877500", "102819.877500", "102820.877500", "102821.877500", "102822.877500", "102823.877500", "102824.877500", "102825.877500", "102826.877500", "102827.877500", "102828.877500", "102829.877500", "102830.877500", "102831.877500", "102832.877500", "102833.877500", "102834.877500", "102835.877500", "102836.877500", "102837.877500", "102838.877500", "102839.877500", "102840.877500", "102841.877500", "102842.877500", "102843.877500", "102844.877500", "102845.877500", "102846.877500", "102847.877500", "102848.877500", "102849.877500", "102850.877500", "102851.877500", "102852.877500", "102853.877500", "102854.877500", "102855.877500", "102856.877500", "102857.877500", "102858.877500", "102859.877500", "102900.877500", "102901.877500", "102902.877500", "102903.877500", "102904.877500", "102905.877500", "102906.877500", "102907.877500", "102908.877500", "102909.877500", "102910.877500", "102911.877500", "102912.877500", "102913.877500", "102914.877500", "102915.877500", "102916.877500", "102917.877500", "102918.877500", "102919.877500", "102920.877500", "102921.877500", "102922.877500", "102923.877500", "102924.877500", "102925.877500", "102926.877500", "102927.877500", "102928.877500", "102929.877500", "102930.877500", "102931.877500", "102932.877500", "102933.877500", "102934.877500", "102935.877500", "102936.877500", "102937.877500", "102938.877500", "102939.877500", "102940.877500", "102941.877500", "102942.877500", "102943.877500", "102944.877500", "102945.877500", "102946.877500", "102947.877500", "102948.877500", "102949.877500", "102950.877500", "102951.877500", "102952.877500", "102953.877500", "102954.877500", "102955.877500", "102956.877500", "102957.877500", "102958.877500", "102959.877500", "103000.877500", "103001.877500", "103002.877500", "103003.877500", "103004.877500", "103005.877500", "103006.877500", "103007.877500", "103008.877500", "103009.877500", "103010.877500", "103011.877500", "103012.877500", "103013.877500", "103014.877500", "103015.877500", "103016.877500", "103017.877500", "103018.877500", "103019.877500", "103020.877500", "103021.877500", "103022.877500", "103023.877500", "103024.877500", "103025.877500", "103026.877500", "103027.877500", "103028.877500", "103029.877500", "103030.877500", "103031.877500", "103032.877500", "103033.877500", "103034.877500", "103035.877500", "103036.877500"],
      "ContentTime": ["102651.519000", "102651.527000", "102651.531000", "102651.534000", "102651.537000", "102651.540000", "102651.543000", "102651.546000", "102651.554000", "102651.557000", "102651.560000", "102651.563000", "102651.566000", "102651.569000", "102651.572000", "102651.575000", "102651.578000", "102651.583000", "102651.586000", "102651.589000", "102651.592000", "102651.595000", "102651.598000", "102651.601000", "102651.604000", "102651.607000", "102651.610000", "102711.490000", "102711.493000", "102711.496000", "102711.499000", "102711.502000", "102711.505000", "102711.508000", "102711.511000", "102711.514000", "102711.517000", "102711.520000", "102711.523000", "102711.526000", "102711.530000", "102711.533000", "102711.536000", "102711.539000", "102711.542000", "102711.545000", "102711.548000", "102711.551000", "102711.554000", "102711.557000", "102711.560000", "102711.563000", "102711.566000", "102711.569000", "102711.572000", "102731.490000", "102731.493000", "102731.496000", "102731.499000", "102731.502000", "102731.505000", "102731.508000", "102731.511000", "102731.514000", "102731.517000", "102731.520000", "102731.523000", "102731.526000", "102731.530000", "102731.533000", "102731.536000", "102731.539000", "102731.542000", "102731.545000", "102731.548000", "102731.551000", "102731.554000", "102731.557000", "102731.560000", "102731.563000", "102731.566000", "102731.569000", "102731.572000", "102731.575000", "102751.490000", "102751.493000", "102751.496000", "102751.499000", "102751.502000", "102751.505000", "102751.508000", "102751.511000", "102751.514000", "102751.517000", "102751.520000", "102751.523000", "102751.526000", "102751.530000", "102751.533000", "102751.536000", "102751.539000", "102751.542000", "102751.553000", "102751.556000", "102751.559000", "102751.562000", "102751.565000", "102751.568000", "102751.571000", "102751.574000", "102751.577000", "102751.580000", "102811.490000", "102811.493000", "102811.496000", "102811.499000", "102811.502000", "102811.505000", "102811.512000", "102811.515000", "102811.518000", "102811.521000", "102811.524000", "102811.527000", "102811.531000", "102811.534000", "102811.537000", "102811.540000", "102811.543000", "102811.546000", "102811.549000", "102811.551000", "102811.555000", "102811.558000", "102811.561000", "102811.564000", "102811.566000", "102811.569000", "102811.572000", "102811.575000", "102831.491000", "102831.494000", "102831.497000", "102831.500000", "102831.503000", "102831.506000", "102831.509000", "102831.512000", "102831.515000", "102831.518000", "102831.521000", "102831.524000", "102831.528000", "102831.531000", "102831.534000", "102831.538000", "102831.541000", "102831.544000", "102831.547000", "102831.550000", "102831.552000", "102831.555000", "102831.558000", "102831.561000", "102831.564000", "102831.567000", "102831.570000", "102831.573000", "102831.576000", "102851.504000", "102851.507000", "102851.510000", "102851.513000", "102851.516000", "102851.519000", "102851.522000", "102851.525000", "102851.529000", "102851.532000", "102851.535000", "102851.538000", "102851.541000", "102851.544000", "102851.547000", "102851.550000", "102851.553000", "102851.556000", "102851.559000", "102851.562000", "102851.565000", "102851.568000", "102851.571000", "102911.490000", "102911.493000", "102911.496000", "102911.499000", "102911.502000", "102911.505000", "102911.508000", "102911.511000", "102911.514000", "102911.517000", "102911.520000", "102911.523000", "102911.527000", "102911.531000", "102911.534000", "102911.537000", "102911.540000", "102911.543000", "102911.546000", "102911.549000", "102931.490000", "102931.493000", "102931.496000", "102931.499000", "102931.502000", "102931.505000", "102931.508000", "102931.511000", "102931.514000", "102931.517000", "102931.520000", "102931.523000", "102931.527000", "102931.531000", "102931.534000", "102931.536000", "102931.539000", "102931.542000", "102931.546000", "102931.548000", "102951.490000", "102951.493000", "102951.496000", "102951.499000", "102951.502000", "102951.505000", "102951.508000", "102951.511000", "102951.514000", "102951.517000", "102951.520000", "102951.523000", "102951.527000", "102951.530000", "102951.533000", "102951.536000", "102951.539000", "102951.542000", "102951.545000", "102951.548000", "103011.490000", "103011.493000", "103011.496000", "103011.499000", "103011.502000", "103011.505000", "103011.508000", "103011.511000", "103011.514000", "103011.517000", "103011.520000", "103011.523000", "103011.527000", "103011.530000", "103011.533000", "103011.536000", "103011.539000", "103011.542000", "103011.545000", "103011.548000", "103031.490000", "103031.493000", "103031.496000", "103031.499000", "103031.502000", "103031.505000", "103031.508000", "103031.511000", "103031.514000", "103031.517000", "103031.520000", "103031.523000", "103031.527000", "103031.530000", "103031.534000", "103031.537000", "103031.540000", "103031.543000", "103031.546000", "103031.549000", "103038.725000", "103038.728000", "103038.731000", "103038.734000", "103038.737000", "103038.740000", "103038.743000", "103038.746000"],
      "InstanceCreationTime": ["102651.519000", "102651.527000", "102651.531000", "102651.534000", "102651.537000", "102651.540000", "102651.543000", "102651.546000", "102651.554000", "102651.557000", "102651.560000", "102651.563000", "102651.566000", "102651.569000", "102651.572000", "102651.575000", "102651.578000", "102651.583000", "102651.586000", "102651.589000", "102651.592000", "102651.595000", "102651.598000", "102651.601000", "102651.604000", "102651.607000", "102651.610000", "102711.490000", "102711.493000", "102711.496000", "102711.499000", "102711.502000", "102711.505000", "102711.508000", "102711.511000", "102711.514000", "102711.517000", "102711.520000", "102711.523000", "102711.526000", "102711.530000", "102711.533000", "102711.536000", "102711.539000", "102711.542000", "102711.545000", "102711.548000", "102711.551000", "102711.554000", "102711.557000", "102711.560000", "102711.563000", "102711.566000", "102711.569000", "102711.572000", "102731.490000", "102731.493000", "102731.496000", "102731.499000", "102731.502000", "102731.505000", "102731.508000", "102731.511000", "102731.514000", "102731.517000", "102731.520000", "102731.523000", "102731.526000", "102731.530000", "102731.533000", "102731.536000", "102731.539000", "102731.542000", "102731.545000", "102731.548000", "102731.551000", "102731.554000", "102731.557000", "102731.560000", "102731.563000", "102731.566000", "102731.569000", "102731.572000", "102731.575000", "102751.490000", "102751.493000", "102751.496000", "102751.499000", "102751.502000", "102751.505000", "102751.508000", "102751.511000", "102751.514000", "102751.517000", "102751.520000", "102751.523000", "102751.526000", "102751.530000", "102751.533000", "102751.536000", "102751.539000", "102751.542000", "102751.553000", "102751.556000", "102751.559000", "102751.562000", "102751.565000", "102751.568000", "102751.571000", "102751.574000", "102751.577000", "102751.580000", "102811.490000", "102811.493000", "102811.496000", "102811.499000", "102811.502000", "102811.505000", "102811.512000", "102811.515000", "102811.518000", "102811.521000", "102811.524000", "102811.527000", "102811.531000", "102811.534000", "102811.537000", "102811.540000", "102811.543000", "102811.546000", "102811.549000", "102811.551000", "102811.555000", "102811.558000", "102811.561000", "102811.564000", "102811.566000", "102811.569000", "102811.572000", "102811.575000", "102831.491000", "102831.494000", "102831.497000", "102831.500000", "102831.503000", "102831.506000", "102831.509000", "102831.512000", "102831.515000", "102831.518000", "102831.521000", "102831.524000", "102831.528000", "102831.531000", "102831.534000", "102831.538000", "102831.541000", "102831.544000", "102831.547000", "102831.550000", "102831.552000", "102831.555000", "102831.558000", "102831.561000", "102831.564000", "102831.567000", "102831.570000", "102831.573000", "102831.576000", "102851.504000", "102851.507000", "102851.510000", "102851.513000", "102851.516000", "102851.519000", "102851.522000", "102851.525000", "102851.529000", "102851.532000", "102851.535000", "102851.538000", "102851.541000", "102851.544000", "102851.547000", "102851.550000", "102851.553000", "102851.556000", "102851.559000", "102851.562000", "102851.565000", "102851.568000", "102851.571000", "102911.490000", "102911.493000", "102911.496000", "102911.499000", "102911.502000", "102911.505000", "102911.508000", "102911.511000", "102911.514000", "102911.517000", "102911.520000", "102911.523000", "102911.527000", "102911.531000", "102911.534000", "102911.537000", "102911.540000", "102911.543000", "102911.546000", "102911.549000", "102931.490000", "102931.493000", "102931.496000", "102931.499000", "102931.502000", "102931.505000", "102931.508000", "102931.511000", "102931.514000", "102931.517000", "102931.520000", "102931.523000", "102931.527000", "102931.531000", "102931.534000", "102931.536000", "102931.539000", "102931.542000", "102931.546000", "102931.548000", "102951.490000", "102951.493000", "102951.496000", "102951.499000", "102951.502000", "102951.505000", "102951.508000", "102951.511000", "102951.514000", "102951.517000", "102951.520000", "102951.523000", "102951.527000", "102951.530000", "102951.533000", "102951.536000", "102951.539000", "102951.542000", "102951.545000", "102951.548000", "103011.490000", "103011.493000", "103011.496000", "103011.499000", "103011.502000", "103011.505000", "103011.508000", "103011.511000", "103011.514000", "103011.517000", "103011.520000", "103011.523000", "103011.527000", "103011.530000", "103011.533000", "103011.536000", "103011.539000", "103011.542000", "103011.545000", "103011.548000", "103031.490000", "103031.493000", "103031.496000", "103031.499000", "103031.502000", "103031.505000", "103031.508000", "103031.511000", "103031.514000", "103031.517000", "103031.520000", "103031.523000", "103031.527000", "103031.530000", "103031.534000", "103031.537000", "103031.540000", "103031.543000", "103031.546000", "103031.549000", "103038.725000", "103038.728000", "103038.731000", "103038.734000", "103038.737000", "103038.740000", "103038.743000", "103038.746000"],
      "InstanceNumber": [1, 2, 3, 4, 5, 6, 7, 8, 9, 10, 11, 12, 13, 14, 15, 16, 17, 18, 19, 20, 21, 22, 23, 24, 25, 26, 27, 28, 29, 30, 31, 32, 33, 34, 35, 36, 37, 38, 39, 40, 41, 42, 43, 44, 45, 46, 47, 48, 49, 50, 51, 52, 53, 54, 55, 56, 57, 58, 59, 60, 61, 62, 63, 64, 65, 66, 67, 68, 69, 70, 71, 72, 73, 74, 75, 76, 77, 78, 79, 80, 81, 82, 83, 84, 85, 86, 87, 88, 89, 90, 91, 92, 93, 94, 95, 96, 97, 98, 99, 100, 101, 102, 103, 104, 105, 106, 107, 108, 109, 110, 111, 112, 113, 114, 115, 116, 117, 118, 119, 120, 121, 122, 123, 124, 125, 126, 127, 128, 129, 130, 131, 132, 133, 134, 135, 136, 137, 138, 139, 140, 141, 142, 143, 144, 145, 146, 147, 148, 149, 150, 151, 152, 153, 154, 155, 156, 157, 158, 159, 160, 161, 162, 163, 164, 165, 166, 167, 168, 169, 170, 171, 172, 173, 174, 175, 176, 177, 178, 179, 180, 181, 182, 183, 184, 185, 186, 187, 188, 189, 190, 191, 192, 193, 194, 195, 196, 197, 198, 199, 200, 201, 202, 203, 204, 205, 206, 207, 208, 209, 210, 211, 212, 213, 214, 215, 216, 217, 218, 219, 220, 221, 222, 223, 224, 225, 226, 227, 228, 229, 230, 231, 232, 233, 234, 235, 236, 237, 238, 239, 240, 241, 242, 243, 244, 245, 246, 247, 248, 249, 250, 251, 252, 253, 254, 255, 256, 257, 258, 259, 260, 261, 262, 263, 264, 265, 266, 267, 268, 269, 270, 271, 272, 273, 274, 275, 276, 277, 278, 279, 280, 281, 282, 283, 284, 285, 286, 287, 288, 289, 290, 291, 292, 293, 294, 295, 296, 297, 298, 299, 300],
      "LargestImagePixelValue": [27306, 26778, 26241, 27582, 26596, 27281, 26038, 28295, 26203, 26309, 26056, 27912, 27085, 26089, 27722, 26370, 26494, 26736, 27504, 27442, 26243, 28647, 26135, 25874, 27840, 26477, 26455, 26238, 27631, 26566, 26238, 26752, 26460, 26226, 25706, 26032, 26760, 26117, 26007, 26304, 26183, 25932, 25717, 26141, 26035, 25934, 25967, 26070, 26305, 26167, 28166, 26153, 26185, 27908, 26818, 26070, 26497, 26394, 26203, 26498, 26881, 26207, 25892, 28294, 26327, 25914, 26689, 26151, 26086, 26733, 26503, 26294, 26444, 27255, 25962, 25810, 27631, 27165, 26393, 26312, 26802, 27056, 27496, 27080, 27715, 26413, 26918, 27418, 26551, 26254, 26750, 25932, 25731, 25876, 26354, 26800, 26632, 27818, 26469, 26075, 28332, 26751, 27244, 26342, 26999, 26797, 26395, 26889, 26289, 25950, 26356, 26880, 25624, 25756, 27915, 26109, 25549, 27492, 26851, 25877, 27432, 26471, 25420, 26331, 27192, 25545, 25472, 26778, 25577, 26325, 27329, 27220, 25991, 27354, 27204, 26396, 26292, 27608, 26098, 26582, 26445, 26193, 25452, 27045, 25239, 25704, 27328, 26661, 27768, 26285, 25950, 25695, 25279, 25216, 26855, 25555, 25451, 27912, 26020, 26032, 27671, 25876, 25902, 27653, 27190, 26265, 26258, 27457, 25734, 25369, 28830, 27518, 25852, 27123, 26168, 25433, 25267, 27517, 26579, 25451, 27731, 26830, 25502, 26532, 27117, 26439, 26549, 27748, 26313, 25274, 25709, 25611, 25303, 26089, 26116, 25835, 26454, 25394, 25747, 25987, 26628, 25580, 25494, 27104, 25339, 25364, 26409, 26221, 25390, 26045, 27019, 25523, 25993, 26946, 25151, 25906, 26254, 25105, 25366, 25272, 25512, 25129, 25088, 25073, 25616, 25437, 25065, 25356, 25620, 25700, 25500, 26182, 25162, 25180, 25323, 25457, 25444, 25000, 25251, 25567, 27002, 25837, 25087, 27430, 25457, 25100, 26468, 26655, 24874, 25364, 26728, 26553, 26285, 27401, 27558, 25234, 27077, 26031, 25256, 26245, 26684, 25305, 25454, 25365, 24861, 25994, 25171, 25534, 25304, 25838, 25464, 25306, 25469, 25144, 25326, 25131, 26935, 25321, 26352, 25823, 25405, 26484, 25906, 26426, 26067, 25717, 25631, 27503, 26161, 25550, 26050, 25421, 25908, 25216, 25190, 26361, 26299, 25147, 25673, 26072],
      "WindowCenter": [8883.0, 8863.0, 8857.0, 8875.0, 8865.0, 8886.0, 8852.0, 8888.0, 8849.0, 8840.0, 8824.0, 8863.0, 8860.0, 8848.0, 8882.0, 8867.0, 8855.0, 8870.0, 8883.0, 8866.0, 8838.0, 8890.0, 8839.0, 8832.0, 8878.0, 8855.0, 8845.0, 8838.0, 8865.0, 8844.0, 8829.0, 8842.0, 8844.0, 8827.0, 8815.0, 8823.0, 8841.0, 8827.0, 8822.0, 8837.0, 8827.0, 8822.0, 8827.0, 8840.0, 8841.0, 8850.0, 8844.0, 8851.0, 8857.0, 8858.0, 8897.0, 8867.0, 8867.0, 8899.0, 8880.0, 8843.0, 8862.0, 8851.0, 8849.0, 8861.0, 8862.0, 8858.0, 8852.0, 8905.0, 8869.0, 8855.0, 8865.0, 8857.0, 8858.0, 8863.0, 8855.0, 8842.0, 8838.0, 8856.0, 8824.0, 8825.0, 8855.0, 8858.0, 8848.0, 8848.0, 8859.0, 8864.0, 8865.0, 8849.0, 8860.0, 8836.0, 8832.0, 8853.0, 8837.0, 8846.0, 8859.0, 8848.0, 8837.0, 8831.0, 8836.0, 8849.0, 8840.0, 8859.0, 8842.0, 8831.0, 8873.0, 8849.0, 8857.0, 8828.0, 8840.0, 8850.0, 8827.0, 8849.0, 8841.0, 8831.0, 8841.0, 8861.0, 8830.0, 8837.0, 8882.0, 8849.0, 8819.0, 8866.0, 8853.0, 8835.0, 8857.0, 8838.0, 8813.0, 8831.0, 8848.0, 8826.0, 8827.0, 8852.0, 8833.0, 8841.0, 8865.0, 8858.0, 8842.0, 8867.0, 8868.0, 8859.0, 8859.0, 8884.0, 8860.0, 8865.0, 8856.0, 8851.0, 8839.0, 8869.0, 8831.0, 8840.0, 8858.0, 8847.0, 8873.0, 8839.0, 8832.0, 8833.0, 8827.0, 8826.0, 8861.0, 8835.0, 8825.0, 8870.0, 8831.0, 8823.0, 8854.0, 8824.0, 8824.0, 8859.0, 8852.0, 8840.0, 8830.0, 8855.0, 8817.0, 8804.0, 8874.0, 8858.0, 8831.0, 8852.0, 8840.0, 8821.0, 8811.0, 8854.0, 8835.0, 8807.0, 8852.0, 8832.0, 8806.0, 8826.0, 8831.0, 8834.0, 8833.0, 8862.0, 8831.0, 8803.0, 8808.0, 8808.0, 8794.0, 8810.0, 8811.0, 8821.0, 8825.0, 8810.0, 8826.0, 8841.0, 8854.0, 8819.0, 8827.0, 8858.0, 8820.0, 8820.0, 8844.0, 8839.0, 8823.0, 8842.0, 8861.0, 8837.0, 8838.0, 8852.0, 8821.0, 8836.0, 8837.0, 8808.0, 8831.0, 8821.0, 8837.0, 8840.0, 8823.0, 8834.0, 8847.0, 8833.0, 8828.0, 8835.0, 8839.0, 8820.0, 8827.0, 8831.0, 8811.0, 8803.0, 8812.0, 8828.0, 8827.0, 8814.0, 8814.0, 8817.0, 8839.0, 8822.0, 8805.0, 8861.0, 8828.0, 8817.0, 8845.0, 8853.0, 8813.0, 8812.0, 8842.0, 8837.0, 8840.0, 8863.0, 8865.0, 8823.0, 8858.0, 8834.0, 8815.0, 8839.0, 8830.0, 8804.0, 8813.0, 8804.0, 8800.0, 8825.0, 8812.0, 8813.0, 8815.0, 8836.0, 8830.0, 8833.0, 8841.0, 8833.0, 8824.0, 8824.0, 8834.0, 8811.0, 8841.0, 8842.0, 8831.0, 8860.0, 8841.0, 8840.0, 8826.0, 8820.0, 8820.0, 8855.0, 8840.0, 8830.0, 8833.0, 8831.0, 8853.0, 8833.0, 8824.0, 8850.0, 8842.0, 8812.0, 8817.0, 8831.0],
