{
  "AcquisitionMatrixPE": 104,
  "AcquisitionNumber": 1,
  "AcquisitionTime": "10:06:9.135000",
  "BandwidthPerPixelPhaseEncode": 16.297,
  "BaseResolution": 104,
  "BodyPartExamined": "BRAIN",
  "ConsistencyInfo": "N4_VE11C_LATEST_20160120",
  "ConversionSoftware": "dcm2niix",
  "ConversionSoftwareVersion": "v1.0.20210317",
  "DerivedVendorReportedEchoSpacing": 0.000590009,
  "DeviceSerialNumber": "166018",
  "DwellTime": 2.1e-06,
  "EchoTime": 0.0376,
  "EchoTrainLength": 104,
  "EffectiveEchoSpacing": 0.000590009,
  "FlipAngle": 68,
  "ImageComments": "Unaliased MB6/PE3/LB",
  "ImageOrientationPatientDICOM": [0.995295, -0.0904075, 0.0348619, 0.094083, 0.987749, -0.124502],
  "ImageType": [
    "ORIGINAL",
    "PRIMARY",
    "M",
    "MB",
    "ND",
    "MOSAIC"
],
  "ImagingFrequency": 123.197,
  "InPlanePhaseEncodingDirectionDICOM": "COL",
  "InstitutionAddress": "Washington Place 6,NYC,NYC,US,10003",
  "InstitutionName": "NYU - CBI",
  "InstitutionalDepartmentName": "Department",
  "MRAcquisitionType": "2D",
  "MagneticFieldStrength": 3,
  "Manufacturer": "Siemens",
  "ManufacturersModelName": "Prisma",
  "Modality": "MR",
  "MultibandAccelerationFactor": 6,
  "PartialFourier": 1,
  "PatientPosition": "HFS",
  "PercentPhaseFOV": 100,
  "PercentSampling": 100,
  "PhaseEncodingDirection": "j",
  "PhaseEncodingSteps": 104,
  "PhaseResolution": 1,
  "PixelBandwidth": 2290,
  "ProcedureStepDescription": "Investigators^Winawer",
  "ProtocolName": "cmrr_mbepi_s6_2mm_66sl_PA_task-bar1",
  "PulseSequenceDetails": "%CustomerSeq%\\cmrr_mbep2d_bold",
  "ReceiveCoilActiveElements": "HC1-7",
  "ReceiveCoilName": "HeadNeck_64",
  "ReconMatrixPE": 104,
  "RepetitionTime": 1,
  "SAR": 0.0789361,
  "ScanOptions": "FS",
  "ScanningSequence": "EP",
  "SequenceName": "epfid2d1_104",
  "SequenceVariant": "SK\\SS",
  "SeriesDescription": "cmrr_mbepi_s6_2mm_66sl_PA_task-bar1",
  "SeriesNumber": 8,
  "ShimSetting": [310, -12650, -8405, 448, 53, 186, 32, 37],
  "SliceThickness": 2,
  "SliceTiming": [0, 0.5325, 0.0875, 0.6225, 0.1775, 0.7125, 0.265, 0.8, 0.355, 0.89, 0.445, 0, 0.5325, 0.0875, 0.6225, 0.1775, 0.7125, 0.265, 0.8, 0.355, 0.89, 0.445, 0, 0.5325, 0.0875, 0.6225, 0.1775, 0.7125, 0.265, 0.8, 0.355, 0.89, 0.445, 0, 0.5325, 0.0875, 0.6225, 0.1775, 0.7125, 0.265, 0.8, 0.355, 0.89, 0.445, 0, 0.5325, 0.0875, 0.6225, 0.1775, 0.7125, 0.265, 0.8, 0.355, 0.89, 0.445, 0, 0.5325, 0.0875, 0.6225, 0.1775, 0.7125, 0.265, 0.8, 0.355, 0.89, 0.445],
  "SoftwareVersions": "syngo MR E11",
  "SpacingBetweenSlices": 2,
  "StationName": "AWP166018",
  "TaskName": "bar1",
  "TotalReadoutTime": 0.060771,
  "TxRefAmp": 233.912,
  "VendorReportedEchoSpacing": 0.00059,
  "WipMemBlock": "26d6ce01-403f-40b0-91bc-6b183e76eb1b||Sequence: R016 ve11c/master r/8780670; Nov 27 2017 15:05:12 by eja",
  "dcmmeta_affine": [
    [-1.9905890226364136, 0.18816602230072021, 0.04635784402489662, 97.07295227050781],
    [0.18081504106521606, 1.9754976034164429, -0.254392147064209, -80.26819610595703],
    [0.06972388178110123, 0.24900402128696442, 1.9832134246826172, -64.1136474609375],
    [0.0, 0.0, 0.0, 1.0]
],
  "dcmmeta_reorient_transform": [
    [0.0, -1.0, 0.0, 103.0],
    [1.0, 0.0, 0.0, 0.0],
    [0.0, 0.0, 1.0, 0.0],
    [0.0, 0.0, 0.0, 1.0]
],
  "dcmmeta_shape": [104, 104, 66, 300],
  "dcmmeta_slice_dim": 2,
  "dcmmeta_version": 0.6,
  "global": {
    "const": {
      "AccessionNumber": "Lfka57ou",
      "AcquisitionMatrix": [104, 0, 0, 104],
      "AngioFlag": "N",
      "BitsAllocated": 16,
      "BitsStored": 16,
      "BodyPartExamined": "BRAIN",
      "Columns": 936,
      "EchoNumbers": 1,
      "EchoTime": 37.6,
      "EchoTrainLength": 104,
      "FlipAngle": 68.0,
      "HighBit": 15,
      "ImageOrientationPatient": [0.99529449141174, -0.0904075240855, 0.03486194134274, 0.0940830110109, 0.98774877234445, -0.1245020070969],
      "ImagePositionPatient": [-1022.816131187, -869.79596990911, 36.114298445269],
      "ImageType": [
        "ORIGINAL",
        "PRIMARY",
        "M",
        "MB",
        "ND",
        "MOSAIC"
],
      "ImagedNucleus": "1H",
      "ImagingFrequency": 123.19678,
      "InPlanePhaseEncodingDirection": "COL",
      "MRAcquisitionType": "2D",
      "MagneticFieldStrength": 3.0,
      "Manufacturer": "SIEMENS",
      "ManufacturerModelName": "Prisma",
      "Modality": "MR",
      "NumberOfAverages": 1.0,
      "NumberOfPhaseEncodingSteps": 104,
      "PercentPhaseFieldOfView": 100.0,
      "PercentSampling": 100.0,
      "PerformedProcedureStepStartTime": "095945.733000",
      "PhotometricInterpretation": "MONOCHROME2",
      "PixelBandwidth": 2290.0,
      "PixelRepresentation": 0,
      "PixelSpacing": [2.0, 2.0],
      "ProtocolName": "cmrr_mbepi_s6_2mm_66sl_PA_task-bar1",
      "RepetitionTime": 1000.0,
      "Rows": 936,
      "SAR": 0.07893607109521,
      "SamplesPerPixel": 1,
      "ScanOptions": "FS",
      "ScanningSequence": "EP",
      "SequenceName": "epfid2d1_104",
      "SequenceVariant": [
        "SK",
        "SS"
],
      "SeriesDescription": "cmrr_mbepi_s6_2mm_66sl_PA_task-bar1",
      "SeriesNumber": 8,
      "SeriesTime": "100731.518000",
      "SliceLocation": -51.115680198291,
      "SliceThickness": 2.0,
      "SmallestImagePixelValue": 0,
      "SoftwareVersions": "syngo MR E11",
      "SpacingBetweenSlices": 2.0000000074991,
      "SpecificCharacterSet": "ISO_IR 100",
      "StudyID": "1",
      "StudyTime": "095945.672000",
      "TransmitCoilName": "Body",
      "VariableFlipAngleFlag": "N",
      "WindowCenterWidthExplanation": "Algo1",
      "dBdt": 0.0},
    "slices": {}
  },
  "time": {
    "samples": {
      "AcquisitionNumber": [1, 2, 3, 4, 5, 6, 7, 8, 9, 10, 11, 12, 13, 14, 15, 16, 17, 18, 19, 20, 21, 22, 23, 24, 25, 26, 27, 28, 29, 30, 31, 32, 33, 34, 35, 36, 37, 38, 39, 40, 41, 42, 43, 44, 45, 46, 47, 48, 49, 50, 51, 52, 53, 54, 55, 56, 57, 58, 59, 60, 61, 62, 63, 64, 65, 66, 67, 68, 69, 70, 71, 72, 73, 74, 75, 76, 77, 78, 79, 80, 81, 82, 83, 84, 85, 86, 87, 88, 89, 90, 91, 92, 93, 94, 95, 96, 97, 98, 99, 100, 101, 102, 103, 104, 105, 106, 107, 108, 109, 110, 111, 112, 113, 114, 115, 116, 117, 118, 119, 120, 121, 122, 123, 124, 125, 126, 127, 128, 129, 130, 131, 132, 133, 134, 135, 136, 137, 138, 139, 140, 141, 142, 143, 144, 145, 146, 147, 148, 149, 150, 151, 152, 153, 154, 155, 156, 157, 158, 159, 160, 161, 162, 163, 164, 165, 166, 167, 168, 169, 170, 171, 172, 173, 174, 175, 176, 177, 178, 179, 180, 181, 182, 183, 184, 185, 186, 187, 188, 189, 190, 191, 192, 193, 194, 195, 196, 197, 198, 199, 200, 201, 202, 203, 204, 205, 206, 207, 208, 209, 210, 211, 212, 213, 214, 215, 216, 217, 218, 219, 220, 221, 222, 223, 224, 225, 226, 227, 228, 229, 230, 231, 232, 233, 234, 235, 236, 237, 238, 239, 240, 241, 242, 243, 244, 245, 246, 247, 248, 249, 250, 251, 252, 253, 254, 255, 256, 257, 258, 259, 260, 261, 262, 263, 264, 265, 266, 267, 268, 269, 270, 271, 272, 273, 274, 275, 276, 277, 278, 279, 280, 281, 282, 283, 284, 285, 286, 287, 288, 289, 290, 291, 292, 293, 294, 295, 296, 297, 298, 299, 300],
      "AcquisitionTime": ["100609.135000", "100610.135000", "100611.135000", "100612.135000", "100613.135000", "100614.135000", "100615.135000", "100616.135000", "100617.135000", "100618.135000", "100619.135000", "100620.135000", "100621.135000", "100622.135000", "100623.135000", "100624.135000", "100625.135000", "100626.135000", "100627.135000", "100628.135000", "100629.135000", "100630.135000", "100631.135000", "100632.135000", "100633.135000", "100634.135000", "100635.135000", "100636.135000", "100637.135000", "100638.135000", "100639.135000", "100640.135000", "100641.135000", "100642.135000", "100643.135000", "100644.135000", "100645.135000", "100646.135000", "100647.135000", "100648.135000", "100649.135000", "100650.135000", "100651.135000", "100652.135000", "100653.135000", "100654.135000", "100655.135000", "100656.135000", "100657.135000", "100658.135000", "100659.135000", "100700.135000", "100701.135000", "100702.135000", "100703.135000", "100704.135000", "100705.135000", "100706.135000", "100707.135000", "100708.135000", "100709.135000", "100710.135000", "100711.135000", "100712.135000", "100713.135000", "100714.135000", "100715.135000", "100716.135000", "100717.135000", "100718.135000", "100719.135000", "100720.135000", "100721.135000", "100722.135000", "100723.135000", "100724.135000", "100725.135000", "100726.135000", "100727.135000", "100728.135000", "100729.135000", "100730.135000", "100731.135000", "100732.135000", "100733.135000", "100734.135000", "100735.135000", "100736.135000", "100737.135000", "100738.135000", "100739.135000", "100740.135000", "100741.135000", "100742.135000", "100743.135000", "100744.135000", "100745.135000", "100746.135000", "100747.135000", "100748.135000", "100749.135000", "100750.135000", "100751.135000", "100752.135000", "100753.135000", "100754.135000", "100755.135000", "100756.135000", "100757.135000", "100758.135000", "100759.135000", "100800.135000", "100801.135000", "100802.135000", "100803.135000", "100804.135000", "100805.135000", "100806.135000", "100807.135000", "100808.135000", "100809.135000", "100810.135000", "100811.135000", "100812.135000", "100813.135000", "100814.135000", "100815.135000", "100816.135000", "100817.135000", "100818.135000", "100819.135000", "100820.135000", "100821.135000", "100822.135000", "100823.135000", "100824.135000", "100825.135000", "100826.135000", "100827.135000", "100828.135000", "100829.135000", "100830.135000", "100831.135000", "100832.135000", "100833.135000", "100834.135000", "100835.135000", "100836.135000", "100837.135000", "100838.135000", "100839.135000", "100840.135000", "100841.135000", "100842.135000", "100843.135000", "100844.135000", "100845.135000", "100846.135000", "100847.135000", "100848.135000", "100849.135000", "100850.135000", "100851.135000", "100852.135000", "100853.135000", "100854.135000", "100855.135000", "100856.135000", "100857.135000", "100858.135000", "100859.135000", "100900.135000", "100901.135000", "100902.135000", "100903.135000", "100904.135000", "100905.135000", "100906.135000", "100907.135000", "100908.135000", "100909.135000", "100910.135000", "100911.135000", "100912.135000", "100913.135000", "100914.135000", "100915.135000", "100916.135000", "100917.135000", "100918.135000", "100919.135000", "100920.135000", "100921.135000", "100922.135000", "100923.135000", "100924.135000", "100925.135000", "100926.135000", "100927.135000", "100928.135000", "100929.135000", "100930.135000", "100931.135000", "100932.135000", "100933.135000", "100934.135000", "100935.135000", "100936.135000", "100937.135000", "100938.135000", "100939.135000", "100940.135000", "100941.135000", "100942.135000", "100943.135000", "100944.135000", "100945.135000", "100946.135000", "100947.135000", "100948.135000", "100949.135000", "100950.135000", "100951.135000", "100952.135000", "100953.135000", "100954.135000", "100955.135000", "100956.135000", "100957.135000", "100958.135000", "100959.135000", "101000.135000", "101001.135000", "101002.135000", "101003.135000", "101004.135000", "101005.135000", "101006.135000", "101007.135000", "101008.135000", "101009.135000", "101010.135000", "101011.135000", "101012.135000", "101013.135000", "101014.135000", "101015.135000", "101016.135000", "101017.135000", "101018.135000", "101019.135000", "101020.135000", "101021.135000", "101022.135000", "101023.135000", "101024.135000", "101025.135000", "101026.135000", "101027.135000", "101028.135000", "101029.135000", "101030.135000", "101031.135000", "101032.135000", "101033.135000", "101034.135000", "101035.135000", "101036.135000", "101037.135000", "101038.135000", "101039.135000", "101040.135000", "101041.135000", "101042.135000", "101043.135000", "101044.135000", "101045.135000", "101046.135000", "101047.135000", "101048.135000", "101049.135000", "101050.135000", "101051.135000", "101052.135000", "101053.135000", "101054.135000", "101055.135000", "101056.135000", "101057.135000", "101058.135000", "101059.135000", "101100.135000", "101101.135000", "101102.135000", "101103.135000", "101104.135000", "101105.135000", "101106.135000", "101107.135000", "101108.135000"],
      "ContentTime": ["100731.521000", "100731.524000", "100731.527000", "100731.530000", "100731.537000", "100731.540000", "100731.543000", "100731.549000", "100731.552000", "100731.555000", "100731.558000", "100731.561000", "100731.564000", "100731.567000", "100731.570000", "100731.573000", "100731.576000", "100731.579000", "100731.582000", "100731.585000", "100731.588000", "100731.591000", "100731.594000", "100731.597000", "100731.600000", "100731.603000", "100731.606000", "100731.609000", "100731.612000", "100731.615000", "100731.618000", "100731.621000", "100731.624000", "100731.627000", "100731.630000", "100731.633000", "100731.637000", "100731.642000", "100731.645000", "100751.492000", "100751.496000", "100751.499000", "100751.502000", "100751.505000", "100751.508000", "100751.511000", "100751.514000", "100751.532000", "100751.535000", "100751.538000", "100751.541000", "100751.544000", "100751.547000", "100751.550000", "100751.553000", "100751.556000", "100751.559000", "100751.562000", "100751.565000", "100751.568000", "100751.571000", "100751.574000", "100751.581000", "100751.584000", "100751.587000", "100751.590000", "100751.593000", "100751.596000", "100811.491000", "100811.495000", "100811.498000", "100811.501000", "100811.504000", "100811.507000", "100811.510000", "100811.513000", "100811.516000", "100811.519000", "100811.522000", "100811.525000", "100811.528000", "100811.530000", "100811.533000", "100811.536000", "100811.539000", "100811.542000", "100811.545000", "100811.549000", "100811.552000", "100811.555000", "100811.558000", "100811.560000", "100811.564000", "100811.567000", "100811.570000", "100811.573000", "100831.491000", "100831.494000", "100831.497000", "100831.500000", "100831.503000", "100831.506000", "100831.509000", "100831.512000", "100831.515000", "100831.518000", "100831.521000", "100831.524000", "100831.527000", "100831.530000", "100831.533000", "100831.536000", "100831.539000", "100831.542000", "100831.545000", "100831.549000", "100831.552000", "100831.555000", "100831.558000", "100831.561000", "100831.564000", "100831.567000", "100831.570000", "100831.573000", "100851.491000", "100851.495000", "100851.498000", "100851.501000", "100851.504000", "100851.507000", "100851.510000", "100851.513000", "100851.516000", "100851.519000", "100851.522000", "100851.525000", "100851.528000", "100851.531000", "100851.534000", "100851.537000", "100851.540000", "100851.543000", "100851.546000", "100851.549000", "100851.552000", "100851.555000", "100851.558000", "100851.561000", "100851.564000", "100851.567000", "100851.570000", "100851.573000", "100911.491000", "100911.494000", "100911.497000", "100911.500000", "100911.503000", "100911.506000", "100911.509000", "100911.512000", "100911.515000", "100911.518000", "100911.521000", "100911.524000", "100911.527000", "100911.530000", "100911.533000", "100911.536000", "100911.539000", "100911.542000", "100911.545000", "100911.548000", "100911.552000", "100911.554000", "100911.557000", "100911.560000", "100911.563000", "100911.566000", "100911.569000", "100911.572000", "100911.575000", "100931.491000", "100931.494000", "100931.497000", "100931.500000", "100931.503000", "100931.506000", "100931.509000", "100931.512000", "100931.515000", "100931.518000", "100931.521000", "100931.524000", "100931.527000", "100931.530000", "100931.533000", "100931.536000", "100931.539000", "100931.542000", "100931.545000", "100931.548000", "100951.491000", "100951.494000", "100951.497000", "100951.500000", "100951.503000", "100951.506000", "100951.509000", "100951.512000", "100951.515000", "100951.518000", "100951.521000", "100951.524000", "100951.527000", "100951.530000", "100951.533000", "100951.536000", "100951.562000", "100951.565000", "100951.568000", "100951.571000", "101011.492000", "101011.495000", "101011.498000", "101011.501000", "101011.504000", "101011.507000", "101011.510000", "101011.513000", "101011.516000", "101011.519000", "101011.522000", "101011.525000", "101011.528000", "101011.531000", "101011.534000", "101011.537000", "101011.540000", "101011.543000", "101011.546000", "101011.549000", "101031.491000", "101031.494000", "101031.497000", "101031.500000", "101031.503000", "101031.506000", "101031.509000", "101031.512000", "101031.515000", "101031.518000", "101031.521000", "101031.524000", "101031.527000", "101031.530000", "101031.533000", "101031.536000", "101031.539000", "101031.542000", "101031.545000", "101031.548000", "101051.491000", "101051.494000", "101051.497000", "101051.500000", "101051.503000", "101051.506000", "101051.509000", "101051.512000", "101051.515000", "101051.518000", "101051.521000", "101051.524000", "101051.527000", "101051.530000", "101051.533000", "101051.536000", "101051.539000", "101051.542000", "101051.545000", "101051.548000", "101109.670000", "101109.673000", "101109.677000", "101109.680000", "101109.683000", "101109.686000", "101109.688000", "101109.691000", "101109.694000", "101109.697000", "101109.700000", "101109.703000", "101109.706000", "101109.709000", "101109.712000", "101109.715000", "101109.718000", "101109.721000", "101109.724000"],
      "InstanceCreationTime": ["100731.521000", "100731.524000", "100731.527000", "100731.530000", "100731.537000", "100731.540000", "100731.543000", "100731.549000", "100731.552000", "100731.555000", "100731.558000", "100731.561000", "100731.564000", "100731.567000", "100731.570000", "100731.573000", "100731.576000", "100731.579000", "100731.582000", "100731.585000", "100731.588000", "100731.591000", "100731.594000", "100731.597000", "100731.600000", "100731.603000", "100731.606000", "100731.609000", "100731.612000", "100731.615000", "100731.618000", "100731.621000", "100731.624000", "100731.627000", "100731.630000", "100731.633000", "100731.637000", "100731.642000", "100731.645000", "100751.492000", "100751.496000", "100751.499000", "100751.502000", "100751.505000", "100751.508000", "100751.511000", "100751.514000", "100751.532000", "100751.535000", "100751.538000", "100751.541000", "100751.544000", "100751.547000", "100751.550000", "100751.553000", "100751.556000", "100751.559000", "100751.562000", "100751.565000", "100751.568000", "100751.571000", "100751.574000", "100751.581000", "100751.584000", "100751.587000", "100751.590000", "100751.593000", "100751.596000", "100811.491000", "100811.495000", "100811.498000", "100811.501000", "100811.504000", "100811.507000", "100811.510000", "100811.513000", "100811.516000", "100811.519000", "100811.522000", "100811.525000", "100811.528000", "100811.530000", "100811.533000", "100811.536000", "100811.539000", "100811.542000", "100811.545000", "100811.549000", "100811.552000", "100811.555000", "100811.558000", "100811.560000", "100811.564000", "100811.567000", "100811.570000", "100811.573000", "100831.491000", "100831.494000", "100831.497000", "100831.500000", "100831.503000", "100831.506000", "100831.509000", "100831.512000", "100831.515000", "100831.518000", "100831.521000", "100831.524000", "100831.527000", "100831.530000", "100831.533000", "100831.536000", "100831.539000", "100831.542000", "100831.545000", "100831.549000", "100831.552000", "100831.555000", "100831.558000", "100831.561000", "100831.564000", "100831.567000", "100831.570000", "100831.573000", "100851.491000", "100851.495000", "100851.498000", "100851.501000", "100851.504000", "100851.507000", "100851.510000", "100851.513000", "100851.516000", "100851.519000", "100851.522000", "100851.525000", "100851.528000", "100851.531000", "100851.534000", "100851.537000", "100851.540000", "100851.543000", "100851.546000", "100851.549000", "100851.552000", "100851.555000", "100851.558000", "100851.561000", "100851.564000", "100851.567000", "100851.570000", "100851.573000", "100911.491000", "100911.494000", "100911.497000", "100911.500000", "100911.503000", "100911.506000", "100911.509000", "100911.512000", "100911.515000", "100911.518000", "100911.521000", "100911.524000", "100911.527000", "100911.530000", "100911.533000", "100911.536000", "100911.539000", "100911.542000", "100911.545000", "100911.548000", "100911.552000", "100911.554000", "100911.557000", "100911.560000", "100911.563000", "100911.566000", "100911.569000", "100911.572000", "100911.575000", "100931.491000", "100931.494000", "100931.497000", "100931.500000", "100931.503000", "100931.506000", "100931.509000", "100931.512000", "100931.515000", "100931.518000", "100931.521000", "100931.524000", "100931.527000", "100931.530000", "100931.533000", "100931.536000", "100931.539000", "100931.542000", "100931.545000", "100931.548000", "100951.491000", "100951.494000", "100951.497000", "100951.500000", "100951.503000", "100951.506000", "100951.509000", "100951.512000", "100951.515000", "100951.518000", "100951.521000", "100951.524000", "100951.527000", "100951.530000", "100951.533000", "100951.536000", "100951.562000", "100951.565000", "100951.568000", "100951.571000", "101011.492000", "101011.495000", "101011.498000", "101011.501000", "101011.504000", "101011.507000", "101011.510000", "101011.513000", "101011.516000", "101011.519000", "101011.522000", "101011.525000", "101011.528000", "101011.531000", "101011.534000", "101011.537000", "101011.540000", "101011.543000", "101011.546000", "101011.549000", "101031.491000", "101031.494000", "101031.497000", "101031.500000", "101031.503000", "101031.506000", "101031.509000", "101031.512000", "101031.515000", "101031.518000", "101031.521000", "101031.524000", "101031.527000", "101031.530000", "101031.533000", "101031.536000", "101031.539000", "101031.542000", "101031.545000", "101031.548000", "101051.491000", "101051.494000", "101051.497000", "101051.500000", "101051.503000", "101051.506000", "101051.509000", "101051.512000", "101051.515000", "101051.518000", "101051.521000", "101051.524000", "101051.527000", "101051.530000", "101051.533000", "101051.536000", "101051.539000", "101051.542000", "101051.545000", "101051.548000", "101109.670000", "101109.673000", "101109.677000", "101109.680000", "101109.683000", "101109.686000", "101109.688000", "101109.691000", "101109.694000", "101109.697000", "101109.700000", "101109.703000", "101109.706000", "101109.709000", "101109.712000", "101109.715000", "101109.718000", "101109.721000", "101109.724000"],
      "InstanceNumber": [1, 2, 3, 4, 5, 6, 7, 8, 9, 10, 11, 12, 13, 14, 15, 16, 17, 18, 19, 20, 21, 22, 23, 24, 25, 26, 27, 28, 29, 30, 31, 32, 33, 34, 35, 36, 37, 38, 39, 40, 41, 42, 43, 44, 45, 46, 47, 48, 49, 50, 51, 52, 53, 54, 55, 56, 57, 58, 59, 60, 61, 62, 63, 64, 65, 66, 67, 68, 69, 70, 71, 72, 73, 74, 75, 76, 77, 78, 79, 80, 81, 82, 83, 84, 85, 86, 87, 88, 89, 90, 91, 92, 93, 94, 95, 96, 97, 98, 99, 100, 101, 102, 103, 104, 105, 106, 107, 108, 109, 110, 111, 112, 113, 114, 115, 116, 117, 118, 119, 120, 121, 122, 123, 124, 125, 126, 127, 128, 129, 130, 131, 132, 133, 134, 135, 136, 137, 138, 139, 140, 141, 142, 143, 144, 145, 146, 147, 148, 149, 150, 151, 152, 153, 154, 155, 156, 157, 158, 159, 160, 161, 162, 163, 164, 165, 166, 167, 168, 169, 170, 171, 172, 173, 174, 175, 176, 177, 178, 179, 180, 181, 182, 183, 184, 185, 186, 187, 188, 189, 190, 191, 192, 193, 194, 195, 196, 197, 198, 199, 200, 201, 202, 203, 204, 205, 206, 207, 208, 209, 210, 211, 212, 213, 214, 215, 216, 217, 218, 219, 220, 221, 222, 223, 224, 225, 226, 227, 228, 229, 230, 231, 232, 233, 234, 235, 236, 237, 238, 239, 240, 241, 242, 243, 244, 245, 246, 247, 248, 249, 250, 251, 252, 253, 254, 255, 256, 257, 258, 259, 260, 261, 262, 263, 264, 265, 266, 267, 268, 269, 270, 271, 272, 273, 274, 275, 276, 277, 278, 279, 280, 281, 282, 283, 284, 285, 286, 287, 288, 289, 290, 291, 292, 293, 294, 295, 296, 297, 298, 299, 300],
      "LargestImagePixelValue": [27381, 26821, 26135, 26702, 26629, 25926, 26599, 25722, 25781, 26297, 25700, 25950, 25580, 25665, 25638, 26046, 25993, 25834, 25997, 26212, 26063, 26135, 25853, 26024, 25561, 25893, 26071, 25710, 25699, 25741, 25724, 26009, 26040, 25755, 25896, 25687, 25297, 26368, 25403, 25671, 25629, 25454, 24841, 25765, 25428, 25155, 25784, 25195, 24921, 25549, 25512, 24877, 25455, 25832, 25066, 25470, 25628, 25460, 25821, 25253, 25800, 25595, 25444, 25115, 25958, 25364, 25599, 25237, 25403, 25536, 25058, 25283, 25634, 25227, 25341, 25577, 25054, 25437, 25492, 25047, 25149, 25170, 25058, 25777, 25316, 25498, 25136, 25549, 26144, 25224, 25217, 24990, 25062, 24971, 25082, 24898, 25154, 25107, 24997, 25284, 25062, 24918, 25292, 25210, 24857, 24784, 25169, 24731, 24902, 25029, 24931, 25198, 25196, 25251, 25004, 25116, 24980, 25132, 25038, 25386, 24919, 25879, 25066, 24907, 25272, 24693, 25132, 25223, 24881, 25375, 25041, 25224, 24991, 25573, 25046, 25023, 25600, 25535, 25048, 25295, 25332, 25048, 25316, 24747, 24793, 25252, 25508, 25452, 24985, 25238, 25068, 24989, 25212, 25432, 25559, 25172, 25313, 25251, 24958, 25347, 25077, 25298, 25889, 25192, 25058, 25489, 25113, 24920, 24902, 25144, 25089, 24920, 24930, 25085, 25298, 24984, 25119, 25193, 25208, 25317, 25192, 24964, 24859, 25186, 25351, 24956, 25152, 24921, 24975, 25233, 25329, 26104, 25817, 25478, 26538, 25251, 25533, 25265, 26015, 25105, 25344, 24915, 25373, 25520, 25051, 25454, 25387, 25094, 25259, 25477, 24895, 25256, 25881, 24663, 25317, 26112, 25226, 25424, 26318, 25791, 25924, 25775, 25528, 25471, 26018, 25650, 25051, 25334, 25619, 25204, 25913, 25237, 25018, 25389, 25340, 24947, 25213, 24864, 25049, 25682, 25299, 25496, 25792, 25599, 26037, 25728, 25210, 25248, 25186, 25395, 26114, 25736, 25839, 25834, 26942, 26730, 26071, 26013, 25628, 25983, 25486, 25136, 25900, 26070, 25546, 25299, 26258, 26357, 28283, 26402, 25878, 25686, 26121, 28112, 26335, 26452, 26682, 26439, 26377, 26253, 26557, 26619, 26522, 26556, 27020, 26999, 26583, 26701, 26939, 26684, 26613, 26629, 26595, 26824, 26667, 26934, 26748, 26811, 27009, 26575],
      "WindowCenter": [8885.0, 8851.0, 8838.0, 8853.0, 8853.0, 8841.0, 8846.0, 8835.0, 8842.0, 8848.0, 8843.0, 8850.0, 8846.0, 8845.0, 8852.0, 8863.0, 8861.0, 8861.0, 8860.0, 8866.0, 8860.0, 8875.0, 8870.0, 8861.0, 8861.0, 8861.0, 8860.0, 8855.0, 8863.0, 8863.0, 8864.0, 8871.0, 8878.0, 8872.0, 8878.0, 8871.0, 8855.0, 8873.0, 8847.0, 8853.0, 8843.0, 8845.0, 8838.0, 8848.0, 8837.0, 8837.0, 8856.0, 8845.0, 8831.0, 8834.0, 8843.0, 8823.0, 8836.0, 8857.0, 8831.0, 8844.0, 8846.0, 8844.0, 8841.0, 8827.0, 8839.0, 8824.0, 8824.0, 8820.0, 8839.0, 8826.0, 8842.0, 8829.0, 8834.0, 8842.0, 8830.0, 8826.0, 8824.0, 8817.0, 8809.0, 8815.0, 8805.0, 8810.0, 8823.0, 8813.0, 8818.0, 8826.0, 8815.0, 8841.0, 8828.0, 8837.0, 8830.0, 8836.0, 8856.0, 8828.0, 8819.0, 8813.0, 8812.0, 8813.0, 8821.0, 8813.0, 8826.0, 8812.0, 8812.0, 8818.0, 8811.0, 8804.0, 8817.0, 8817.0, 8813.0, 8808.0, 8818.0, 8805.0, 8804.0, 8803.0, 8802.0, 8810.0, 8810.0, 8801.0, 8800.0, 8803.0, 8803.0, 8808.0, 8811.0, 8820.0, 8811.0, 8832.0, 8812.0, 8804.0, 8818.0, 8813.0, 8827.0, 8827.0, 8822.0, 8836.0, 8823.0, 8838.0, 8823.0, 8827.0, 8813.0, 8814.0, 8831.0, 8841.0, 8833.0, 8838.0, 8836.0, 8820.0, 8810.0, 8795.0, 8796.0, 8808.0, 8814.0, 8830.0, 8814.0, 8820.0, 8822.0, 8821.0, 8820.0, 8810.0, 8822.0, 8817.0, 8816.0, 8818.0, 8811.0, 8818.0, 8819.0, 8820.0, 8839.0, 8836.0, 8831.0, 8843.0, 8825.0, 8823.0, 8814.0, 8820.0, 8813.0, 8813.0, 8813.0, 8814.0, 8819.0, 8813.0, 8822.0, 8821.0, 8825.0, 8820.0, 8818.0, 8813.0, 8814.0, 8819.0, 8813.0, 8814.0, 8811.0, 8811.0, 8805.0, 8817.0, 8822.0, 8838.0, 8825.0, 8825.0, 8846.0, 8812.0, 8825.0, 8818.0, 8816.0, 8803.0, 8816.0, 8804.0, 8809.0, 8823.0, 8811.0, 8832.0, 8828.0, 8822.0, 8827.0, 8836.0, 8821.0, 8819.0, 8831.0, 8797.0, 8808.0, 8828.0, 8809.0, 8819.0, 8845.0, 8840.0, 8834.0, 8832.0, 8818.0, 8823.0, 8822.0, 8823.0, 8813.0, 8812.0, 8819.0, 8821.0, 8826.0, 8822.0, 8819.0, 8830.0, 8816.0, 8807.0, 8812.0, 8807.0, 8807.0, 8827.0, 8824.0, 8831.0, 8828.0, 8831.0, 8836.0, 8819.0, 8820.0, 8813.0, 8813.0, 8811.0, 8837.0, 8820.0, 8824.0, 8826.0, 8845.0, 8844.0, 8834.0, 8836.0, 8830.0, 8835.0, 8838.0, 8823.0, 8833.0, 8834.0, 8828.0, 8821.0, 8840.0, 8840.0, 8879.0, 8854.0, 8850.0, 8849.0, 8861.0, 8899.0, 8851.0, 8849.0, 8838.0, 8844.0, 8832.0, 8837.0, 8848.0, 8857.0, 8867.0, 8860.0, 8873.0, 8874.0, 8865.0, 8865.0, 8872.0, 8855.0, 8855.0, 8857.0, 8857.0, 8862.0, 8850.0, 8864.0, 8858.0, 8866.0, 8865.0, 8866.0],
