{
  "AcquisitionMatrixPE": 104,
  "AcquisitionNumber": 1,
  "AcquisitionTime": "13:10:36.267500",
  "BandwidthPerPixelPhaseEncode": 16.297,
  "BaseResolution": 104,
  "BodyPartExamined": "BRAIN",
  "ConsistencyInfo": "N4_VE11C_LATEST_20160120",
  "ConversionSoftware": "dcm2niix",
  "ConversionSoftwareVersion": "v1.0.20210317",
  "DerivedVendorReportedEchoSpacing": 0.000590009,
  "DeviceSerialNumber": "166018",
  "DwellTime": 2.1e-06,
  "EchoTime": 0.0376,
  "EchoTrainLength": 104,
  "EffectiveEchoSpacing": 0.000590009,
  "FlipAngle": 68,
  "ImageComments": "Unaliased MB6/PE3/LB",
  "ImageOrientationPatientDICOM": [0.994543, -0.0373522, 0.0974072, 0.0458577, 0.995188, -0.0865958],
  "ImageType": [
    "ORIGINAL",
    "PRIMARY",
    "M",
    "MB",
    "ND",
    "MOSAIC"
],
  "ImagingFrequency": 123.197,
  "InPlanePhaseEncodingDirectionDICOM": "COL",
  "InstitutionAddress": "Washington Place 6,NYC,NYC,US,10003",
  "InstitutionName": "NYU - CBI",
  "InstitutionalDepartmentName": "Department",
  "MRAcquisitionType": "2D",
  "MagneticFieldStrength": 3,
  "Manufacturer": "Siemens",
  "ManufacturersModelName": "Prisma",
  "Modality": "MR",
  "MultibandAccelerationFactor": 6,
  "PartialFourier": 1,
  "PatientPosition": "HFS",
  "PercentPhaseFOV": 100,
  "PercentSampling": 100,
  "PhaseEncodingDirection": "j",
  "PhaseEncodingSteps": 104,
  "PhaseResolution": 1,
  "PixelBandwidth": 2290,
  "ProcedureStepDescription": "Investigators^Winawer",
  "ProtocolName": "cmrr_mbepi_s6_2mm_66sl_PA_task-bar2",
  "PulseSequenceDetails": "%CustomerSeq%\\cmrr_mbep2d_bold",
  "ReceiveCoilActiveElements": "HC1-7",
  "ReceiveCoilName": "HeadNeck_64",
  "ReconMatrixPE": 104,
  "RepetitionTime": 1,
  "SAR": 0.0683485,
  "ScanOptions": "FS",
  "ScanningSequence": "EP",
  "SequenceName": "epfid2d1_104",
  "SequenceVariant": "SK\\SS",
  "SeriesDescription": "cmrr_mbepi_s6_2mm_66sl_PA_task-bar2",
  "SeriesNumber": 12,
  "ShimSetting": [298, -12686, -8446, 311, -75, -336, -18, 42],
  "SliceThickness": 2,
  "SliceTiming": [0, 0.535, 0.09, 0.625, 0.18, 0.7125, 0.2675, 0.8025, 0.3575, 0.8925, 0.445, 0, 0.535, 0.09, 0.625, 0.18, 0.7125, 0.2675, 0.8025, 0.3575, 0.8925, 0.445, 0, 0.535, 0.09, 0.625, 0.18, 0.7125, 0.2675, 0.8025, 0.3575, 0.8925, 0.445, 0, 0.535, 0.09, 0.625, 0.18, 0.7125, 0.2675, 0.8025, 0.3575, 0.8925, 0.445, 0, 0.535, 0.09, 0.625, 0.18, 0.7125, 0.2675, 0.8025, 0.3575, 0.8925, 0.445, 0, 0.535, 0.09, 0.625, 0.18, 0.7125, 0.2675, 0.8025, 0.3575, 0.8925, 0.445],
  "SoftwareVersions": "syngo MR E11",
  "SpacingBetweenSlices": 2,
  "StationName": "AWP166018",
  "TaskName": "bar2",
  "TotalReadoutTime": 0.060771,
  "TxRefAmp": 222.56,
  "VendorReportedEchoSpacing": 0.00059,
  "WipMemBlock": "509d0fc3-9c48-48fd-9bae-defdcac2fcf8||Sequence: R016 ve11c/master r/8780670; Nov 27 2017 15:05:12 by eja",
  "dcmmeta_affine": [
    [-1.9890868663787842, 0.09171538800001144, 0.18740777671337128, 101.63523864746094],
    [0.07470433413982391, 1.99037504196167, -0.18118035793304443, -63.784366607666016],
    [0.19481438398361206, 0.173191636800766, 1.9829403162002563, -60.50223159790039],
    [0.0, 0.0, 0.0, 1.0]
],
  "dcmmeta_reorient_transform": [
    [0.0, -1.0, 0.0, 103.0],
    [1.0, 0.0, 0.0, 0.0],
    [0.0, 0.0, 1.0, 0.0],
    [0.0, 0.0, 0.0, 1.0]
],
  "dcmmeta_shape": [104, 104, 66, 300],
  "dcmmeta_slice_dim": 2,
  "dcmmeta_version": 0.6,
  "global": {
    "const": {
      "AccessionNumber": "Leyktwnq",
      "AcquisitionMatrix": [104, 0, 0, 104],
      "AngioFlag": "N",
      "BitsAllocated": 16,
      "BitsStored": 16,
      "BodyPartExamined": "BRAIN",
      "Columns": 936,
      "EchoNumbers": 1,
      "EchoTime": 37.6,
      "EchoTrainLength": 104,
      "FlipAngle": 68.0,
      "HighBit": 15,
      "ImageOrientationPatient": [0.99454343995412, -0.037352166871, 0.09740719518737, 0.04585769236743, 0.99518753794093, -0.086595821942],
      "ImagePositionPatient": [-976.69566548423, -938.14329376551, -51.658553634027],
      "ImageType": [
        "ORIGINAL",
        "PRIMARY",
        "M",
        "MB",
        "ND",
        "MOSAIC"
],
      "ImagedNucleus": "1H",
      "ImagingFrequency": 123.196769,
      "InPlanePhaseEncodingDirection": "COL",
      "MRAcquisitionType": "2D",
      "MagneticFieldStrength": 3.0,
      "Manufacturer": "SIEMENS",
      "ManufacturerModelName": "Prisma",
      "Modality": "MR",
      "NumberOfAverages": 1.0,
      "NumberOfPhaseEncodingSteps": 104,
      "PercentPhaseFieldOfView": 100.0,
      "PercentSampling": 100.0,
      "PerformedProcedureStepStartTime": "124856.385000",
      "PhotometricInterpretation": "MONOCHROME2",
      "PixelBandwidth": 2290.0,
      "PixelRepresentation": 0,
      "PixelSpacing": [2.0, 2.0],
      "ProtocolName": "cmrr_mbepi_s6_2mm_66sl_PA_task-bar2",
      "RepetitionTime": 1000.0,
      "Rows": 936,
      "SAR": 0.06834849589703,
      "SamplesPerPixel": 1,
      "ScanOptions": "FS",
      "ScanningSequence": "EP",
      "SequenceName": "epfid2d1_104",
      "SequenceVariant": [
        "SK",
        "SS"
],
      "SeriesDescription": "cmrr_mbepi_s6_2mm_66sl_PA_task-bar2",
      "SeriesNumber": 12,
      "SeriesTime": "131144.879000",
      "SliceLocation": -44.684299908774,
      "SliceThickness": 2.0,
      "SmallestImagePixelValue": 0,
      "SoftwareVersions": "syngo MR E11",
      "SpacingBetweenSlices": 2.0000000828447,
      "SpecificCharacterSet": "ISO_IR 100",
      "StudyID": "1",
      "StudyTime": "124856.259000",
      "TransmitCoilName": "Body",
      "VariableFlipAngleFlag": "N",
      "WindowCenterWidthExplanation": "Algo1",
      "dBdt": 0.0},
    "slices": {}
  },
  "time": {
    "samples": {
      "AcquisitionNumber": [1, 2, 3, 4, 5, 6, 7, 8, 9, 10, 11, 12, 13, 14, 15, 16, 17, 18, 19, 20, 21, 22, 23, 24, 25, 26, 27, 28, 29, 30, 31, 32, 33, 34, 35, 36, 37, 38, 39, 40, 41, 42, 43, 44, 45, 46, 47, 48, 49, 50, 51, 52, 53, 54, 55, 56, 57, 58, 59, 60, 61, 62, 63, 64, 65, 66, 67, 68, 69, 70, 71, 72, 73, 74, 75, 76, 77, 78, 79, 80, 81, 82, 83, 84, 85, 86, 87, 88, 89, 90, 91, 92, 93, 94, 95, 96, 97, 98, 99, 100, 101, 102, 103, 104, 105, 106, 107, 108, 109, 110, 111, 112, 113, 114, 115, 116, 117, 118, 119, 120, 121, 122, 123, 124, 125, 126, 127, 128, 129, 130, 131, 132, 133, 134, 135, 136, 137, 138, 139, 140, 141, 142, 143, 144, 145, 146, 147, 148, 149, 150, 151, 152, 153, 154, 155, 156, 157, 158, 159, 160, 161, 162, 163, 164, 165, 166, 167, 168, 169, 170, 171, 172, 173, 174, 175, 176, 177, 178, 179, 180, 181, 182, 183, 184, 185, 186, 187, 188, 189, 190, 191, 192, 193, 194, 195, 196, 197, 198, 199, 200, 201, 202, 203, 204, 205, 206, 207, 208, 209, 210, 211, 212, 213, 214, 215, 216, 217, 218, 219, 220, 221, 222, 223, 224, 225, 226, 227, 228, 229, 230, 231, 232, 233, 234, 235, 236, 237, 238, 239, 240, 241, 242, 243, 244, 245, 246, 247, 248, 249, 250, 251, 252, 253, 254, 255, 256, 257, 258, 259, 260, 261, 262, 263, 264, 265, 266, 267, 268, 269, 270, 271, 272, 273, 274, 275, 276, 277, 278, 279, 280, 281, 282, 283, 284, 285, 286, 287, 288, 289, 290, 291, 292, 293, 294, 295, 296, 297, 298, 299, 300],
      "AcquisitionTime": ["131036.267500", "131037.267500", "131038.267500", "131039.267500", "131040.267500", "131041.267500", "131042.267500", "131043.267500", "131044.267500", "131045.267500", "131046.267500", "131047.267500", "131048.267500", "131049.267500", "131050.267500", "131051.267500", "131052.267500", "131053.267500", "131054.267500", "131055.267500", "131056.267500", "131057.267500", "131058.267500", "131059.267500", "131100.267500", "131101.267500", "131102.267500", "131103.267500", "131104.267500", "131105.267500", "131106.267500", "131107.267500", "131108.267500", "131109.267500", "131110.267500", "131111.267500", "131112.267500", "131113.267500", "131114.267500", "131115.267500", "131116.267500", "131117.267500", "131118.267500", "131119.267500", "131120.267500", "131121.267500", "131122.267500", "131123.267500", "131124.267500", "131125.267500", "131126.267500", "131127.267500", "131128.267500", "131129.267500", "131130.267500", "131131.267500", "131132.267500", "131133.267500", "131134.267500", "131135.267500", "131136.267500", "131137.267500", "131138.267500", "131139.267500", "131140.267500", "131141.267500", "131142.267500", "131143.267500", "131144.267500", "131145.267500", "131146.267500", "131147.267500", "131148.267500", "131149.267500", "131150.267500", "131151.267500", "131152.267500", "131153.267500", "131154.267500", "131155.267500", "131156.267500", "131157.267500", "131158.267500", "131159.267500", "131200.267500", "131201.267500", "131202.267500", "131203.267500", "131204.267500", "131205.267500", "131206.267500", "131207.267500", "131208.267500", "131209.267500", "131210.267500", "131211.267500", "131212.267500", "131213.267500", "131214.267500", "131215.267500", "131216.267500", "131217.267500", "131218.267500", "131219.267500", "131220.267500", "131221.267500", "131222.267500", "131223.267500", "131224.267500", "131225.267500", "131226.267500", "131227.267500", "131228.267500", "131229.267500", "131230.267500", "131231.267500", "131232.267500", "131233.267500", "131234.267500", "131235.267500", "131236.267500", "131237.267500", "131238.267500", "131239.267500", "131240.267500", "131241.267500", "131242.267500", "131243.267500", "131244.267500", "131245.267500", "131246.267500", "131247.267500", "131248.267500", "131249.267500", "131250.267500", "131251.267500", "131252.267500", "131253.267500", "131254.267500", "131255.267500", "131256.267500", "131257.267500", "131258.267500", "131259.267500", "131300.267500", "131301.267500", "131302.267500", "131303.267500", "131304.267500", "131305.267500", "131306.267500", "131307.267500", "131308.267500", "131309.267500", "131310.267500", "131311.267500", "131312.267500", "131313.267500", "131314.267500", "131315.267500", "131316.267500", "131317.267500", "131318.267500", "131319.267500", "131320.267500", "131321.267500", "131322.267500", "131323.267500", "131324.267500", "131325.267500", "131326.267500", "131327.267500", "131328.267500", "131329.267500", "131330.267500", "131331.267500", "131332.267500", "131333.267500", "131334.267500", "131335.267500", "131336.267500", "131337.267500", "131338.267500", "131339.267500", "131340.267500", "131341.267500", "131342.267500", "131343.267500", "131344.267500", "131345.267500", "131346.267500", "131347.267500", "131348.267500", "131349.267500", "131350.267500", "131351.267500", "131352.267500", "131353.267500", "131354.267500", "131355.267500", "131356.267500", "131357.267500", "131358.267500", "131359.267500", "131400.267500", "131401.267500", "131402.267500", "131403.267500", "131404.267500", "131405.267500", "131406.267500", "131407.267500", "131408.267500", "131409.267500", "131410.267500", "131411.267500", "131412.267500", "131413.267500", "131414.267500", "131415.267500", "131416.267500", "131417.267500", "131418.267500", "131419.267500", "131420.267500", "131421.267500", "131422.267500", "131423.267500", "131424.267500", "131425.267500", "131426.267500", "131427.267500", "131428.267500", "131429.267500", "131430.267500", "131431.267500", "131432.267500", "131433.267500", "131434.267500", "131435.267500", "131436.267500", "131437.267500", "131438.267500", "131439.267500", "131440.267500", "131441.267500", "131442.267500", "131443.267500", "131444.267500", "131445.267500", "131446.267500", "131447.267500", "131448.267500", "131449.267500", "131450.267500", "131451.267500", "131452.267500", "131453.267500", "131454.267500", "131455.267500", "131456.267500", "131457.267500", "131458.267500", "131459.267500", "131500.267500", "131501.267500", "131502.267500", "131503.267500", "131504.267500", "131505.267500", "131506.267500", "131507.267500", "131508.267500", "131509.267500", "131510.267500", "131511.267500", "131512.267500", "131513.267500", "131514.267500", "131515.267500", "131516.267500", "131517.267500", "131518.267500", "131519.267500", "131520.267500", "131521.267500", "131522.267500", "131523.267500", "131524.267500", "131525.267500", "131526.267500", "131527.267500", "131528.267500", "131529.267500", "131530.267500", "131531.267500", "131532.267500", "131533.267500", "131534.267500", "131535.267500"],
      "ContentTime": ["131144.882000", "131144.886000", "131144.889000", "131144.896000", "131144.899000", "131144.902000", "131144.905000", "131144.908000", "131144.911000", "131144.914000", "131144.917000", "131144.920000", "131144.923000", "131144.926000", "131144.929000", "131144.932000", "131144.936000", "131144.939000", "131204.843000", "131204.846000", "131204.849000", "131204.852000", "131204.855000", "131204.858000", "131204.861000", "131204.870000", "131204.873000", "131204.877000", "131204.880000", "131204.883000", "131204.886000", "131204.889000", "131204.892000", "131204.895000", "131204.898000", "131204.901000", "131204.904000", "131204.911000", "131204.914000", "131204.917000", "131204.920000", "131204.923000", "131204.926000", "131204.929000", "131204.939000", "131204.942000", "131224.843000", "131224.846000", "131224.849000", "131224.852000", "131224.855000", "131224.858000", "131224.861000", "131224.864000", "131224.867000", "131224.870000", "131224.873000", "131224.877000", "131224.880000", "131224.883000", "131224.886000", "131224.889000", "131224.892000", "131224.895000", "131224.898000", "131224.901000", "131224.904000", "131224.907000", "131224.910000", "131224.913000", "131224.916000", "131224.919000", "131224.922000", "131224.925000", "131224.928000", "131244.843000", "131244.846000", "131244.849000", "131244.852000", "131244.855000", "131244.858000", "131244.861000", "131244.864000", "131244.867000", "131244.870000", "131244.873000", "131244.878000", "131244.881000", "131244.884000", "131244.887000", "131244.890000", "131244.893000", "131244.896000", "131244.899000", "131244.902000", "131244.905000", "131244.908000", "131244.911000", "131244.923000", "131244.926000", "131244.929000", "131244.932000", "131244.935000", "131304.843000", "131304.846000", "131304.849000", "131304.852000", "131304.855000", "131304.858000", "131304.861000", "131304.864000", "131304.875000", "131304.878000", "131304.881000", "131304.884000", "131304.887000", "131304.890000", "131304.893000", "131304.896000", "131304.899000", "131304.902000", "131304.905000", "131304.908000", "131304.911000", "131304.914000", "131304.917000", "131304.920000", "131304.923000", "131304.926000", "131304.929000", "131304.932000", "131304.935000", "131324.854000", "131324.858000", "131324.860000", "131324.864000", "131324.866000", "131324.869000", "131324.872000", "131324.876000", "131324.880000", "131324.882000", "131324.885000", "131324.888000", "131324.891000", "131324.894000", "131324.897000", "131324.900000", "131324.903000", "131324.906000", "131324.909000", "131324.912000", "131324.915000", "131324.918000", "131324.921000", "131324.924000", "131324.927000", "131324.931000", "131324.934000", "131324.937000", "131344.844000", "131344.847000", "131344.850000", "131344.853000", "131344.856000", "131344.859000", "131344.862000", "131344.865000", "131344.874000", "131344.878000", "131344.881000", "131344.884000", "131344.887000", "131344.890000", "131344.893000", "131344.896000", "131344.899000", "131344.902000", "131344.905000", "131344.908000", "131344.911000", "131344.914000", "131344.917000", "131344.920000", "131344.923000", "131344.926000", "131344.929000", "131404.843000", "131404.846000", "131404.849000", "131404.852000", "131404.855000", "131404.858000", "131404.861000", "131404.864000", "131404.867000", "131404.870000", "131404.874000", "131404.877000", "131404.881000", "131404.884000", "131404.887000", "131404.889000", "131404.892000", "131404.895000", "131404.898000", "131404.901000", "131424.843000", "131424.846000", "131424.849000", "131424.852000", "131424.855000", "131424.858000", "131424.861000", "131424.864000", "131424.867000", "131424.870000", "131424.874000", "131424.878000", "131424.881000", "131424.884000", "131424.887000", "131424.890000", "131424.892000", "131424.896000", "131424.898000", "131424.901000", "131444.843000", "131444.846000", "131444.849000", "131444.852000", "131444.855000", "131444.858000", "131444.861000", "131444.864000", "131444.867000", "131444.870000", "131444.874000", "131444.877000", "131444.880000", "131444.884000", "131444.886000", "131444.890000", "131444.893000", "131444.896000", "131444.899000", "131444.902000", "131504.843000", "131504.846000", "131504.849000", "131504.852000", "131504.855000", "131504.858000", "131504.861000", "131504.864000", "131504.867000", "131504.870000", "131504.874000", "131504.877000", "131504.880000", "131504.883000", "131504.886000", "131504.889000", "131504.892000", "131504.895000", "131504.898000", "131504.901000", "131524.843000", "131524.846000", "131524.849000", "131524.852000", "131524.855000", "131524.858000", "131524.861000", "131524.864000", "131524.867000", "131524.870000", "131524.874000", "131524.877000", "131524.880000", "131524.884000", "131524.887000", "131524.889000", "131524.892000", "131524.895000", "131524.898000", "131524.901000", "131537.055000", "131537.058000", "131537.061000", "131537.064000", "131537.067000", "131537.070000", "131537.073000", "131537.076000", "131537.079000", "131537.082000", "131537.085000", "131537.088000", "131537.098000"],
      "InstanceCreationTime": ["131144.882000", "131144.886000", "131144.889000", "131144.896000", "131144.899000", "131144.902000", "131144.905000", "131144.908000", "131144.911000", "131144.914000", "131144.917000", "131144.920000", "131144.923000", "131144.926000", "131144.929000", "131144.932000", "131144.936000", "131144.939000", "131204.843000", "131204.846000", "131204.849000", "131204.852000", "131204.855000", "131204.858000", "131204.861000", "131204.870000", "131204.873000", "131204.877000", "131204.880000", "131204.883000", "131204.886000", "131204.889000", "131204.892000", "131204.895000", "131204.898000", "131204.901000", "131204.904000", "131204.911000", "131204.914000", "131204.917000", "131204.920000", "131204.923000", "131204.926000", "131204.929000", "131204.939000", "131204.942000", "131224.843000", "131224.846000", "131224.849000", "131224.852000", "131224.855000", "131224.858000", "131224.861000", "131224.864000", "131224.867000", "131224.870000", "131224.873000", "131224.877000", "131224.880000", "131224.883000", "131224.886000", "131224.889000", "131224.892000", "131224.895000", "131224.898000", "131224.901000", "131224.904000", "131224.907000", "131224.910000", "131224.913000", "131224.916000", "131224.919000", "131224.922000", "131224.925000", "131224.928000", "131244.843000", "131244.846000", "131244.849000", "131244.852000", "131244.855000", "131244.858000", "131244.861000", "131244.864000", "131244.867000", "131244.870000", "131244.873000", "131244.878000", "131244.881000", "131244.884000", "131244.887000", "131244.890000", "131244.893000", "131244.896000", "131244.899000", "131244.902000", "131244.905000", "131244.908000", "131244.911000", "131244.923000", "131244.926000", "131244.929000", "131244.932000", "131244.935000", "131304.843000", "131304.846000", "131304.849000", "131304.852000", "131304.855000", "131304.858000", "131304.861000", "131304.864000", "131304.875000", "131304.878000", "131304.881000", "131304.884000", "131304.887000", "131304.890000", "131304.893000", "131304.896000", "131304.899000", "131304.902000", "131304.905000", "131304.908000", "131304.911000", "131304.914000", "131304.917000", "131304.920000", "131304.923000", "131304.926000", "131304.929000", "131304.932000", "131304.935000", "131324.854000", "131324.858000", "131324.860000", "131324.864000", "131324.866000", "131324.869000", "131324.872000", "131324.876000", "131324.880000", "131324.882000", "131324.885000", "131324.888000", "131324.891000", "131324.894000", "131324.897000", "131324.900000", "131324.903000", "131324.906000", "131324.909000", "131324.912000", "131324.915000", "131324.918000", "131324.921000", "131324.924000", "131324.927000", "131324.931000", "131324.934000", "131324.937000", "131344.844000", "131344.847000", "131344.850000", "131344.853000", "131344.856000", "131344.859000", "131344.862000", "131344.865000", "131344.874000", "131344.878000", "131344.881000", "131344.884000", "131344.887000", "131344.890000", "131344.893000", "131344.896000", "131344.899000", "131344.902000", "131344.905000", "131344.908000", "131344.911000", "131344.914000", "131344.917000", "131344.920000", "131344.923000", "131344.926000", "131344.929000", "131404.843000", "131404.846000", "131404.849000", "131404.852000", "131404.855000", "131404.858000", "131404.861000", "131404.864000", "131404.867000", "131404.870000", "131404.874000", "131404.877000", "131404.881000", "131404.884000", "131404.887000", "131404.889000", "131404.892000", "131404.895000", "131404.898000", "131404.901000", "131424.843000", "131424.846000", "131424.849000", "131424.852000", "131424.855000", "131424.858000", "131424.861000", "131424.864000", "131424.867000", "131424.870000", "131424.874000", "131424.878000", "131424.881000", "131424.884000", "131424.887000", "131424.890000", "131424.892000", "131424.896000", "131424.898000", "131424.901000", "131444.843000", "131444.846000", "131444.849000", "131444.852000", "131444.855000", "131444.858000", "131444.861000", "131444.864000", "131444.867000", "131444.870000", "131444.874000", "131444.877000", "131444.880000", "131444.884000", "131444.886000", "131444.890000", "131444.893000", "131444.896000", "131444.899000", "131444.902000", "131504.843000", "131504.846000", "131504.849000", "131504.852000", "131504.855000", "131504.858000", "131504.861000", "131504.864000", "131504.867000", "131504.870000", "131504.874000", "131504.877000", "131504.880000", "131504.883000", "131504.886000", "131504.889000", "131504.892000", "131504.895000", "131504.898000", "131504.901000", "131524.843000", "131524.846000", "131524.849000", "131524.852000", "131524.855000", "131524.858000", "131524.861000", "131524.864000", "131524.867000", "131524.870000", "131524.874000", "131524.877000", "131524.880000", "131524.884000", "131524.887000", "131524.889000", "131524.892000", "131524.895000", "131524.898000", "131524.901000", "131537.055000", "131537.058000", "131537.061000", "131537.064000", "131537.067000", "131537.070000", "131537.073000", "131537.076000", "131537.079000", "131537.082000", "131537.085000", "131537.088000", "131537.098000"],
      "InstanceNumber": [1, 2, 3, 4, 5, 6, 7, 8, 9, 10, 11, 12, 13, 14, 15, 16, 17, 18, 19, 20, 21, 22, 23, 24, 25, 26, 27, 28, 29, 30, 31, 32, 33, 34, 35, 36, 37, 38, 39, 40, 41, 42, 43, 44, 45, 46, 47, 48, 49, 50, 51, 52, 53, 54, 55, 56, 57, 58, 59, 60, 61, 62, 63, 64, 65, 66, 67, 68, 69, 70, 71, 72, 73, 74, 75, 76, 77, 78, 79, 80, 81, 82, 83, 84, 85, 86, 87, 88, 89, 90, 91, 92, 93, 94, 95, 96, 97, 98, 99, 100, 101, 102, 103, 104, 105, 106, 107, 108, 109, 110, 111, 112, 113, 114, 115, 116, 117, 118, 119, 120, 121, 122, 123, 124, 125, 126, 127, 128, 129, 130, 131, 132, 133, 134, 135, 136, 137, 138, 139, 140, 141, 142, 143, 144, 145, 146, 147, 148, 149, 150, 151, 152, 153, 154, 155, 156, 157, 158, 159, 160, 161, 162, 163, 164, 165, 166, 167, 168, 169, 170, 171, 172, 173, 174, 175, 176, 177, 178, 179, 180, 181, 182, 183, 184, 185, 186, 187, 188, 189, 190, 191, 192, 193, 194, 195, 196, 197, 198, 199, 200, 201, 202, 203, 204, 205, 206, 207, 208, 209, 210, 211, 212, 213, 214, 215, 216, 217, 218, 219, 220, 221, 222, 223, 224, 225, 226, 227, 228, 229, 230, 231, 232, 233, 234, 235, 236, 237, 238, 239, 240, 241, 242, 243, 244, 245, 246, 247, 248, 249, 250, 251, 252, 253, 254, 255, 256, 257, 258, 259, 260, 261, 262, 263, 264, 265, 266, 267, 268, 269, 270, 271, 272, 273, 274, 275, 276, 277, 278, 279, 280, 281, 282, 283, 284, 285, 286, 287, 288, 289, 290, 291, 292, 293, 294, 295, 296, 297, 298, 299, 300],
      "LargestImagePixelValue": [39063, 37394, 39551, 35577, 43305, 39522, 39087, 36647, 37528, 37662, 38176, 37827, 38734, 38564, 38466, 38475, 38809, 38620, 39207, 39005, 38957, 39054, 39146, 39177, 38912, 38927, 39211, 39950, 39772, 39188, 39311, 39795, 39519, 39581, 39382, 39020, 38591, 39604, 39120, 39129, 38891, 39909, 39705, 39543, 39481, 39100, 38960, 38681, 38924, 38617, 38990, 38397, 39218, 39219, 38981, 38444, 39425, 38384, 39754, 38741, 39306, 39332, 39330, 38864, 39392, 39358, 39169, 39286, 39205, 39542, 39231, 39004, 39527, 39289, 39461, 39903, 39662, 39310, 39719, 39722, 39825, 38945, 39019, 39542, 39098, 39620, 38901, 39199, 39235, 39369, 38646, 38638, 37094, 38275, 38172, 39034, 37329, 37457, 38919, 38437, 39664, 39731, 38909, 39197, 39565, 40011, 39112, 39307, 39169, 39653, 38293, 39805, 40303, 39678, 38780, 38784, 39134, 38792, 39690, 39376, 39500, 39421, 39118, 40150, 39377, 39205, 39097, 38822, 39472, 39764, 39052, 38756, 39827, 40064, 39533, 39483, 39646, 40306, 39110, 39588, 39807, 39860, 39100, 39778, 39420, 39462, 38951, 38798, 40050, 39173, 39467, 39242, 40404, 38832, 39642, 40401, 39860, 37266, 41557, 40441, 37866, 37909, 37701, 38984, 38985, 38807, 39180, 37983, 38641, 38789, 38851, 38593, 38706, 40252, 38446, 38583, 39417, 39501, 38673, 38936, 38804, 38775, 38262, 38504, 39697, 38429, 38976, 38619, 39030, 38731, 38847, 38603, 38339, 37210, 38149, 37944, 38043, 38298, 38196, 38182, 38448, 37649, 38211, 38126, 38665, 36923, 37942, 37360, 39323, 37609, 37720, 38202, 38234, 37447, 38651, 38067, 39007, 38392, 38665, 38172, 37784, 37877, 37973, 38982, 38245, 37990, 38257, 38310, 37383, 38411, 38282, 38000, 38196, 38189, 38800, 38869, 37982, 39210, 39711, 38956, 39027, 38568, 38339, 37838, 37618, 38049, 37840, 37193, 37899, 38324, 36743, 38744, 36641, 36155, 36420, 36078, 35885, 35559, 36423, 36624, 37988, 37210, 36923, 37549, 37423, 36543, 36841, 36978, 37298, 37180, 36769, 37321, 36909, 36428, 37284, 36816, 36709, 37044, 36927, 36909, 36303, 39164, 36939, 36828, 40125, 38199, 38193, 37001, 36952, 37818, 37447, 36824, 37137, 37754, 36754, 36852, 36690, 36978, 36619, 36725],
      "WindowCenter": [8573.0, 8520.0, 8587.0, 8398.0, 8676.0, 8590.0, 8571.0, 8559.0, 8560.0, 8568.0, 8569.0, 8570.0, 8574.0, 8566.0, 8564.0, 8564.0, 8566.0, 8566.0, 8577.0, 8572.0, 8571.0, 8569.0, 8578.0, 8579.0, 8579.0, 8585.0, 8595.0, 8596.0, 8595.0, 8581.0, 8581.0, 8585.0, 8575.0, 8582.0, 8584.0, 8586.0, 8588.0, 8597.0, 8591.0, 8591.0, 8596.0, 8597.0, 8597.0, 8589.0, 8592.0, 8592.0, 8584.0, 8574.0, 8573.0, 8565.0, 8571.0, 8565.0, 8580.0, 8588.0, 8581.0, 8582.0, 8589.0, 8576.0, 8588.0, 8581.0, 8596.0, 8587.0, 8584.0, 8580.0, 8594.0, 8588.0, 8588.0, 8593.0, 8587.0, 8586.0, 8579.0, 8589.0, 8605.0, 8598.0, 8600.0, 8606.0, 8597.0, 8587.0, 8587.0, 8578.0, 8578.0, 8577.0, 8578.0, 8586.0, 8579.0, 8584.0, 8579.0, 8580.0, 8586.0, 8582.0, 8573.0, 8582.0, 8546.0, 8563.0, 8564.0, 8577.0, 8571.0, 8589.0, 8591.0, 8583.0, 8595.0, 8594.0, 8587.0, 8583.0, 8590.0, 8597.0, 8582.0, 8589.0, 8581.0, 8587.0, 8574.0, 8596.0, 8605.0, 8590.0, 8576.0, 8577.0, 8582.0, 8573.0, 8579.0, 8579.0, 8586.0, 8590.0, 8593.0, 8599.0, 8591.0, 8590.0, 8582.0, 8573.0, 8581.0, 8595.0, 8589.0, 8584.0, 8606.0, 8613.0, 8606.0, 8601.0, 8608.0, 8615.0, 8593.0, 8600.0, 8607.0, 8605.0, 8592.0, 8598.0, 8591.0, 8583.0, 8583.0, 8576.0, 8586.0, 8580.0, 8581.0, 8590.0, 8604.0, 8586.0, 8612.0, 8609.0, 8599.0, 8569.0, 8625.0, 8609.0, 8590.0, 8591.0, 8590.0, 8602.0, 8602.0, 8596.0, 8585.0, 8561.0, 8575.0, 8575.0, 8574.0, 8577.0, 8584.0, 8605.0, 8592.0, 8601.0, 8609.0, 8602.0, 8604.0, 8605.0, 8589.0, 8580.0, 8579.0, 8572.0, 8583.0, 8567.0, 8573.0, 8585.0, 8614.0, 8599.0, 8586.0, 8577.0, 8569.0, 8555.0, 8561.0, 8563.0, 8582.0, 8598.0, 8602.0, 8597.0, 8595.0, 8573.0, 8572.0, 8572.0, 8583.0, 8565.0, 8588.0, 8583.0, 8593.0, 8574.0, 8566.0, 8566.0, 8564.0, 8558.0, 8579.0, 8573.0, 8578.0, 8571.0, 8580.0, 8580.0, 8574.0, 8575.0, 8583.0, 8588.0, 8572.0, 8565.0, 8572.0, 8570.0, 8558.0, 8573.0, 8582.0, 8584.0, 8593.0, 8603.0, 8591.0, 8579.0, 8584.0, 8587.0, 8588.0, 8587.0, 8601.0, 8595.0, 8589.0, 8583.0, 8582.0, 8582.0, 8573.0, 8567.0, 8571.0, 8569.0, 8516.0, 8574.0, 8525.0, 8518.0, 8535.0, 8545.0, 8540.0, 8533.0, 8548.0, 8540.0, 8574.0, 8563.0, 8572.0, 8572.0, 8560.0, 8538.0, 8545.0, 8550.0, 8557.0, 8554.0, 8564.0, 8569.0, 8555.0, 8548.0, 8560.0, 8544.0, 8545.0, 8544.0, 8545.0, 8543.0, 8539.0, 8579.0, 8543.0, 8548.0, 8590.0, 8556.0, 8556.0, 8551.0, 8547.0, 8566.0, 8552.0, 8547.0, 8547.0, 8554.0, 8547.0, 8550.0, 8557.0, 8556.0, 8549.0, 8557.0],
