{
  "AcquisitionMatrixPE": 104,
  "AcquisitionNumber": 1,
  "AcquisitionTime": "11:27:15.625000",
  "BandwidthPerPixelPhaseEncode": 16.297,
  "BaseResolution": 104,
  "BodyPartExamined": "BRAIN",
  "ConsistencyInfo": "N4_VE11C_LATEST_20160120",
  "ConversionSoftware": "dcm2niix",
  "ConversionSoftwareVersion": "v1.0.20210317",
  "DerivedVendorReportedEchoSpacing": 0.000590009,
  "DeviceSerialNumber": "166018",
  "DwellTime": 2.1e-06,
  "EchoTime": 0.0376,
  "EchoTrainLength": 104,
  "EffectiveEchoSpacing": 0.000590009,
  "FlipAngle": 68,
  "ImageComments": "Unaliased MB6/PE3/LB",
  "ImageOrientationPatientDICOM": [0.993953, 0.033634, -0.104526, -0.0548745, 0.976687, -0.207535],
  "ImageType": [
    "ORIGINAL",
    "PRIMARY",
    "M",
    "MB",
    "ND",
    "MOSAIC"
],
  "ImagingFrequency": 123.197,
  "InPlanePhaseEncodingDirectionDICOM": "COL",
  "InstitutionAddress": "Washington Place 6,NYC,NYC,US,10003",
  "InstitutionName": "NYU - CBI",
  "InstitutionalDepartmentName": "Department",
  "MRAcquisitionType": "2D",
  "MagneticFieldStrength": 3,
  "Manufacturer": "Siemens",
  "ManufacturersModelName": "Prisma",
  "Modality": "MR",
  "MultibandAccelerationFactor": 6,
  "PartialFourier": 1,
  "PatientPosition": "HFS",
  "PercentPhaseFOV": 100,
  "PercentSampling": 100,
  "PhaseEncodingDirection": "j",
  "PhaseEncodingSteps": 104,
  "PhaseResolution": 1,
  "PixelBandwidth": 2290,
  "ProcedureStepDescription": "Investigators^Winawer",
  "ProtocolName": "cmrr_mbepi_s6_2mm_66sl_PA_task-wedgering1",
  "PulseSequenceDetails": "%CustomerSeq%\\cmrr_mbep2d_bold",
  "ReceiveCoilActiveElements": "HC1-7",
  "ReceiveCoilName": "HeadNeck_64",
  "ReconMatrixPE": 104,
  "RepetitionTime": 1,
  "SAR": 0.0661144,
  "ScanOptions": "FS",
  "ScanningSequence": "EP",
  "SequenceName": "epfid2d1_104",
  "SequenceVariant": "SK\\SS",
  "SeriesDescription": "cmrr_mbepi_s6_2mm_66sl_PA_task-wedgering1",
  "SeriesNumber": 10,
  "ShimSetting": [229, -12617, -8623, 348, -206, 57, -346, -45],
  "SliceThickness": 2,
  "SliceTiming": [0, 0.535, 0.09, 0.6225, 0.1775, 0.7125, 0.2675, 0.8025, 0.355, 0.89, 0.445, 0, 0.535, 0.09, 0.6225, 0.1775, 0.7125, 0.2675, 0.8025, 0.355, 0.89, 0.445, 0, 0.535, 0.09, 0.6225, 0.1775, 0.7125, 0.2675, 0.8025, 0.355, 0.89, 0.445, 0, 0.535, 0.09, 0.6225, 0.1775, 0.7125, 0.2675, 0.8025, 0.355, 0.89, 0.445, 0, 0.535, 0.09, 0.6225, 0.1775, 0.7125, 0.2675, 0.8025, 0.355, 0.89, 0.445, 0, 0.535, 0.09, 0.6225, 0.1775, 0.7125, 0.2675, 0.8025, 0.355, 0.89, 0.445],
  "SoftwareVersions": "syngo MR E11",
  "SpacingBetweenSlices": 2,
  "StationName": "AWP166018",
  "TaskName": "wedgering1",
  "TotalReadoutTime": 0.060771,
  "TxRefAmp": 215.657,
  "VendorReportedEchoSpacing": 0.00059,
  "WipMemBlock": "d72b5640-4626-494d-af96-05c13d7e9ed3||Sequence: R016 ve11c/master r/8780670; Nov 27 2017 15:05:12 by eja",
  "dcmmeta_affine": [
    [-1.9879064559936523, -0.10974904894828796, -0.19021818041801453, 117.07968139648438],
    [-0.0672679990530014, 1.9533746242523193, -0.4240315854549408, -75.77146911621094],
    [-0.2090522050857544, 0.4150697588920593, 1.9452543258666992, -74.32501983642578],
    [0.0, 0.0, 0.0, 1.0]
],
  "dcmmeta_reorient_transform": [
    [0.0, -1.0, 0.0, 103.0],
    [1.0, 0.0, 0.0, 0.0],
    [0.0, 0.0, 1.0, 0.0],
    [0.0, 0.0, 0.0, 1.0]
],
  "dcmmeta_shape": [104, 104, 66, 300],
  "dcmmeta_slice_dim": 2,
  "dcmmeta_version": 0.6,
  "global": {
    "const": {
      "AccessionNumber": "Lesstuve",
      "AcquisitionMatrix": [104, 0, 0, 104],
      "AngioFlag": "N",
      "BitsAllocated": 16,
      "BitsStored": 16,
      "BodyPartExamined": "BRAIN",
      "Columns": 936,
      "EchoNumbers": 1,
      "EchoTime": 37.6,
      "EchoTrainLength": 104,
      "FlipAngle": 68.0,
      "HighBit": 15,
      "ImageOrientationPatient": [0.99395324223021, 0.03363399981454, -0.1045261035174, -0.054874525324, 0.97668728894531, -0.2075348791966],
      "ImagePositionPatient": [-887.08902240802, -966.01342746635, 228.06190391694],
      "ImageType": [
        "ORIGINAL",
        "PRIMARY",
        "M",
        "MB",
        "ND",
        "MOSAIC"
],
      "ImagedNucleus": "1H",
      "ImagingFrequency": 123.196942,
      "InPlanePhaseEncodingDirection": "COL",
      "MRAcquisitionType": "2D",
      "MagneticFieldStrength": 3.0,
      "Manufacturer": "SIEMENS",
      "ManufacturerModelName": "Prisma",
      "Modality": "MR",
      "NumberOfAverages": 1.0,
      "NumberOfPhaseEncodingSteps": 104,
      "PercentPhaseFieldOfView": 100.0,
      "PercentSampling": 100.0,
      "PerformedProcedureStepStartTime": "111533.257000",
      "PhotometricInterpretation": "MONOCHROME2",
      "PixelBandwidth": 2290.0,
      "PixelRepresentation": 0,
      "PixelSpacing": [2.0, 2.0],
      "ProtocolName": "cmrr_mbepi_s6_2mm_66sl_PA_task-wedgering1",
      "RepetitionTime": 1000.0,
      "Rows": 936,
      "SAR": 0.06611438663317,
      "SamplesPerPixel": 1,
      "ScanOptions": "FS",
      "ScanningSequence": "EP",
      "SequenceName": "epfid2d1_104",
      "SequenceVariant": [
        "SK",
        "SS"
],
      "SeriesDescription": "cmrr_mbepi_s6_2mm_66sl_PA_task-wedgering1",
      "SeriesNumber": 10,
      "SeriesTime": "112826.577000",
      "SliceLocation": -67.361125869685,
      "SliceThickness": 2.0,
      "SmallestImagePixelValue": 0,
      "SoftwareVersions": "syngo MR E11",
      "SpacingBetweenSlices": 2.0000000463778,
      "SpecificCharacterSet": "ISO_IR 100",
      "StudyID": "1",
      "StudyTime": "111533.192000",
      "TransmitCoilName": "Body",
      "VariableFlipAngleFlag": "N",
      "WindowCenterWidthExplanation": "Algo1",
      "dBdt": 0.0},
    "slices": {}
  },
  "time": {
    "samples": {
      "AcquisitionNumber": [1, 2, 3, 4, 5, 6, 7, 8, 9, 10, 11, 12, 13, 14, 15, 16, 17, 18, 19, 20, 21, 22, 23, 24, 25, 26, 27, 28, 29, 30, 31, 32, 33, 34, 35, 36, 37, 38, 39, 40, 41, 42, 43, 44, 45, 46, 47, 48, 49, 50, 51, 52, 53, 54, 55, 56, 57, 58, 59, 60, 61, 62, 63, 64, 65, 66, 67, 68, 69, 70, 71, 72, 73, 74, 75, 76, 77, 78, 79, 80, 81, 82, 83, 84, 85, 86, 87, 88, 89, 90, 91, 92, 93, 94, 95, 96, 97, 98, 99, 100, 101, 102, 103, 104, 105, 106, 107, 108, 109, 110, 111, 112, 113, 114, 115, 116, 117, 118, 119, 120, 121, 122, 123, 124, 125, 126, 127, 128, 129, 130, 131, 132, 133, 134, 135, 136, 137, 138, 139, 140, 141, 142, 143, 144, 145, 146, 147, 148, 149, 150, 151, 152, 153, 154, 155, 156, 157, 158, 159, 160, 161, 162, 163, 164, 165, 166, 167, 168, 169, 170, 171, 172, 173, 174, 175, 176, 177, 178, 179, 180, 181, 182, 183, 184, 185, 186, 187, 188, 189, 190, 191, 192, 193, 194, 195, 196, 197, 198, 199, 200, 201, 202, 203, 204, 205, 206, 207, 208, 209, 210, 211, 212, 213, 214, 215, 216, 217, 218, 219, 220, 221, 222, 223, 224, 225, 226, 227, 228, 229, 230, 231, 232, 233, 234, 235, 236, 237, 238, 239, 240, 241, 242, 243, 244, 245, 246, 247, 248, 249, 250, 251, 252, 253, 254, 255, 256, 257, 258, 259, 260, 261, 262, 263, 264, 265, 266, 267, 268, 269, 270, 271, 272, 273, 274, 275, 276, 277, 278, 279, 280, 281, 282, 283, 284, 285, 286, 287, 288, 289, 290, 291, 292, 293, 294, 295, 296, 297, 298, 299, 300],
      "AcquisitionTime": ["112715.625000", "112716.625000", "112717.625000", "112718.625000", "112719.625000", "112720.625000", "112721.625000", "112722.625000", "112723.625000", "112724.625000", "112725.625000", "112726.625000", "112727.625000", "112728.625000", "112729.625000", "112730.625000", "112731.625000", "112732.625000", "112733.625000", "112734.625000", "112735.625000", "112736.625000", "112737.625000", "112738.625000", "112739.625000", "112740.625000", "112741.625000", "112742.625000", "112743.625000", "112744.625000", "112745.625000", "112746.625000", "112747.625000", "112748.625000", "112749.625000", "112750.625000", "112751.625000", "112752.625000", "112753.625000", "112754.625000", "112755.625000", "112756.625000", "112757.625000", "112758.625000", "112759.625000", "112800.625000", "112801.625000", "112802.625000", "112803.625000", "112804.625000", "112805.625000", "112806.625000", "112807.625000", "112808.625000", "112809.625000", "112810.625000", "112811.625000", "112812.625000", "112813.625000", "112814.625000", "112815.625000", "112816.625000", "112817.625000", "112818.625000", "112819.625000", "112820.625000", "112821.625000", "112822.625000", "112823.625000", "112824.625000", "112825.625000", "112826.625000", "112827.625000", "112828.625000", "112829.625000", "112830.625000", "112831.625000", "112832.625000", "112833.625000", "112834.625000", "112835.625000", "112836.625000", "112837.625000", "112838.625000", "112839.625000", "112840.625000", "112841.625000", "112842.625000", "112843.625000", "112844.625000", "112845.625000", "112846.625000", "112847.625000", "112848.625000", "112849.625000", "112850.625000", "112851.625000", "112852.625000", "112853.625000", "112854.625000", "112855.625000", "112856.625000", "112857.625000", "112858.625000", "112859.625000", "112900.625000", "112901.625000", "112902.625000", "112903.625000", "112904.625000", "112905.625000", "112906.625000", "112907.625000", "112908.625000", "112909.625000", "112910.625000", "112911.625000", "112912.625000", "112913.625000", "112914.625000", "112915.625000", "112916.625000", "112917.625000", "112918.625000", "112919.625000", "112920.625000", "112921.625000", "112922.625000", "112923.625000", "112924.625000", "112925.625000", "112926.625000", "112927.625000", "112928.625000", "112929.625000", "112930.625000", "112931.625000", "112932.625000", "112933.625000", "112934.625000", "112935.625000", "112936.625000", "112937.625000", "112938.625000", "112939.625000", "112940.625000", "112941.625000", "112942.625000", "112943.625000", "112944.625000", "112945.625000", "112946.625000", "112947.625000", "112948.625000", "112949.625000", "112950.625000", "112951.625000", "112952.625000", "112953.625000", "112954.625000", "112955.625000", "112956.625000", "112957.625000", "112958.625000", "112959.625000", "113000.625000", "113001.625000", "113002.625000", "113003.625000", "113004.625000", "113005.625000", "113006.625000", "113007.625000", "113008.625000", "113009.625000", "113010.625000", "113011.625000", "113012.625000", "113013.625000", "113014.625000", "113015.625000", "113016.625000", "113017.625000", "113018.625000", "113019.625000", "113020.625000", "113021.625000", "113022.625000", "113023.625000", "113024.625000", "113025.625000", "113026.625000", "113027.625000", "113028.625000", "113029.625000", "113030.625000", "113031.625000", "113032.625000", "113033.625000", "113034.625000", "113035.625000", "113036.625000", "113037.625000", "113038.625000", "113039.625000", "113040.625000", "113041.625000", "113042.625000", "113043.625000", "113044.625000", "113045.625000", "113046.625000", "113047.625000", "113048.625000", "113049.625000", "113050.625000", "113051.625000", "113052.625000", "113053.625000", "113054.625000", "113055.625000", "113056.625000", "113057.625000", "113058.625000", "113059.625000", "113100.625000", "113101.625000", "113102.625000", "113103.625000", "113104.625000", "113105.625000", "113106.625000", "113107.625000", "113108.625000", "113109.625000", "113110.625000", "113111.625000", "113112.625000", "113113.625000", "113114.625000", "113115.625000", "113116.625000", "113117.625000", "113118.625000", "113119.625000", "113120.625000", "113121.625000", "113122.625000", "113123.625000", "113124.625000", "113125.625000", "113126.625000", "113127.625000", "113128.625000", "113129.625000", "113130.625000", "113131.625000", "113132.625000", "113133.625000", "113134.625000", "113135.625000", "113136.625000", "113137.625000", "113138.625000", "113139.625000", "113140.625000", "113141.625000", "113142.625000", "113143.625000", "113144.625000", "113145.625000", "113146.625000", "113147.625000", "113148.625000", "113149.625000", "113150.625000", "113151.625000", "113152.625000", "113153.625000", "113154.625000", "113155.625000", "113156.625000", "113157.625000", "113158.625000", "113159.625000", "113200.625000", "113201.625000", "113202.625000", "113203.625000", "113204.625000", "113205.625000", "113206.625000", "113207.625000", "113208.625000", "113209.625000", "113210.625000", "113211.625000", "113212.625000", "113213.625000", "113214.625000"],
      "ContentTime": ["112826.579000", "112826.583000", "112826.586000", "112826.589000", "112826.592000", "112826.602000", "112826.605000", "112826.608000", "112826.611000", "112826.613000", "112826.616000", "112826.619000", "112826.622000", "112826.625000", "112826.628000", "112826.631000", "112826.634000", "112826.637000", "112826.640000", "112826.643000", "112826.646000", "112826.649000", "112826.652000", "112826.655000", "112826.658000", "112826.661000", "112826.668000", "112826.671000", "112826.687000", "112826.690000", "112846.533000", "112846.536000", "112846.539000", "112846.542000", "112846.545000", "112846.548000", "112846.551000", "112846.554000", "112846.557000", "112846.560000", "112846.563000", "112846.566000", "112846.569000", "112846.571000", "112846.574000", "112846.577000", "112846.580000", "112846.584000", "112846.587000", "112846.590000", "112846.593000", "112846.595000", "112846.598000", "112846.607000", "112846.610000", "112846.613000", "112846.616000", "112846.619000", "112906.533000", "112906.536000", "112906.539000", "112906.542000", "112906.545000", "112906.548000", "112906.551000", "112906.554000", "112906.557000", "112906.560000", "112906.563000", "112906.566000", "112906.568000", "112906.571000", "112906.574000", "112906.577000", "112906.580000", "112906.583000", "112906.586000", "112906.589000", "112906.592000", "112906.595000", "112906.598000", "112906.601000", "112906.604000", "112906.607000", "112906.610000", "112906.613000", "112926.534000", "112926.537000", "112926.540000", "112926.543000", "112926.546000", "112926.549000", "112926.552000", "112926.555000", "112926.565000", "112926.568000", "112926.571000", "112926.574000", "112926.577000", "112926.580000", "112926.583000", "112926.586000", "112926.589000", "112926.592000", "112926.595000", "112926.598000", "112926.601000", "112926.604000", "112926.607000", "112926.610000", "112926.613000", "112926.616000", "112926.619000", "112926.622000", "112926.625000", "112946.533000", "112946.536000", "112946.539000", "112946.542000", "112946.545000", "112946.548000", "112946.551000", "112946.554000", "112946.557000", "112946.560000", "112946.563000", "112946.566000", "112946.569000", "112946.572000", "112946.575000", "112946.578000", "112946.581000", "112946.584000", "112946.587000", "112946.590000", "112946.593000", "112946.596000", "112946.599000", "112946.602000", "112946.605000", "112946.608000", "112946.611000", "112946.614000", "113006.533000", "113006.536000", "113006.539000", "113006.542000", "113006.545000", "113006.548000", "113006.551000", "113006.554000", "113006.557000", "113006.560000", "113006.563000", "113006.566000", "113006.569000", "113006.572000", "113006.575000", "113006.578000", "113006.581000", "113006.584000", "113006.587000", "113006.590000", "113006.593000", "113006.596000", "113006.599000", "113006.602000", "113006.605000", "113006.613000", "113006.616000", "113026.533000", "113026.536000", "113026.539000", "113026.542000", "113026.545000", "113026.548000", "113026.551000", "113026.554000", "113026.557000", "113026.560000", "113026.563000", "113026.578000", "113026.581000", "113026.584000", "113026.587000", "113026.590000", "113026.593000", "113026.596000", "113026.599000", "113026.602000", "113046.533000", "113046.536000", "113046.539000", "113046.550000", "113046.553000", "113046.556000", "113046.559000", "113046.562000", "113046.565000", "113046.568000", "113046.571000", "113046.574000", "113046.577000", "113046.580000", "113046.583000", "113046.586000", "113046.589000", "113046.592000", "113046.595000", "113046.598000", "113106.533000", "113106.536000", "113106.539000", "113106.542000", "113106.545000", "113106.548000", "113106.551000", "113106.554000", "113106.557000", "113106.560000", "113106.563000", "113106.566000", "113106.569000", "113106.572000", "113106.574000", "113106.577000", "113106.580000", "113106.583000", "113106.586000", "113106.589000", "113126.533000", "113126.536000", "113126.539000", "113126.542000", "113126.545000", "113126.548000", "113126.551000", "113126.554000", "113126.557000", "113126.560000", "113126.563000", "113126.566000", "113126.569000", "113126.572000", "113126.575000", "113126.578000", "113126.581000", "113126.584000", "113126.587000", "113126.590000", "113146.534000", "113146.537000", "113146.540000", "113146.543000", "113146.546000", "113146.549000", "113146.552000", "113146.555000", "113146.558000", "113146.561000", "113146.564000", "113146.567000", "113146.570000", "113146.573000", "113146.576000", "113146.579000", "113146.582000", "113146.585000", "113146.588000", "113146.591000", "113206.533000", "113206.536000", "113206.539000", "113206.542000", "113206.545000", "113206.548000", "113206.551000", "113206.554000", "113206.557000", "113206.560000", "113206.563000", "113206.566000", "113206.569000", "113206.572000", "113206.575000", "113206.578000", "113206.581000", "113206.584000", "113206.587000", "113206.590000", "113216.430000", "113216.433000", "113216.436000", "113216.439000", "113216.442000", "113216.445000", "113216.448000", "113216.451000", "113216.454000", "113216.457000"],
      "InstanceCreationTime": ["112826.579000", "112826.583000", "112826.586000", "112826.589000", "112826.592000", "112826.602000", "112826.605000", "112826.608000", "112826.611000", "112826.613000", "112826.616000", "112826.619000", "112826.622000", "112826.625000", "112826.628000", "112826.631000", "112826.634000", "112826.637000", "112826.640000", "112826.643000", "112826.646000", "112826.649000", "112826.652000", "112826.655000", "112826.658000", "112826.661000", "112826.668000", "112826.671000", "112826.687000", "112826.690000", "112846.533000", "112846.536000", "112846.539000", "112846.542000", "112846.545000", "112846.548000", "112846.551000", "112846.554000", "112846.557000", "112846.560000", "112846.563000", "112846.566000", "112846.569000", "112846.571000", "112846.574000", "112846.577000", "112846.580000", "112846.584000", "112846.587000", "112846.590000", "112846.593000", "112846.595000", "112846.598000", "112846.607000", "112846.610000", "112846.613000", "112846.616000", "112846.619000", "112906.533000", "112906.536000", "112906.539000", "112906.542000", "112906.545000", "112906.548000", "112906.551000", "112906.554000", "112906.557000", "112906.560000", "112906.563000", "112906.566000", "112906.568000", "112906.571000", "112906.574000", "112906.577000", "112906.580000", "112906.583000", "112906.586000", "112906.589000", "112906.592000", "112906.595000", "112906.598000", "112906.601000", "112906.604000", "112906.607000", "112906.610000", "112906.613000", "112926.534000", "112926.537000", "112926.540000", "112926.543000", "112926.546000", "112926.549000", "112926.552000", "112926.555000", "112926.565000", "112926.568000", "112926.571000", "112926.574000", "112926.577000", "112926.580000", "112926.583000", "112926.586000", "112926.589000", "112926.592000", "112926.595000", "112926.598000", "112926.601000", "112926.604000", "112926.607000", "112926.610000", "112926.613000", "112926.616000", "112926.619000", "112926.622000", "112926.625000", "112946.533000", "112946.536000", "112946.539000", "112946.542000", "112946.545000", "112946.548000", "112946.551000", "112946.554000", "112946.557000", "112946.560000", "112946.563000", "112946.566000", "112946.569000", "112946.572000", "112946.575000", "112946.578000", "112946.581000", "112946.584000", "112946.587000", "112946.590000", "112946.593000", "112946.596000", "112946.599000", "112946.602000", "112946.605000", "112946.608000", "112946.611000", "112946.614000", "113006.533000", "113006.536000", "113006.539000", "113006.542000", "113006.545000", "113006.548000", "113006.551000", "113006.554000", "113006.557000", "113006.560000", "113006.563000", "113006.566000", "113006.569000", "113006.572000", "113006.575000", "113006.578000", "113006.581000", "113006.584000", "113006.587000", "113006.590000", "113006.593000", "113006.596000", "113006.599000", "113006.602000", "113006.605000", "113006.613000", "113006.616000", "113026.533000", "113026.536000", "113026.539000", "113026.542000", "113026.545000", "113026.548000", "113026.551000", "113026.554000", "113026.557000", "113026.560000", "113026.563000", "113026.578000", "113026.581000", "113026.584000", "113026.587000", "113026.590000", "113026.593000", "113026.596000", "113026.599000", "113026.602000", "113046.533000", "113046.536000", "113046.539000", "113046.550000", "113046.553000", "113046.556000", "113046.559000", "113046.562000", "113046.565000", "113046.568000", "113046.571000", "113046.574000", "113046.577000", "113046.580000", "113046.583000", "113046.586000", "113046.589000", "113046.592000", "113046.595000", "113046.598000", "113106.533000", "113106.536000", "113106.539000", "113106.542000", "113106.545000", "113106.548000", "113106.551000", "113106.554000", "113106.557000", "113106.560000", "113106.563000", "113106.566000", "113106.569000", "113106.572000", "113106.574000", "113106.577000", "113106.580000", "113106.583000", "113106.586000", "113106.589000", "113126.533000", "113126.536000", "113126.539000", "113126.542000", "113126.545000", "113126.548000", "113126.551000", "113126.554000", "113126.557000", "113126.560000", "113126.563000", "113126.566000", "113126.569000", "113126.572000", "113126.575000", "113126.578000", "113126.581000", "113126.584000", "113126.587000", "113126.590000", "113146.534000", "113146.537000", "113146.540000", "113146.543000", "113146.546000", "113146.549000", "113146.552000", "113146.555000", "113146.558000", "113146.561000", "113146.564000", "113146.567000", "113146.570000", "113146.573000", "113146.576000", "113146.579000", "113146.582000", "113146.585000", "113146.588000", "113146.591000", "113206.533000", "113206.536000", "113206.539000", "113206.542000", "113206.545000", "113206.548000", "113206.551000", "113206.554000", "113206.557000", "113206.560000", "113206.563000", "113206.566000", "113206.569000", "113206.572000", "113206.575000", "113206.578000", "113206.581000", "113206.584000", "113206.587000", "113206.590000", "113216.430000", "113216.433000", "113216.436000", "113216.439000", "113216.442000", "113216.445000", "113216.448000", "113216.451000", "113216.454000", "113216.457000"],
      "InstanceNumber": [1, 2, 3, 4, 5, 6, 7, 8, 9, 10, 11, 12, 13, 14, 15, 16, 17, 18, 19, 20, 21, 22, 23, 24, 25, 26, 27, 28, 29, 30, 31, 32, 33, 34, 35, 36, 37, 38, 39, 40, 41, 42, 43, 44, 45, 46, 47, 48, 49, 50, 51, 52, 53, 54, 55, 56, 57, 58, 59, 60, 61, 62, 63, 64, 65, 66, 67, 68, 69, 70, 71, 72, 73, 74, 75, 76, 77, 78, 79, 80, 81, 82, 83, 84, 85, 86, 87, 88, 89, 90, 91, 92, 93, 94, 95, 96, 97, 98, 99, 100, 101, 102, 103, 104, 105, 106, 107, 108, 109, 110, 111, 112, 113, 114, 115, 116, 117, 118, 119, 120, 121, 122, 123, 124, 125, 126, 127, 128, 129, 130, 131, 132, 133, 134, 135, 136, 137, 138, 139, 140, 141, 142, 143, 144, 145, 146, 147, 148, 149, 150, 151, 152, 153, 154, 155, 156, 157, 158, 159, 160, 161, 162, 163, 164, 165, 166, 167, 168, 169, 170, 171, 172, 173, 174, 175, 176, 177, 178, 179, 180, 181, 182, 183, 184, 185, 186, 187, 188, 189, 190, 191, 192, 193, 194, 195, 196, 197, 198, 199, 200, 201, 202, 203, 204, 205, 206, 207, 208, 209, 210, 211, 212, 213, 214, 215, 216, 217, 218, 219, 220, 221, 222, 223, 224, 225, 226, 227, 228, 229, 230, 231, 232, 233, 234, 235, 236, 237, 238, 239, 240, 241, 242, 243, 244, 245, 246, 247, 248, 249, 250, 251, 252, 253, 254, 255, 256, 257, 258, 259, 260, 261, 262, 263, 264, 265, 266, 267, 268, 269, 270, 271, 272, 273, 274, 275, 276, 277, 278, 279, 280, 281, 282, 283, 284, 285, 286, 287, 288, 289, 290, 291, 292, 293, 294, 295, 296, 297, 298, 299, 300],
      "LargestImagePixelValue": [41096, 40289, 40371, 39834, 39370, 39474, 39496, 39474, 39042, 39089, 38888, 39323, 39103, 39371, 38937, 39171, 39307, 39609, 38847, 39313, 39031, 38867, 39299, 39225, 39178, 38817, 39228, 39473, 39804, 39396, 39445, 38694, 38776, 38744, 38489, 38887, 38471, 38761, 39072, 39208, 38750, 39034, 38687, 38980, 39102, 39013, 38809, 38913, 39042, 39414, 39220, 39322, 39483, 39421, 39282, 39277, 39675, 39272, 40837, 41164, 40922, 41012, 40726, 39927, 39811, 39356, 38624, 38979, 38617, 38680, 38956, 39054, 38653, 38966, 39080, 38705, 39043, 39334, 39183, 39182, 39461, 39016, 39326, 39329, 39276, 39108, 39004, 39281, 39051, 39445, 39594, 39409, 39145, 39021, 38894, 38985, 39215, 38941, 38734, 38787, 38667, 38849, 38939, 39037, 39352, 39142, 39236, 39219, 39814, 38895, 39464, 39158, 39337, 39730, 39413, 39225, 39795, 39439, 39031, 39620, 39292, 39121, 39304, 38901, 38722, 38859, 39597, 39082, 38871, 39204, 39503, 39084, 38946, 39203, 38998, 39477, 38943, 39062, 39387, 39482, 39319, 39255, 39185, 39479, 39050, 39656, 39272, 39798, 40278, 39779, 39027, 39130, 38714, 38872, 38439, 38640, 39116, 38717, 38971, 39312, 39013, 39261, 39187, 38973, 39419, 39331, 39812, 39350, 39281, 39222, 39272, 38819, 38526, 38708, 38832, 38158, 38605, 38707, 38651, 39152, 39725, 39020, 39222, 39787, 39520, 39405, 39382, 39451, 39382, 39142, 39601, 38914, 38913, 39166, 39324, 39479, 39765, 39709, 39104, 39240, 38976, 38736, 38868, 38423, 38430, 38946, 38504, 38565, 39074, 38798, 39205, 38991, 38572, 38870, 38900, 38664, 38964, 38410, 38841, 38873, 38904, 38538, 38545, 39067, 39125, 39113, 39369, 39075, 38940, 39145, 38805, 39187, 38944, 38678, 38930, 38286, 38197, 38604, 38628, 38872, 39406, 39824, 39608, 39598, 39044, 38847, 38676, 38576, 38472, 38298, 38679, 39488, 39063, 39436, 39305, 39238, 39854, 38542, 38490, 39366, 38861, 39270, 39265, 38531, 38847, 38994, 38789, 38830, 38529, 38153, 39325, 39353, 39329, 39045, 38297, 38149, 38381, 38730, 38259, 39283, 39228, 38499, 38819, 38775, 38988, 39014, 39028, 38925, 38917, 38536, 38629, 38899, 37963, 38260, 38744, 38380, 38016, 38811, 38480, 38584],
      "WindowCenter": [9600.0, 9549.0, 9530.0, 9514.0, 9497.0, 9490.0, 9489.0, 9479.0, 9480.0, 9482.0, 9479.0, 9479.0, 9474.0, 9478.0, 9479.0, 9474.0, 9479.0, 9484.0, 9465.0, 9477.0, 9471.0, 9458.0, 9471.0, 9465.0, 9465.0, 9467.0, 9488.0, 9487.0, 9495.0, 9482.0, 9479.0, 9466.0, 9466.0, 9473.0, 9469.0, 9474.0, 9475.0, 9481.0, 9473.0, 9480.0, 9476.0, 9482.0, 9476.0, 9474.0, 9475.0, 9466.0, 9461.0, 9468.0, 9467.0, 9474.0, 9473.0, 9479.0, 9474.0, 9486.0, 9488.0, 9474.0, 9485.0, 9488.0, 9506.0, 9520.0, 9521.0, 9514.0, 9517.0, 9518.0, 9520.0, 9513.0, 9507.0, 9507.0, 9503.0, 9500.0, 9499.0, 9491.0, 9486.0, 9484.0, 9484.0, 9485.0, 9492.0, 9492.0, 9492.0, 9492.0, 9492.0, 9492.0, 9492.0, 9492.0, 9497.0, 9499.0, 9492.0, 9498.0, 9500.0, 9491.0, 9495.0, 9495.0, 9495.0, 9489.0, 9489.0, 9481.0, 9481.0, 9481.0, 9481.0, 9475.0, 9483.0, 9484.0, 9492.0, 9491.0, 9491.0, 9499.0, 9499.0, 9490.0, 9489.0, 9482.0, 9484.0, 9484.0, 9491.0, 9491.0, 9490.0, 9482.0, 9482.0, 9482.0, 9482.0, 9481.0, 9472.0, 9472.0, 9471.0, 9471.0, 9456.0, 9463.0, 9475.0, 9470.0, 9473.0, 9482.0, 9488.0, 9486.0, 9499.0, 9507.0, 9511.0, 9502.0, 9494.0, 9492.0, 9486.0, 9486.0, 9494.0, 9495.0, 9496.0, 9497.0, 9489.0, 9510.0, 9512.0, 9501.0, 9507.0, 9500.0, 9488.0, 9487.0, 9480.0, 9478.0, 9471.0, 9476.0, 9475.0, 9475.0, 9484.0, 9485.0, 9502.0, 9501.0, 9493.0, 9493.0, 9492.0, 9491.0, 9498.0, 9495.0, 9486.0, 9491.0, 9493.0, 9479.0, 9480.0, 9486.0, 9485.0, 9480.0, 9480.0, 9486.0, 9493.0, 9493.0, 9506.0, 9502.0, 9508.0, 9505.0, 9495.0, 9482.0, 9481.0, 9473.0, 9466.0, 9473.0, 9481.0, 9485.0, 9486.0, 9492.0, 9492.0, 9500.0, 9501.0, 9492.0, 9494.0, 9498.0, 9495.0, 9496.0, 9490.0, 9482.0, 9497.0, 9505.0, 9506.0, 9495.0, 9486.0, 9470.0, 9467.0, 9458.0, 9458.0, 9457.0, 9463.0, 9465.0, 9473.0, 9476.0, 9476.0, 9477.0, 9485.0, 9498.0, 9490.0, 9494.0, 9487.0, 9486.0, 9484.0, 9479.0, 9478.0, 9476.0, 9470.0, 9479.0, 9491.0, 9479.0, 9485.0, 9479.0, 9472.0, 9478.0, 9485.0, 9484.0, 9484.0, 9497.0, 9501.0, 9517.0, 9506.0, 9500.0, 9496.0, 9489.0, 9480.0, 9480.0, 9487.0, 9493.0, 9496.0, 9496.0, 9503.0, 9495.0, 9501.0, 9483.0, 9492.0, 9497.0, 9489.0, 9496.0, 9487.0, 9474.0, 9481.0, 9485.0, 9482.0, 9498.0, 9500.0, 9500.0, 9502.0, 9502.0, 9496.0, 9495.0, 9483.0, 9476.0, 9471.0, 9463.0, 9462.0, 9475.0, 9489.0, 9480.0, 9478.0, 9471.0, 9470.0, 9479.0, 9477.0, 9485.0, 9487.0, 9481.0, 9483.0, 9488.0, 9483.0, 9490.0, 9483.0, 9485.0, 9484.0, 9489.0, 9484.0, 9484.0],
