{
  "AcquisitionMatrixPE": 104,
  "AcquisitionNumber": 1,
  "AcquisitionTime": "16:29:46.322500",
  "BandwidthPerPixelPhaseEncode": 16.578,
  "BaseResolution": 104,
  "BodyPartExamined": "BRAIN",
  "ConsistencyInfo": "N4_VE11C_LATEST_20160120",
  "ConversionSoftware": "dcm2niix",
  "ConversionSoftwareVersion": "v1.0.20190902",
  "DerivedVendorReportedEchoSpacing": 0.000580009,
  "DeviceSerialNumber": "166018",
  "DwellTime": 2.1e-06,
  "EchoTime": 0.037,
  "EchoTrainLength": 104,
  "EffectiveEchoSpacing": 0.000580009,
  "FlipAngle": 68,
  "ImageComments": "Unaliased_MB6_PE3_LB",
  "ImageOrientationPatientDICOM": [0.998425, -0.054405, 0.0137063, 0.0559954, 0.981542, -0.182868],
  "ImageType": [
    "ORIGINAL",
    "PRIMARY",
    "M",
    "MB",
    "ND",
    "MOSAIC"
],
  "ImagingFrequency": 123.191,
  "InPlanePhaseEncodingDirectionDICOM": "COL",
  "InstitutionAddress": "Washington_Place_6_NYC_NYC_US_10003",
  "InstitutionName": "NYU_-_CBI",
  "InstitutionalDepartmentName": "Department",
  "MRAcquisitionType": "2D",
  "MagneticFieldStrength": 3,
  "Manufacturer": "Siemens",
  "ManufacturersModelName": "Prisma",
  "Modality": "MR",
  "MultibandAccelerationFactor": 6,
  "PartialFourier": 1,
  "PatientPosition": "HFS",
  "PercentPhaseFOV": 100,
  "PhaseEncodingDirection": "j",
  "PhaseEncodingSteps": 104,
  "PhaseResolution": 1,
  "PixelBandwidth": 2290,
  "ProcedureStepDescription": "Investigators_Winawer",
  "ProtocolName": "cmrr_mbepi_s6_2mm_66sl_PA_task-prf",
  "PulseSequenceDetails": "%CustomerSeq%_cmrr_mbep2d_bold",
  "ReceiveCoilActiveElements": "HC1-7",
  "ReceiveCoilName": "HeadNeck_64",
  "ReconMatrixPE": 104,
  "RepetitionTime": 1,
  "SAR": 0.0600187,
  "ScanOptions": "FS",
  "ScanningSequence": "EP",
  "SequenceName": "epfid2d1_104",
  "SequenceVariant": "SK_SS",
  "SeriesDescription": "cmrr_mbepi_s6_2mm_66sl_PA_task-prf",
  "SeriesNumber": 8,
  "ShimSetting": [262, -12688, -8435, 421, 14, -313, -190, 51],
  "SliceThickness": 2,
  "SliceTiming": [0, 0.535, 0.09, 0.625, 0.1775, 0.7125, 0.2675, 0.8025, 0.3575, 0.89, 0.445, 0, 0.535, 0.09, 0.625, 0.1775, 0.7125, 0.2675, 0.8025, 0.3575, 0.89, 0.445, 0, 0.535, 0.09, 0.625, 0.1775, 0.7125, 0.2675, 0.8025, 0.3575, 0.89, 0.445, 0, 0.535, 0.09, 0.625, 0.1775, 0.7125, 0.2675, 0.8025, 0.3575, 0.89, 0.445, 0, 0.535, 0.09, 0.625, 0.1775, 0.7125, 0.2675, 0.8025, 0.3575, 0.89, 0.445, 0, 0.535, 0.09, 0.625, 0.1775, 0.7125, 0.2675, 0.8025, 0.3575, 0.89, 0.445],
  "SoftwareVersions": "syngo_MR_E11",
  "SpacingBetweenSlices": 2,
  "StationName": "AWP166018",
  "TaskName": "prf",
  "TotalReadoutTime": 0.0597409,
  "TxRefAmp": 214.703,
  "WipMemBlock": "bd7e540e-8c16-45af-9d0f-ce19cea88b1b||Sequence: R016 ve11c/master r/8780670; Nov 27 2017 15:05:12 by eja",
  "dcmmeta_affine": [
    [-1.996849775314331, 0.11199085414409637, 0.00700881564989686, 105.56240844726562],
    [0.10881001502275467, 1.963083028793335, -0.3666951060295105, -80.43143463134766],
    [0.027412692084908485, 0.365736186504364, 1.9660837650299072, -59.48920822143555],
    [0.0, 0.0, 0.0, 1.0]
],
  "dcmmeta_reorient_transform": [
    [0.0, -1.0, 0.0, 103.0],
    [1.0, 0.0, 0.0, 0.0],
    [0.0, 0.0, 1.0, 0.0],
    [0.0, 0.0, 0.0, 1.0]
],
  "dcmmeta_shape": [104, 104, 66, 192],
  "dcmmeta_slice_dim": 2,
  "dcmmeta_version": 0.6,
  "global": {
    "const": {
      "AccessionNumber": "K3FZJ5YA",
      "AcquisitionMatrix": [104, 0, 0, 104],
      "AngioFlag": "N",
      "BitsAllocated": 16,
      "BitsStored": 16,
      "BodyPartExamined": "BRAIN",
      "Columns": 936,
      "EchoNumbers": 1,
      "EchoTime": 37.0,
      "EchoTrainLength": 104,
      "FlipAngle": 68.0,
      "HighBit": 15,
      "ImageOrientationPatient": [0.9984248751527, -0.0544050067007, 0.01370634605616, 0.05599542661683, 0.98154152815794, -0.1828680964503],
      "ImagePositionPatient": [-994.37515565681, -893.143703838, 118.9241968919],
      "ImageType": [
        "ORIGINAL",
        "PRIMARY",
        "M",
        "MB",
        "ND",
        "MOSAIC"
],
      "ImagedNucleus": "1H",
      "ImagingFrequency": 123.190738,
      "InPlanePhaseEncodingDirection": "COL",
      "MRAcquisitionType": "2D",
      "MagneticFieldStrength": 3.0,
      "Manufacturer": "SIEMENS",
      "ManufacturerModelName": "Prisma",
      "Modality": "MR",
      "NumberOfAverages": 1.0,
      "NumberOfPhaseEncodingSteps": 104,
      "PercentPhaseFieldOfView": 100.0,
      "PercentSampling": 100.0,
      "PerformedProcedureStepStartTime": "161424.654000",
      "PhotometricInterpretation": "MONOCHROME2",
      "PixelBandwidth": 2290.0,
      "PixelRepresentation": 0,
      "PixelSpacing": [2.0, 2.0],
      "ProtocolName": "cmrr_mbepi_s6_2mm_66sl_PA_task-prf",
      "RepetitionTime": 1000.0,
      "Rows": 936,
      "SAR": 0.06001870760341,
      "SamplesPerPixel": 1,
      "ScanOptions": "FS",
      "ScanningSequence": "EP",
      "SequenceName": "epfid2d1_104",
      "SequenceVariant": [
        "SK",
        "SS"
],
      "SeriesDescription": "cmrr_mbepi_s6_2mm_66sl_PA_task-prf",
      "SeriesNumber": 8,
      "SeriesTime": "163104.545000",
      "SliceLocation": -43.363543396476,
      "SliceThickness": 2.0,
      "SmallestImagePixelValue": 0,
      "SoftwareVersions": "syngo MR E11",
      "SpacingBetweenSlices": 2.00000000109,
      "SpecificCharacterSet": "ISO_IR 100",
      "StudyID": "1",
      "StudyTime": "161424.601000",
      "TransmitCoilName": "Body",
      "VariableFlipAngleFlag": "N",
      "WindowCenterWidthExplanation": "Algo1",
      "dBdt": 0.0},
    "slices": {}
  },
  "time": {
    "samples": {
      "AcquisitionNumber": [1, 2, 3, 4, 5, 6, 7, 8, 9, 10, 11, 12, 13, 14, 15, 16, 17, 18, 19, 20, 21, 22, 23, 24, 25, 26, 27, 28, 29, 30, 31, 32, 33, 34, 35, 36, 37, 38, 39, 40, 41, 42, 43, 44, 45, 46, 47, 48, 49, 50, 51, 52, 53, 54, 55, 56, 57, 58, 59, 60, 61, 62, 63, 64, 65, 66, 67, 68, 69, 70, 71, 72, 73, 74, 75, 76, 77, 78, 79, 80, 81, 82, 83, 84, 85, 86, 87, 88, 89, 90, 91, 92, 93, 94, 95, 96, 97, 98, 99, 100, 101, 102, 103, 104, 105, 106, 107, 108, 109, 110, 111, 112, 113, 114, 115, 116, 117, 118, 119, 120, 121, 122, 123, 124, 125, 126, 127, 128, 129, 130, 131, 132, 133, 134, 135, 136, 137, 138, 139, 140, 141, 142, 143, 144, 145, 146, 147, 148, 149, 150, 151, 152, 153, 154, 155, 156, 157, 158, 159, 160, 161, 162, 163, 164, 165, 166, 167, 168, 169, 170, 171, 172, 173, 174, 175, 176, 177, 178, 179, 180, 181, 182, 183, 184, 185, 186, 187, 188, 189, 190, 191, 192],
      "AcquisitionTime": ["162946.322500", "162947.322500", "162948.322500", "162949.322500", "162950.322500", "162951.322500", "162952.322500", "162953.322500", "162954.322500", "162955.322500", "162956.322500", "162957.322500", "162958.322500", "162959.322500", "163000.322500", "163001.322500", "163002.322500", "163003.322500", "163004.322500", "163005.322500", "163006.322500", "163007.322500", "163008.322500", "163009.322500", "163010.322500", "163011.322500", "163012.322500", "163013.322500", "163014.322500", "163015.322500", "163016.322500", "163017.322500", "163018.322500", "163019.322500", "163020.322500", "163021.322500", "163022.322500", "163023.322500", "163024.322500", "163025.322500", "163026.322500", "163027.322500", "163028.322500", "163029.322500", "163030.322500", "163031.322500", "163032.322500", "163033.322500", "163034.322500", "163035.322500", "163036.322500", "163037.322500", "163038.322500", "163039.322500", "163040.322500", "163041.322500", "163042.322500", "163043.322500", "163044.322500", "163045.322500", "163046.322500", "163047.322500", "163048.322500", "163049.322500", "163050.322500", "163051.322500", "163052.322500", "163053.322500", "163054.322500", "163055.322500", "163056.322500", "163057.322500", "163058.322500", "163059.322500", "163100.322500", "163101.322500", "163102.322500", "163103.322500", "163104.322500", "163105.322500", "163106.322500", "163107.322500", "163108.322500", "163109.322500", "163110.322500", "163111.322500", "163112.322500", "163113.322500", "163114.322500", "163115.322500", "163116.322500", "163117.322500", "163118.322500", "163119.322500", "163120.322500", "163121.322500", "163122.322500", "163123.322500", "163124.322500", "163125.322500", "163126.322500", "163127.322500", "163128.322500", "163129.322500", "163130.322500", "163131.322500", "163132.322500", "163133.322500", "163134.322500", "163135.322500", "163136.322500", "163137.322500", "163138.322500", "163139.322500", "163140.322500", "163141.322500", "163142.322500", "163143.322500", "163144.322500", "163145.322500", "163146.322500", "163147.322500", "163148.322500", "163149.322500", "163150.322500", "163151.322500", "163152.322500", "163153.322500", "163154.322500", "163155.322500", "163156.322500", "163157.322500", "163158.322500", "163159.322500", "163200.322500", "163201.322500", "163202.322500", "163203.322500", "163204.322500", "163205.322500", "163206.322500", "163207.322500", "163208.322500", "163209.322500", "163210.322500", "163211.322500", "163212.322500", "163213.322500", "163214.322500", "163215.322500", "163216.322500", "163217.322500", "163218.322500", "163219.322500", "163220.322500", "163221.322500", "163222.322500", "163223.322500", "163224.322500", "163225.322500", "163226.322500", "163227.322500", "163228.322500", "163229.322500", "163230.322500", "163231.322500", "163232.322500", "163233.322500", "163234.322500", "163235.322500", "163236.322500", "163237.322500", "163238.322500", "163239.322500", "163240.322500", "163241.322500", "163242.322500", "163243.322500", "163244.322500", "163245.322500", "163246.322500", "163247.322500", "163248.322500", "163249.322500", "163250.322500", "163251.322500", "163252.322500", "163253.322500", "163254.322500", "163255.322500", "163256.322500", "163257.322500"],
      "ContentTime": ["163104.547000", "163104.551000", "163104.554000", "163104.557000", "163104.560000", "163104.562000", "163104.565000", "163104.568000", "163104.589000", "163104.592000", "163104.595000", "163104.598000", "163104.600000", "163104.603000", "163104.606000", "163104.609000", "163104.612000", "163104.615000", "163104.618000", "163104.621000", "163104.623000", "163104.630000", "163104.633000", "163104.635000", "163104.638000", "163104.641000", "163104.644000", "163104.647000", "163104.650000", "163104.653000", "163104.655000", "163104.658000", "163104.661000", "163104.664000", "163104.667000", "163104.670000", "163104.674000", "163124.516000", "163124.519000", "163124.522000", "163124.525000", "163124.528000", "163124.531000", "163124.534000", "163124.537000", "163124.540000", "163124.544000", "163124.547000", "163124.550000", "163124.553000", "163124.556000", "163124.559000", "163124.562000", "163124.565000", "163124.574000", "163124.577000", "163124.580000", "163124.583000", "163124.586000", "163124.589000", "163124.592000", "163124.595000", "163124.597000", "163124.600000", "163124.603000", "163144.516000", "163144.519000", "163144.522000", "163144.525000", "163144.527000", "163144.530000", "163144.533000", "163144.536000", "163144.539000", "163144.542000", "163144.545000", "163144.548000", "163144.550000", "163144.553000", "163144.556000", "163144.563000", "163144.566000", "163144.569000", "163144.571000", "163144.574000", "163144.577000", "163144.580000", "163144.583000", "163144.586000", "163144.589000", "163144.592000", "163144.594000", "163144.597000", "163204.516000", "163204.519000", "163204.522000", "163204.524000", "163204.527000", "163204.530000", "163204.533000", "163204.536000", "163204.539000", "163204.542000", "163204.545000", "163204.548000", "163204.550000", "163204.553000", "163204.556000", "163204.559000", "163204.562000", "163204.565000", "163204.568000", "163204.571000", "163204.574000", "163204.576000", "163204.579000", "163204.582000", "163204.585000", "163204.588000", "163204.591000", "163204.594000", "163204.596000", "163224.516000", "163224.519000", "163224.522000", "163224.525000", "163224.527000", "163224.530000", "163224.533000", "163224.536000", "163224.539000", "163224.542000", "163224.545000", "163224.548000", "163224.551000", "163224.554000", "163224.557000", "163224.559000", "163224.562000", "163224.565000", "163224.568000", "163224.571000", "163224.574000", "163224.577000", "163224.579000", "163224.582000", "163224.585000", "163224.588000", "163224.604000", "163224.607000", "163244.515000", "163244.518000", "163244.521000", "163244.524000", "163244.526000", "163244.529000", "163244.532000", "163244.535000", "163244.538000", "163244.541000", "163244.544000", "163244.547000", "163244.549000", "163244.552000", "163244.555000", "163244.558000", "163244.561000", "163244.564000", "163244.567000", "163244.570000", "163244.573000", "163244.576000", "163244.578000", "163244.581000", "163244.584000", "163244.587000", "163244.590000", "163258.855000", "163258.860000", "163258.864000", "163258.867000", "163258.871000", "163258.874000", "163258.878000", "163258.881000", "163258.884000", "163258.887000", "163258.892000", "163258.895000", "163258.900000", "163258.904000", "163258.909000"],
      "InstanceCreationTime": ["163104.547000", "163104.551000", "163104.554000", "163104.557000", "163104.560000", "163104.562000", "163104.565000", "163104.568000", "163104.589000", "163104.592000", "163104.595000", "163104.598000", "163104.600000", "163104.603000", "163104.606000", "163104.609000", "163104.612000", "163104.615000", "163104.618000", "163104.621000", "163104.623000", "163104.630000", "163104.633000", "163104.635000", "163104.638000", "163104.641000", "163104.644000", "163104.647000", "163104.650000", "163104.653000", "163104.655000", "163104.658000", "163104.661000", "163104.664000", "163104.667000", "163104.670000", "163104.674000", "163124.516000", "163124.519000", "163124.522000", "163124.525000", "163124.528000", "163124.531000", "163124.534000", "163124.537000", "163124.540000", "163124.544000", "163124.547000", "163124.550000", "163124.553000", "163124.556000", "163124.559000", "163124.562000", "163124.565000", "163124.574000", "163124.577000", "163124.580000", "163124.583000", "163124.586000", "163124.589000", "163124.592000", "163124.595000", "163124.597000", "163124.600000", "163124.603000", "163144.516000", "163144.519000", "163144.522000", "163144.525000", "163144.527000", "163144.530000", "163144.533000", "163144.536000", "163144.539000", "163144.542000", "163144.545000", "163144.548000", "163144.550000", "163144.553000", "163144.556000", "163144.563000", "163144.566000", "163144.569000", "163144.571000", "163144.574000", "163144.577000", "163144.580000", "163144.583000", "163144.586000", "163144.589000", "163144.592000", "163144.594000", "163144.597000", "163204.516000", "163204.519000", "163204.522000", "163204.524000", "163204.527000", "163204.530000", "163204.533000", "163204.536000", "163204.539000", "163204.542000", "163204.545000", "163204.548000", "163204.550000", "163204.553000", "163204.556000", "163204.559000", "163204.562000", "163204.565000", "163204.568000", "163204.571000", "163204.574000", "163204.576000", "163204.579000", "163204.582000", "163204.585000", "163204.588000", "163204.591000", "163204.594000", "163204.596000", "163224.516000", "163224.519000", "163224.522000", "163224.525000", "163224.527000", "163224.530000", "163224.533000", "163224.536000", "163224.539000", "163224.542000", "163224.545000", "163224.548000", "163224.551000", "163224.554000", "163224.557000", "163224.559000", "163224.562000", "163224.565000", "163224.568000", "163224.571000", "163224.574000", "163224.577000", "163224.579000", "163224.582000", "163224.585000", "163224.588000", "163224.604000", "163224.607000", "163244.515000", "163244.518000", "163244.521000", "163244.524000", "163244.526000", "163244.529000", "163244.532000", "163244.535000", "163244.538000", "163244.541000", "163244.544000", "163244.547000", "163244.549000", "163244.552000", "163244.555000", "163244.558000", "163244.561000", "163244.564000", "163244.567000", "163244.570000", "163244.573000", "163244.576000", "163244.578000", "163244.581000", "163244.584000", "163244.587000", "163244.590000", "163258.855000", "163258.860000", "163258.864000", "163258.867000", "163258.871000", "163258.874000", "163258.878000", "163258.881000", "163258.884000", "163258.887000", "163258.892000", "163258.895000", "163258.900000", "163258.904000", "163258.909000"],
      "InstanceNumber": [1, 2, 3, 4, 5, 6, 7, 8, 9, 10, 11, 12, 13, 14, 15, 16, 17, 18, 19, 20, 21, 22, 23, 24, 25, 26, 27, 28, 29, 30, 31, 32, 33, 34, 35, 36, 37, 38, 39, 40, 41, 42, 43, 44, 45, 46, 47, 48, 49, 50, 51, 52, 53, 54, 55, 56, 57, 58, 59, 60, 61, 62, 63, 64, 65, 66, 67, 68, 69, 70, 71, 72, 73, 74, 75, 76, 77, 78, 79, 80, 81, 82, 83, 84, 85, 86, 87, 88, 89, 90, 91, 92, 93, 94, 95, 96, 97, 98, 99, 100, 101, 102, 103, 104, 105, 106, 107, 108, 109, 110, 111, 112, 113, 114, 115, 116, 117, 118, 119, 120, 121, 122, 123, 124, 125, 126, 127, 128, 129, 130, 131, 132, 133, 134, 135, 136, 137, 138, 139, 140, 141, 142, 143, 144, 145, 146, 147, 148, 149, 150, 151, 152, 153, 154, 155, 156, 157, 158, 159, 160, 161, 162, 163, 164, 165, 166, 167, 168, 169, 170, 171, 172, 173, 174, 175, 176, 177, 178, 179, 180, 181, 182, 183, 184, 185, 186, 187, 188, 189, 190, 191, 192],
      "LargestImagePixelValue": [41591, 40359, 40009, 39611, 39547, 40413, 40064, 39297, 39686, 39607, 39597, 39376, 39694, 39608, 39413, 39722, 39682, 39519, 39846, 39861, 39140, 39547, 39179, 40020, 39832, 39894, 39365, 40002, 39767, 39822, 39873, 39952, 39788, 40117, 40242, 39947, 39892, 39485, 39482, 39823, 39546, 39775, 40112, 39777, 39379, 39578, 39960, 40177, 39996, 39863, 39345, 39550, 39638, 39823, 40050, 39859, 40042, 39773, 40176, 39488, 39530, 39956, 39785, 39606, 40012, 40113, 39886, 39482, 39737, 39669, 40122, 39982, 40031, 39905, 40250, 40017, 40564, 40180, 40504, 40113, 39913, 39547, 39723, 39934, 39855, 40323, 40034, 40057, 40076, 40140, 40282, 40059, 40232, 40115, 40468, 40332, 40832, 40171, 40127, 41100, 40742, 39968, 40200, 40803, 40759, 40520, 40709, 40662, 40930, 40693, 40499, 40451, 40950, 41205, 40789, 40441, 41044, 40693, 40961, 41380, 41026, 40773, 40752, 40930, 40276, 40804, 41438, 40889, 40592, 41455, 40604, 40439, 40789, 40396, 40433, 40913, 40541, 40429, 40855, 40653, 40666, 40901, 40430, 40352, 40687, 40312, 40551, 40963, 40851, 40722, 40905, 40823, 40787, 40806, 40776, 40884, 41445, 40432, 40041, 40529, 40719, 40231, 40787, 40575, 40281, 40841, 40610, 40747, 41026, 41082, 40622, 41097, 40450, 40428, 40597, 40793, 40222, 40671, 40412, 40196, 40814, 40059, 40018, 40696, 40492, 40414, 40545, 40316, 40359, 40644, 40444, 40442],
      "WindowCenter": [10229.0, 10189.0, 10170.0, 10163.0, 10162.0, 10171.0, 10168.0, 10164.0, 10161.0, 10155.0, 10158.0, 10146.0, 10144.0, 10150.0, 10152.0, 10165.0, 10179.0, 10175.0, 10180.0, 10166.0, 10148.0, 10160.0, 10162.0, 10179.0, 10181.0, 10180.0, 10161.0, 10159.0, 10158.0, 10159.0, 10165.0, 10171.0, 10158.0, 10158.0, 10168.0, 10162.0, 10157.0, 10153.0, 10145.0, 10150.0, 10152.0, 10163.0, 10163.0, 10149.0, 10136.0, 10135.0, 10141.0, 10146.0, 10141.0, 10143.0, 10138.0, 10141.0, 10148.0, 10144.0, 10149.0, 10150.0, 10157.0, 10157.0, 10156.0, 10146.0, 10149.0, 10148.0, 10144.0, 10154.0, 10157.0, 10171.0, 10177.0, 10166.0, 10160.0, 10157.0, 10155.0, 10155.0, 10161.0, 10154.0, 10153.0, 10156.0, 10173.0, 10169.0, 10174.0, 10162.0, 10150.0, 10148.0, 10143.0, 10153.0, 10146.0, 10148.0, 10154.0, 10162.0, 10175.0, 10178.0, 10177.0, 10165.0, 10155.0, 10155.0, 10161.0, 10156.0, 10159.0, 10153.0, 10141.0, 10145.0, 10152.0, 10156.0, 10168.0, 10169.0, 10175.0, 10175.0, 10175.0, 10169.0, 10167.0, 10155.0, 10153.0, 10153.0, 10164.0, 10178.0, 10182.0, 10171.0, 10169.0, 10161.0, 10152.0, 10156.0, 10157.0, 10159.0, 10158.0, 10160.0, 10156.0, 10160.0, 10166.0, 10162.0, 10154.0, 10163.0, 10155.0, 10148.0, 10161.0, 10164.0, 10164.0, 10168.0, 10156.0, 10141.0, 10144.0, 10138.0, 10143.0, 10152.0, 10155.0, 10157.0, 10162.0, 10152.0, 10142.0, 10144.0, 10139.0, 10143.0, 10143.0, 10144.0, 10138.0, 10144.0, 10145.0, 10150.0, 10156.0, 10146.0, 10140.0, 10149.0, 10150.0, 10151.0, 10161.0, 10163.0, 10163.0, 10168.0, 10156.0, 10147.0, 10145.0, 10144.0, 10137.0, 10143.0, 10139.0, 10145.0, 10145.0, 10144.0, 10132.0, 10136.0, 10136.0, 10136.0, 10142.0, 10137.0, 10133.0, 10144.0, 10139.0, 10132.0, 10141.0, 10135.0, 10129.0, 10135.0, 10129.0, 10128.0],
      "WindowWidth": [22120.0, 22005.0, 21946.0, 21922.0, 21915.0, 21934.0, 21929.0, 21921.0, 21914.0, 21899.0, 21900.0, 21873.0, 21868.0, 21881.0, 21888.0, 21922.0, 21951.0, 21944.0, 21954.0, 21920.0, 21879.0, 21905.0, 21912.0, 21948.0, 21956.0, 21950.0, 21910.0, 21905.0, 21902.0, 21904.0, 21921.0, 21932.0, 21902.0, 21902.0, 21918.0, 21907.0, 21897.0, 21888.0, 21869.0, 21881.0, 21887.0, 21910.0, 21909.0, 21875.0, 21844.0, 21844.0, 21854.0, 21866.0, 21861.0, 21867.0, 21854.0, 21858.0, 21872.0, 21865.0, 21876.0, 21882.0, 21898.0, 21899.0, 21895.0, 21871.0, 21876.0, 21875.0, 21866.0, 21888.0, 21899.0, 21930.0, 21943.0, 21921.0, 21907.0, 21899.0, 21893.0, 21893.0, 21903.0, 21889.0, 21887.0, 21893.0, 21930.0, 21926.0, 21937.0, 21908.0, 21881.0, 21873.0, 21862.0, 21882.0, 21869.0, 21875.0, 21889.0, 21910.0, 21939.0, 21946.0, 21943.0, 21918.0, 21892.0, 21886.0, 21900.0, 21890.0, 21895.0, 21881.0, 21854.0, 21862.0, 21877.0, 21891.0, 21918.0, 21923.0, 21937.0, 21937.0, 21935.0, 21920.0, 21915.0, 21889.0, 21883.0, 21884.0, 21910.0, 21941.0, 21953.0, 21930.0, 21921.0, 21900.0, 21879.0, 21886.0, 21888.0, 21892.0, 21893.0, 21898.0, 21891.0, 21899.0, 21911.0, 21904.0, 21883.0, 21899.0, 21883.0, 21868.0, 21897.0, 21906.0, 21907.0, 21915.0, 21887.0, 21853.0, 21856.0, 21843.0, 21857.0, 21881.0, 21887.0, 21892.0, 21904.0, 21878.0, 21853.0, 21854.0, 21845.0, 21851.0, 21855.0, 21859.0, 21848.0, 21858.0, 21860.0, 21870.0, 21883.0, 21864.0, 21852.0, 21869.0, 21871.0, 21875.0, 21899.0, 21905.0, 21905.0, 21914.0, 21886.0, 21866.0, 21861.0, 21857.0, 21842.0, 21856.0, 21849.0, 21862.0, 21862.0, 21858.0, 21835.0, 21841.0, 21839.0, 21839.0, 21850.0, 21842.0, 21833.0, 21856.0, 21845.0, 21830.0, 21848.0, 21835.0, 21824.0, 21836.0, 21823.0, 21820.0]
    },
    "slices": {}
  },
  "NumberOfVolumes": 192
}