{
  "AcquisitionMatrixPE": 104,
  "AcquisitionNumber": 1,
  "AcquisitionTime": "16:48:56.502500",
  "BandwidthPerPixelPhaseEncode": 16.578,
  "BaseResolution": 104,
  "BodyPartExamined": "BRAIN",
  "ConsistencyInfo": "N4_VE11C_LATEST_20160120",
  "ConversionSoftware": "dcm2niix",
  "ConversionSoftwareVersion": "v1.0.20190902",
  "DerivedVendorReportedEchoSpacing": 0.000580009,
  "DeviceSerialNumber": "166018",
  "DwellTime": 2.1e-06,
  "EchoTime": 0.037,
  "EchoTrainLength": 104,
  "EffectiveEchoSpacing": 0.000580009,
  "FlipAngle": 68,
  "ImageComments": "Unaliased_MB6_PE3_LB",
  "ImageOrientationPatientDICOM": [0.998425, -0.054405, 0.0137063, 0.0559954, 0.981542, -0.182868],
  "ImageType": [
    "ORIGINAL",
    "PRIMARY",
    "M",
    "MB",
    "ND",
    "MOSAIC"
],
  "ImagingFrequency": 123.191,
  "InPlanePhaseEncodingDirectionDICOM": "COL",
  "InstitutionAddress": "Washington_Place_6_NYC_NYC_US_10003",
  "InstitutionName": "NYU_-_CBI",
  "InstitutionalDepartmentName": "Department",
  "MRAcquisitionType": "2D",
  "MagneticFieldStrength": 3,
  "Manufacturer": "Siemens",
  "ManufacturersModelName": "Prisma",
  "Modality": "MR",
  "MultibandAccelerationFactor": 6,
  "PartialFourier": 1,
  "PatientPosition": "HFS",
  "PercentPhaseFOV": 100,
  "PhaseEncodingDirection": "j",
  "PhaseEncodingSteps": 104,
  "PhaseResolution": 1,
  "PixelBandwidth": 2290,
  "ProcedureStepDescription": "Investigators_Winawer",
  "ProtocolName": "cmrr_mbepi_s6_2mm_66sl_PA_task-prf",
  "PulseSequenceDetails": "%CustomerSeq%_cmrr_mbep2d_bold",
  "ReceiveCoilActiveElements": "HC1-7",
  "ReceiveCoilName": "HeadNeck_64",
  "ReconMatrixPE": 104,
  "RepetitionTime": 1,
  "SAR": 0.0600187,
  "ScanOptions": "FS",
  "ScanningSequence": "EP",
  "SequenceName": "epfid2d1_104",
  "SequenceVariant": "SK_SS",
  "SeriesDescription": "cmrr_mbepi_s6_2mm_66sl_PA_task-prf",
  "SeriesNumber": 18,
  "ShimSetting": [262, -12688, -8435, 421, 14, -313, -190, 51],
  "SliceThickness": 2,
  "SliceTiming": [0, 0.535, 0.09, 0.6225, 0.1775, 0.7125, 0.2675, 0.8025, 0.355, 0.89, 0.445, 0, 0.535, 0.09, 0.6225, 0.1775, 0.7125, 0.2675, 0.8025, 0.355, 0.89, 0.445, 0, 0.535, 0.09, 0.6225, 0.1775, 0.7125, 0.2675, 0.8025, 0.355, 0.89, 0.445, 0, 0.535, 0.09, 0.6225, 0.1775, 0.7125, 0.2675, 0.8025, 0.355, 0.89, 0.445, 0, 0.535, 0.09, 0.6225, 0.1775, 0.7125, 0.2675, 0.8025, 0.355, 0.89, 0.445, 0, 0.535, 0.09, 0.6225, 0.1775, 0.7125, 0.2675, 0.8025, 0.355, 0.89, 0.445],
  "SoftwareVersions": "syngo_MR_E11",
  "SpacingBetweenSlices": 2,
  "StationName": "AWP166018",
  "TaskName": "prf",
  "TotalReadoutTime": 0.0597409,
  "TxRefAmp": 214.703,
  "WipMemBlock": "bd7e540e-8c16-45af-9d0f-ce19cea88b1b||Sequence: R016 ve11c/master r/8780670; Nov 27 2017 15:05:12 by eja",
  "dcmmeta_affine": [
    [-1.996849775314331, 0.11199085414409637, 0.00700881564989686, 105.56240844726562],
    [0.10881001502275467, 1.963083028793335, -0.3666951060295105, -80.43143463134766],
    [0.027412692084908485, 0.365736186504364, 1.9660837650299072, -59.48920822143555],
    [0.0, 0.0, 0.0, 1.0]
],
  "dcmmeta_reorient_transform": [
    [0.0, -1.0, 0.0, 103.0],
    [1.0, 0.0, 0.0, 0.0],
    [0.0, 0.0, 1.0, 0.0],
    [0.0, 0.0, 0.0, 1.0]
],
  "dcmmeta_shape": [104, 104, 66, 192],
  "dcmmeta_slice_dim": 2,
  "dcmmeta_version": 0.6,
  "global": {
    "const": {
      "AccessionNumber": "K3FZJ5YA",
      "AcquisitionMatrix": [104, 0, 0, 104],
      "AngioFlag": "N",
      "BitsAllocated": 16,
      "BitsStored": 16,
      "BodyPartExamined": "BRAIN",
      "Columns": 936,
      "EchoNumbers": 1,
      "EchoTime": 37.0,
      "EchoTrainLength": 104,
      "FlipAngle": 68.0,
      "HighBit": 15,
      "ImageOrientationPatient": [0.9984248751527, -0.0544050067007, 0.01370634605616, 0.05599542661683, 0.98154152815794, -0.1828680964503],
      "ImagePositionPatient": [-994.37515565681, -893.143703838, 118.9241968919],
      "ImageType": [
        "ORIGINAL",
        "PRIMARY",
        "M",
        "MB",
        "ND",
        "MOSAIC"
],
      "ImagedNucleus": "1H",
      "ImagingFrequency": 123.190738,
      "InPlanePhaseEncodingDirection": "COL",
      "MRAcquisitionType": "2D",
      "MagneticFieldStrength": 3.0,
      "Manufacturer": "SIEMENS",
      "ManufacturerModelName": "Prisma",
      "Modality": "MR",
      "NumberOfAverages": 1.0,
      "NumberOfPhaseEncodingSteps": 104,
      "PercentPhaseFieldOfView": 100.0,
      "PercentSampling": 100.0,
      "PerformedProcedureStepStartTime": "161424.654000",
      "PhotometricInterpretation": "MONOCHROME2",
      "PixelBandwidth": 2290.0,
      "PixelRepresentation": 0,
      "PixelSpacing": [2.0, 2.0],
      "ProtocolName": "cmrr_mbepi_s6_2mm_66sl_PA_task-prf",
      "RepetitionTime": 1000.0,
      "Rows": 936,
      "SAR": 0.06001870760341,
      "SamplesPerPixel": 1,
      "ScanOptions": "FS",
      "ScanningSequence": "EP",
      "SequenceName": "epfid2d1_104",
      "SequenceVariant": [
        "SK",
        "SS"
],
      "SeriesDescription": "cmrr_mbepi_s6_2mm_66sl_PA_task-prf",
      "SeriesNumber": 18,
      "SeriesTime": "165004.475000",
      "SliceLocation": -43.363543396476,
      "SliceThickness": 2.0,
      "SmallestImagePixelValue": 0,
      "SoftwareVersions": "syngo MR E11",
      "SpacingBetweenSlices": 2.00000000109,
      "SpecificCharacterSet": "ISO_IR 100",
      "StudyID": "1",
      "StudyTime": "161424.601000",
      "TransmitCoilName": "Body",
      "VariableFlipAngleFlag": "N",
      "WindowCenterWidthExplanation": "Algo1",
      "dBdt": 0.0},
    "slices": {}
  },
  "time": {
    "samples": {
      "AcquisitionNumber": [1, 2, 3, 4, 5, 6, 7, 8, 9, 10, 11, 12, 13, 14, 15, 16, 17, 18, 19, 20, 21, 22, 23, 24, 25, 26, 27, 28, 29, 30, 31, 32, 33, 34, 35, 36, 37, 38, 39, 40, 41, 42, 43, 44, 45, 46, 47, 48, 49, 50, 51, 52, 53, 54, 55, 56, 57, 58, 59, 60, 61, 62, 63, 64, 65, 66, 67, 68, 69, 70, 71, 72, 73, 74, 75, 76, 77, 78, 79, 80, 81, 82, 83, 84, 85, 86, 87, 88, 89, 90, 91, 92, 93, 94, 95, 96, 97, 98, 99, 100, 101, 102, 103, 104, 105, 106, 107, 108, 109, 110, 111, 112, 113, 114, 115, 116, 117, 118, 119, 120, 121, 122, 123, 124, 125, 126, 127, 128, 129, 130, 131, 132, 133, 134, 135, 136, 137, 138, 139, 140, 141, 142, 143, 144, 145, 146, 147, 148, 149, 150, 151, 152, 153, 154, 155, 156, 157, 158, 159, 160, 161, 162, 163, 164, 165, 166, 167, 168, 169, 170, 171, 172, 173, 174, 175, 176, 177, 178, 179, 180, 181, 182, 183, 184, 185, 186, 187, 188, 189, 190, 191, 192],
      "AcquisitionTime": ["164856.502500", "164857.502500", "164858.502500", "164859.502500", "164900.502500", "164901.502500", "164902.502500", "164903.502500", "164904.502500", "164905.502500", "164906.502500", "164907.502500", "164908.502500", "164909.502500", "164910.502500", "164911.502500", "164912.502500", "164913.502500", "164914.502500", "164915.502500", "164916.502500", "164917.502500", "164918.502500", "164919.502500", "164920.502500", "164921.502500", "164922.502500", "164923.502500", "164924.502500", "164925.502500", "164926.502500", "164927.502500", "164928.502500", "164929.502500", "164930.502500", "164931.502500", "164932.502500", "164933.502500", "164934.502500", "164935.502500", "164936.502500", "164937.502500", "164938.502500", "164939.502500", "164940.502500", "164941.502500", "164942.502500", "164943.502500", "164944.502500", "164945.502500", "164946.502500", "164947.502500", "164948.502500", "164949.502500", "164950.502500", "164951.502500", "164952.502500", "164953.502500", "164954.502500", "164955.502500", "164956.502500", "164957.502500", "164958.502500", "164959.502500", "165000.502500", "165001.502500", "165002.502500", "165003.502500", "165004.502500", "165005.502500", "165006.502500", "165007.502500", "165008.502500", "165009.502500", "165010.502500", "165011.502500", "165012.502500", "165013.502500", "165014.502500", "165015.502500", "165016.502500", "165017.502500", "165018.502500", "165019.502500", "165020.502500", "165021.502500", "165022.502500", "165023.502500", "165024.502500", "165025.502500", "165026.502500", "165027.502500", "165028.502500", "165029.502500", "165030.502500", "165031.502500", "165032.502500", "165033.502500", "165034.502500", "165035.502500", "165036.502500", "165037.502500", "165038.502500", "165039.502500", "165040.502500", "165041.502500", "165042.502500", "165043.502500", "165044.502500", "165045.502500", "165046.502500", "165047.502500", "165048.502500", "165049.502500", "165050.502500", "165051.502500", "165052.502500", "165053.502500", "165054.502500", "165055.502500", "165056.502500", "165057.502500", "165058.502500", "165059.502500", "165100.502500", "165101.502500", "165102.502500", "165103.502500", "165104.502500", "165105.502500", "165106.502500", "165107.502500", "165108.502500", "165109.502500", "165110.502500", "165111.502500", "165112.502500", "165113.502500", "165114.502500", "165115.502500", "165116.502500", "165117.502500", "165118.502500", "165119.502500", "165120.502500", "165121.502500", "165122.502500", "165123.502500", "165124.502500", "165125.502500", "165126.502500", "165127.502500", "165128.502500", "165129.502500", "165130.502500", "165131.502500", "165132.502500", "165133.502500", "165134.502500", "165135.502500", "165136.502500", "165137.502500", "165138.502500", "165139.502500", "165140.502500", "165141.502500", "165142.502500", "165143.502500", "165144.502500", "165145.502500", "165146.502500", "165147.502500", "165148.502500", "165149.502500", "165150.502500", "165151.502500", "165152.502500", "165153.502500", "165154.502500", "165155.502500", "165156.502500", "165157.502500", "165158.502500", "165159.502500", "165200.502500", "165201.502500", "165202.502500", "165203.502500", "165204.502500", "165205.502500", "165206.502500", "165207.502500"],
      "ContentTime": ["165004.478000", "165004.481000", "165004.484000", "165004.487000", "165004.490000", "165004.493000", "165004.496000", "165004.499000", "165004.501000", "165004.504000", "165004.507000", "165004.510000", "165004.513000", "165004.516000", "165004.520000", "165004.523000", "165004.526000", "165004.529000", "165004.532000", "165004.535000", "165004.542000", "165004.545000", "165004.548000", "165004.551000", "165024.446000", "165024.449000", "165024.452000", "165024.455000", "165024.457000", "165024.460000", "165024.463000", "165024.466000", "165024.469000", "165024.472000", "165024.474000", "165024.477000", "165024.480000", "165024.483000", "165024.486000", "165024.489000", "165024.492000", "165024.495000", "165024.497000", "165024.500000", "165024.503000", "165024.506000", "165024.509000", "165024.512000", "165024.515000", "165024.518000", "165024.522000", "165024.525000", "165024.527000", "165044.446000", "165044.449000", "165044.452000", "165044.455000", "165044.458000", "165044.460000", "165044.463000", "165044.466000", "165044.469000", "165044.472000", "165044.475000", "165044.478000", "165044.480000", "165044.483000", "165044.486000", "165044.489000", "165044.492000", "165044.495000", "165044.498000", "165044.501000", "165044.503000", "165044.506000", "165044.509000", "165044.512000", "165044.515000", "165044.519000", "165044.522000", "165044.525000", "165104.446000", "165104.449000", "165104.452000", "165104.455000", "165104.458000", "165104.461000", "165104.463000", "165104.466000", "165104.469000", "165104.472000", "165104.475000", "165104.478000", "165104.481000", "165104.484000", "165104.486000", "165104.489000", "165104.492000", "165104.495000", "165104.498000", "165104.501000", "165104.504000", "165104.507000", "165104.510000", "165104.512000", "165104.515000", "165104.519000", "165104.530000", "165104.533000", "165124.445000", "165124.449000", "165124.451000", "165124.454000", "165124.457000", "165124.460000", "165124.463000", "165124.466000", "165124.469000", "165124.489000", "165124.492000", "165124.494000", "165124.497000", "165124.500000", "165124.503000", "165124.506000", "165124.509000", "165124.512000", "165124.515000", "165124.519000", "165124.522000", "165124.525000", "165124.527000", "165124.530000", "165124.533000", "165124.536000", "165124.539000", "165124.542000", "165144.445000", "165144.448000", "165144.451000", "165144.454000", "165144.456000", "165144.459000", "165144.462000", "165144.465000", "165144.468000", "165144.471000", "165144.474000", "165144.477000", "165144.480000", "165144.482000", "165144.485000", "165144.488000", "165144.491000", "165144.494000", "165144.497000", "165144.500000", "165144.503000", "165144.505000", "165144.508000", "165144.511000", "165144.514000", "165144.518000", "165144.521000", "165144.524000", "165144.527000", "165204.446000", "165204.449000", "165204.452000", "165204.455000", "165204.458000", "165204.461000", "165204.464000", "165204.467000", "165204.469000", "165204.472000", "165204.475000", "165204.478000", "165204.481000", "165204.484000", "165204.487000", "165204.490000", "165204.493000", "165204.495000", "165204.498000", "165204.501000", "165204.504000", "165208.699000", "165208.702000", "165208.705000", "165208.708000", "165208.711000"],
      "InstanceCreationTime": ["165004.478000", "165004.481000", "165004.484000", "165004.487000", "165004.490000", "165004.493000", "165004.496000", "165004.499000", "165004.501000", "165004.504000", "165004.507000", "165004.510000", "165004.513000", "165004.516000", "165004.520000", "165004.523000", "165004.526000", "165004.529000", "165004.532000", "165004.535000", "165004.542000", "165004.545000", "165004.548000", "165004.551000", "165024.446000", "165024.449000", "165024.452000", "165024.455000", "165024.457000", "165024.460000", "165024.463000", "165024.466000", "165024.469000", "165024.472000", "165024.474000", "165024.477000", "165024.480000", "165024.483000", "165024.486000", "165024.489000", "165024.492000", "165024.495000", "165024.497000", "165024.500000", "165024.503000", "165024.506000", "165024.509000", "165024.512000", "165024.515000", "165024.518000", "165024.522000", "165024.525000", "165024.527000", "165044.446000", "165044.449000", "165044.452000", "165044.455000", "165044.458000", "165044.460000", "165044.463000", "165044.466000", "165044.469000", "165044.472000", "165044.475000", "165044.478000", "165044.480000", "165044.483000", "165044.486000", "165044.489000", "165044.492000", "165044.495000", "165044.498000", "165044.501000", "165044.503000", "165044.506000", "165044.509000", "165044.512000", "165044.515000", "165044.519000", "165044.522000", "165044.525000", "165104.446000", "165104.449000", "165104.452000", "165104.455000", "165104.458000", "165104.461000", "165104.463000", "165104.466000", "165104.469000", "165104.472000", "165104.475000", "165104.478000", "165104.481000", "165104.484000", "165104.486000", "165104.489000", "165104.492000", "165104.495000", "165104.498000", "165104.501000", "165104.504000", "165104.507000", "165104.510000", "165104.512000", "165104.515000", "165104.519000", "165104.530000", "165104.533000", "165124.445000", "165124.449000", "165124.451000", "165124.454000", "165124.457000", "165124.460000", "165124.463000", "165124.466000", "165124.469000", "165124.489000", "165124.492000", "165124.494000", "165124.497000", "165124.500000", "165124.503000", "165124.506000", "165124.509000", "165124.512000", "165124.515000", "165124.519000", "165124.522000", "165124.525000", "165124.527000", "165124.530000", "165124.533000", "165124.536000", "165124.539000", "165124.542000", "165144.445000", "165144.448000", "165144.451000", "165144.454000", "165144.456000", "165144.459000", "165144.462000", "165144.465000", "165144.468000", "165144.471000", "165144.474000", "165144.477000", "165144.480000", "165144.482000", "165144.485000", "165144.488000", "165144.491000", "165144.494000", "165144.497000", "165144.500000", "165144.503000", "165144.505000", "165144.508000", "165144.511000", "165144.514000", "165144.518000", "165144.521000", "165144.524000", "165144.527000", "165204.446000", "165204.449000", "165204.452000", "165204.455000", "165204.458000", "165204.461000", "165204.464000", "165204.467000", "165204.469000", "165204.472000", "165204.475000", "165204.478000", "165204.481000", "165204.484000", "165204.487000", "165204.490000", "165204.493000", "165204.495000", "165204.498000", "165204.501000", "165204.504000", "165208.699000", "165208.702000", "165208.705000", "165208.708000", "165208.711000"],
      "InstanceNumber": [1, 2, 3, 4, 5, 6, 7, 8, 9, 10, 11, 12, 13, 14, 15, 16, 17, 18, 19, 20, 21, 22, 23, 24, 25, 26, 27, 28, 29, 30, 31, 32, 33, 34, 35, 36, 37, 38, 39, 40, 41, 42, 43, 44, 45, 46, 47, 48, 49, 50, 51, 52, 53, 54, 55, 56, 57, 58, 59, 60, 61, 62, 63, 64, 65, 66, 67, 68, 69, 70, 71, 72, 73, 74, 75, 76, 77, 78, 79, 80, 81, 82, 83, 84, 85, 86, 87, 88, 89, 90, 91, 92, 93, 94, 95, 96, 97, 98, 99, 100, 101, 102, 103, 104, 105, 106, 107, 108, 109, 110, 111, 112, 113, 114, 115, 116, 117, 118, 119, 120, 121, 122, 123, 124, 125, 126, 127, 128, 129, 130, 131, 132, 133, 134, 135, 136, 137, 138, 139, 140, 141, 142, 143, 144, 145, 146, 147, 148, 149, 150, 151, 152, 153, 154, 155, 156, 157, 158, 159, 160, 161, 162, 163, 164, 165, 166, 167, 168, 169, 170, 171, 172, 173, 174, 175, 176, 177, 178, 179, 180, 181, 182, 183, 184, 185, 186, 187, 188, 189, 190, 191, 192],
      "LargestImagePixelValue": [41148, 40080, 39719, 38520, 38298, 38547, 37989, 38179, 38064, 38237, 37960, 38609, 37969, 37820, 38725, 38590, 38004, 37928, 38022, 38385, 38701, 38293, 38789, 39012, 39353, 38608, 38366, 38179, 38366, 38789, 38751, 39040, 38884, 38550, 38269, 38773, 38482, 39390, 38442, 38609, 39041, 40010, 39206, 38290, 38385, 38378, 38073, 39010, 38421, 38970, 39609, 39645, 39065, 38853, 38337, 38542, 38593, 38664, 38610, 38455, 38252, 38528, 38302, 38308, 38503, 38264, 37989, 37907, 37721, 38247, 37922, 37979, 38545, 38318, 38747, 38428, 38463, 38787, 38642, 38398, 38218, 38740, 38341, 38521, 38172, 39111, 39370, 38564, 38737, 38114, 38369, 39476, 40631, 40654, 39406, 39731, 39665, 39964, 39108, 39640, 39018, 38596, 38058, 38185, 39211, 38181, 38115, 38758, 38979, 39024, 39425, 39025, 38925, 39279, 39354, 39300, 38740, 39036, 38539, 38594, 39334, 39214, 38896, 38367, 38608, 38379, 39073, 39057, 39055, 38619, 38597, 38727, 38659, 38385, 38740, 38747, 38977, 39655, 39246, 38707, 39065, 40136, 38793, 39854, 39358, 39730, 39432, 39737, 38841, 39064, 38808, 38515, 38509, 38695, 38755, 39019, 38381, 38335, 38746, 38915, 38897, 39435, 39574, 39527, 39325, 39282, 38480, 38104, 38683, 38780, 38676, 38592, 39087, 38806, 39367, 38782, 38649, 38424, 38831, 38996, 38832, 39188, 38568, 38654, 38524, 38502, 38518, 39010, 38545, 38942, 38625, 38937],
      "WindowCenter": [10278.0, 10246.0, 10230.0, 10218.0, 10209.0, 10208.0, 10201.0, 10199.0, 10193.0, 10191.0, 10186.0, 10203.0, 10213.0, 10216.0, 10232.0, 10233.0, 10216.0, 10213.0, 10207.0, 10204.0, 10217.0, 10227.0, 10250.0, 10249.0, 10234.0, 10204.0, 10192.0, 10184.0, 10187.0, 10187.0, 10186.0, 10184.0, 10199.0, 10208.0, 10216.0, 10207.0, 10189.0, 10186.0, 10176.0, 10175.0, 10183.0, 10192.0, 10191.0, 10182.0, 10180.0, 10170.0, 10149.0, 10151.0, 10147.0, 10146.0, 10154.0, 10156.0, 10145.0, 10143.0, 10138.0, 10137.0, 10142.0, 10151.0, 10152.0, 10148.0, 10145.0, 10139.0, 10144.0, 10152.0, 10177.0, 10199.0, 10198.0, 10184.0, 10168.0, 10163.0, 10148.0, 10154.0, 10169.0, 10178.0, 10191.0, 10178.0, 10174.0, 10179.0, 10177.0, 10177.0, 10172.0, 10186.0, 10195.0, 10200.0, 10193.0, 10183.0, 10178.0, 10181.0, 10194.0, 10185.0, 10177.0, 10189.0, 10195.0, 10191.0, 10170.0, 10151.0, 10124.0, 10099.0, 10079.0, 10101.0, 10119.0, 10138.0, 10138.0, 10139.0, 10148.0, 10130.0, 10123.0, 10132.0, 10134.0, 10126.0, 10134.0, 10140.0, 10138.0, 10142.0, 10147.0, 10161.0, 10162.0, 10181.0, 10185.0, 10189.0, 10180.0, 10173.0, 10167.0, 10149.0, 10146.0, 10139.0, 10144.0, 10150.0, 10159.0, 10159.0, 10154.0, 10161.0, 10162.0, 10171.0, 10185.0, 10193.0, 10198.0, 10204.0, 10199.0, 10195.0, 10207.0, 10225.0, 10217.0, 10233.0, 10230.0, 10236.0, 10230.0, 10235.0, 10237.0, 10252.0, 10238.0, 10211.0, 10203.0, 10201.0, 10205.0, 10225.0, 10225.0, 10212.0, 10198.0, 10186.0, 10170.0, 10160.0, 10158.0, 10150.0, 10143.0, 10158.0, 10155.0, 10156.0, 10161.0, 10161.0, 10170.0, 10178.0, 10183.0, 10186.0, 10202.0, 10209.0, 10212.0, 10205.0, 10195.0, 10185.0, 10178.0, 10178.0, 10173.0, 10188.0, 10203.0, 10212.0, 10212.0, 10214.0, 10198.0, 10195.0, 10186.0, 10183.0],
      "WindowWidth": [22260.0, 22161.0, 22114.0, 22082.0, 22057.0, 22054.0, 22035.0, 22029.0, 22014.0, 22008.0, 21997.0, 22034.0, 22058.0, 22070.0, 22103.0, 22104.0, 22067.0, 22058.0, 22043.0, 22037.0, 22065.0, 22091.0, 22141.0, 22139.0, 22101.0, 22035.0, 22006.0, 21987.0, 21992.0, 21992.0, 21989.0, 21983.0, 22019.0, 22040.0, 22061.0, 22038.0, 21994.0, 21984.0, 21963.0, 21962.0, 21977.0, 21996.0, 21997.0, 21979.0, 21975.0, 21951.0, 21905.0, 21904.0, 21895.0, 21891.0, 21908.0, 21912.0, 21890.0, 21885.0, 21873.0, 21867.0, 21878.0, 21900.0, 21908.0, 21899.0, 21891.0, 21876.0, 21885.0, 21906.0, 21967.0, 22019.0, 22021.0, 21991.0, 21949.0, 21932.0, 21897.0, 21912.0, 21948.0, 21969.0, 22000.0, 21972.0, 21964.0, 21973.0, 21964.0, 21964.0, 21958.0, 21991.0, 22015.0, 22025.0, 22008.0, 21983.0, 21967.0, 21974.0, 22002.0, 21986.0, 21969.0, 21992.0, 22002.0, 21987.0, 21942.0, 21896.0, 21833.0, 21773.0, 21727.0, 21777.0, 21821.0, 21869.0, 21874.0, 21875.0, 21891.0, 21850.0, 21836.0, 21853.0, 21860.0, 21843.0, 21862.0, 21872.0, 21868.0, 21878.0, 21892.0, 21926.0, 21935.0, 21980.0, 21993.0, 21998.0, 21974.0, 21956.0, 21941.0, 21904.0, 21892.0, 21875.0, 21885.0, 21899.0, 21922.0, 21922.0, 21914.0, 21929.0, 21931.0, 21955.0, 21988.0, 22008.0, 22019.0, 22033.0, 22025.0, 22017.0, 22042.0, 22081.0, 22068.0, 22101.0, 22101.0, 22114.0, 22099.0, 22110.0, 22124.0, 22153.0, 22122.0, 22058.0, 22036.0, 22027.0, 22038.0, 22084.0, 22088.0, 22059.0, 22022.0, 21988.0, 21948.0, 21923.0, 21916.0, 21899.0, 21887.0, 21919.0, 21916.0, 21920.0, 21928.0, 21927.0, 21950.0, 21968.0, 21981.0, 21993.0, 22031.0, 22046.0, 22054.0, 22037.0, 22012.0, 21987.0, 21970.0, 21968.0, 21963.0, 22000.0, 22036.0, 22062.0, 22063.0, 22059.0, 22024.0, 22012.0, 21988.0, 21981.0]
    },
    "slices": {}
  },
  "NumberOfVolumes": 192
}