{
  "AcquisitionMatrixPE": 104,
  "AcquisitionNumber": 1,
  "AcquisitionTime": "16:41:18.465000",
  "BandwidthPerPixelPhaseEncode": 16.578,
  "BaseResolution": 104,
  "BodyPartExamined": "BRAIN",
  "ConsistencyInfo": "N4_VE11C_LATEST_20160120",
  "ConversionSoftware": "dcm2niix",
  "ConversionSoftwareVersion": "v1.0.20190902",
  "DerivedVendorReportedEchoSpacing": 0.000580009,
  "DeviceSerialNumber": "166018",
  "DwellTime": 2.1e-06,
  "EchoTime": 0.037,
  "EchoTrainLength": 104,
  "EffectiveEchoSpacing": 0.000580009,
  "FlipAngle": 68,
  "ImageComments": "Unaliased_MB6_PE3_LB",
  "ImageOrientationPatientDICOM": [0.998425, -0.054405, 0.0137063, 0.0559954, 0.981542, -0.182868],
  "ImageType": [
    "ORIGINAL",
    "PRIMARY",
    "M",
    "MB",
    "ND",
    "MOSAIC"
],
  "ImagingFrequency": 123.191,
  "InPlanePhaseEncodingDirectionDICOM": "COL",
  "InstitutionAddress": "Washington_Place_6_NYC_NYC_US_10003",
  "InstitutionName": "NYU_-_CBI",
  "InstitutionalDepartmentName": "Department",
  "MRAcquisitionType": "2D",
  "MagneticFieldStrength": 3,
  "Manufacturer": "Siemens",
  "ManufacturersModelName": "Prisma",
  "Modality": "MR",
  "MultibandAccelerationFactor": 6,
  "PartialFourier": 1,
  "PatientPosition": "HFS",
  "PercentPhaseFOV": 100,
  "PhaseEncodingDirection": "j",
  "PhaseEncodingSteps": 104,
  "PhaseResolution": 1,
  "PixelBandwidth": 2290,
  "ProcedureStepDescription": "Investigators_Winawer",
  "ProtocolName": "cmrr_mbepi_s6_2mm_66sl_PA_task-prf",
  "PulseSequenceDetails": "%CustomerSeq%_cmrr_mbep2d_bold",
  "ReceiveCoilActiveElements": "HC1-7",
  "ReceiveCoilName": "HeadNeck_64",
  "ReconMatrixPE": 104,
  "RepetitionTime": 1,
  "SAR": 0.0600187,
  "ScanOptions": "FS",
  "ScanningSequence": "EP",
  "SequenceName": "epfid2d1_104",
  "SequenceVariant": "SK_SS",
  "SeriesDescription": "cmrr_mbepi_s6_2mm_66sl_PA_task-prf",
  "SeriesNumber": 14,
  "ShimSetting": [262, -12688, -8435, 421, 14, -313, -190, 51],
  "SliceThickness": 2,
  "SliceTiming": [0, 0.5325, 0.0875, 0.6225, 0.1775, 0.7125, 0.265, 0.8, 0.355, 0.89, 0.445, 0, 0.5325, 0.0875, 0.6225, 0.1775, 0.7125, 0.265, 0.8, 0.355, 0.89, 0.445, 0, 0.5325, 0.0875, 0.6225, 0.1775, 0.7125, 0.265, 0.8, 0.355, 0.89, 0.445, 0, 0.5325, 0.0875, 0.6225, 0.1775, 0.7125, 0.265, 0.8, 0.355, 0.89, 0.445, 0, 0.5325, 0.0875, 0.6225, 0.1775, 0.7125, 0.265, 0.8, 0.355, 0.89, 0.445, 0, 0.5325, 0.0875, 0.6225, 0.1775, 0.7125, 0.265, 0.8, 0.355, 0.89, 0.445],
  "SoftwareVersions": "syngo_MR_E11",
  "SpacingBetweenSlices": 2,
  "StationName": "AWP166018",
  "TaskName": "prf",
  "TotalReadoutTime": 0.0597409,
  "TxRefAmp": 214.703,
  "WipMemBlock": "bd7e540e-8c16-45af-9d0f-ce19cea88b1b||Sequence: R016 ve11c/master r/8780670; Nov 27 2017 15:05:12 by eja",
  "dcmmeta_affine": [
    [-1.996849775314331, 0.11199085414409637, 0.00700881564989686, 105.56240844726562],
    [0.10881001502275467, 1.963083028793335, -0.3666951060295105, -80.43143463134766],
    [0.027412692084908485, 0.365736186504364, 1.9660837650299072, -59.48920822143555],
    [0.0, 0.0, 0.0, 1.0]
],
  "dcmmeta_reorient_transform": [
    [0.0, -1.0, 0.0, 103.0],
    [1.0, 0.0, 0.0, 0.0],
    [0.0, 0.0, 1.0, 0.0],
    [0.0, 0.0, 0.0, 1.0]
],
  "dcmmeta_shape": [104, 104, 66, 192],
  "dcmmeta_slice_dim": 2,
  "dcmmeta_version": 0.6,
  "global": {
    "const": {
      "AccessionNumber": "K3FZJ5YA",
      "AcquisitionMatrix": [104, 0, 0, 104],
      "AngioFlag": "N",
      "BitsAllocated": 16,
      "BitsStored": 16,
      "BodyPartExamined": "BRAIN",
      "Columns": 936,
      "EchoNumbers": 1,
      "EchoTime": 37.0,
      "EchoTrainLength": 104,
      "FlipAngle": 68.0,
      "HighBit": 15,
      "ImageOrientationPatient": [0.9984248751527, -0.0544050067007, 0.01370634605616, 0.05599542661683, 0.98154152815794, -0.1828680964503],
      "ImagePositionPatient": [-994.37515565681, -893.143703838, 118.9241968919],
      "ImageType": [
        "ORIGINAL",
        "PRIMARY",
        "M",
        "MB",
        "ND",
        "MOSAIC"
],
      "ImagedNucleus": "1H",
      "ImagingFrequency": 123.190738,
      "InPlanePhaseEncodingDirection": "COL",
      "MRAcquisitionType": "2D",
      "MagneticFieldStrength": 3.0,
      "Manufacturer": "SIEMENS",
      "ManufacturerModelName": "Prisma",
      "Modality": "MR",
      "NumberOfAverages": 1.0,
      "NumberOfPhaseEncodingSteps": 104,
      "PercentPhaseFieldOfView": 100.0,
      "PercentSampling": 100.0,
      "PerformedProcedureStepStartTime": "161424.654000",
      "PhotometricInterpretation": "MONOCHROME2",
      "PixelBandwidth": 2290.0,
      "PixelRepresentation": 0,
      "PixelSpacing": [2.0, 2.0],
      "ProtocolName": "cmrr_mbepi_s6_2mm_66sl_PA_task-prf",
      "RepetitionTime": 1000.0,
      "Rows": 936,
      "SAR": 0.06001870760341,
      "SamplesPerPixel": 1,
      "ScanOptions": "FS",
      "ScanningSequence": "EP",
      "SequenceName": "epfid2d1_104",
      "SequenceVariant": [
        "SK",
        "SS"
],
      "SeriesDescription": "cmrr_mbepi_s6_2mm_66sl_PA_task-prf",
      "SeriesNumber": 14,
      "SeriesTime": "164224.541000",
      "SliceLocation": -43.363543396476,
      "SliceThickness": 2.0,
      "SmallestImagePixelValue": 0,
      "SoftwareVersions": "syngo MR E11",
      "SpacingBetweenSlices": 2.00000000109,
      "SpecificCharacterSet": "ISO_IR 100",
      "StudyID": "1",
      "StudyTime": "161424.601000",
      "TransmitCoilName": "Body",
      "VariableFlipAngleFlag": "N",
      "WindowCenterWidthExplanation": "Algo1",
      "dBdt": 0.0},
    "slices": {}
  },
  "time": {
    "samples": {
      "AcquisitionNumber": [1, 2, 3, 4, 5, 6, 7, 8, 9, 10, 11, 12, 13, 14, 15, 16, 17, 18, 19, 20, 21, 22, 23, 24, 25, 26, 27, 28, 29, 30, 31, 32, 33, 34, 35, 36, 37, 38, 39, 40, 41, 42, 43, 44, 45, 46, 47, 48, 49, 50, 51, 52, 53, 54, 55, 56, 57, 58, 59, 60, 61, 62, 63, 64, 65, 66, 67, 68, 69, 70, 71, 72, 73, 74, 75, 76, 77, 78, 79, 80, 81, 82, 83, 84, 85, 86, 87, 88, 89, 90, 91, 92, 93, 94, 95, 96, 97, 98, 99, 100, 101, 102, 103, 104, 105, 106, 107, 108, 109, 110, 111, 112, 113, 114, 115, 116, 117, 118, 119, 120, 121, 122, 123, 124, 125, 126, 127, 128, 129, 130, 131, 132, 133, 134, 135, 136, 137, 138, 139, 140, 141, 142, 143, 144, 145, 146, 147, 148, 149, 150, 151, 152, 153, 154, 155, 156, 157, 158, 159, 160, 161, 162, 163, 164, 165, 166, 167, 168, 169, 170, 171, 172, 173, 174, 175, 176, 177, 178, 179, 180, 181, 182, 183, 184, 185, 186, 187, 188, 189, 190, 191, 192],
      "AcquisitionTime": ["164118.465000", "164119.465000", "164120.465000", "164121.465000", "164122.465000", "164123.465000", "164124.465000", "164125.465000", "164126.465000", "164127.465000", "164128.465000", "164129.465000", "164130.465000", "164131.465000", "164132.465000", "164133.465000", "164134.465000", "164135.465000", "164136.465000", "164137.465000", "164138.465000", "164139.465000", "164140.465000", "164141.465000", "164142.465000", "164143.465000", "164144.465000", "164145.465000", "164146.465000", "164147.465000", "164148.465000", "164149.465000", "164150.465000", "164151.465000", "164152.465000", "164153.465000", "164154.465000", "164155.465000", "164156.465000", "164157.465000", "164158.465000", "164159.465000", "164200.465000", "164201.465000", "164202.465000", "164203.465000", "164204.465000", "164205.465000", "164206.465000", "164207.465000", "164208.465000", "164209.465000", "164210.465000", "164211.465000", "164212.465000", "164213.465000", "164214.465000", "164215.465000", "164216.465000", "164217.465000", "164218.465000", "164219.465000", "164220.465000", "164221.465000", "164222.465000", "164223.465000", "164224.465000", "164225.465000", "164226.465000", "164227.465000", "164228.465000", "164229.465000", "164230.465000", "164231.465000", "164232.465000", "164233.465000", "164234.465000", "164235.465000", "164236.465000", "164237.465000", "164238.465000", "164239.465000", "164240.465000", "164241.465000", "164242.465000", "164243.465000", "164244.465000", "164245.465000", "164246.465000", "164247.465000", "164248.465000", "164249.465000", "164250.465000", "164251.465000", "164252.465000", "164253.465000", "164254.465000", "164255.465000", "164256.465000", "164257.465000", "164258.465000", "164259.465000", "164300.465000", "164301.465000", "164302.465000", "164303.465000", "164304.465000", "164305.465000", "164306.465000", "164307.465000", "164308.465000", "164309.465000", "164310.465000", "164311.465000", "164312.465000", "164313.465000", "164314.465000", "164315.465000", "164316.465000", "164317.465000", "164318.465000", "164319.465000", "164320.465000", "164321.465000", "164322.465000", "164323.465000", "164324.465000", "164325.465000", "164326.465000", "164327.465000", "164328.465000", "164329.465000", "164330.465000", "164331.465000", "164332.465000", "164333.465000", "164334.465000", "164335.465000", "164336.465000", "164337.465000", "164338.465000", "164339.465000", "164340.465000", "164341.465000", "164342.465000", "164343.465000", "164344.465000", "164345.465000", "164346.465000", "164347.465000", "164348.465000", "164349.465000", "164350.465000", "164351.465000", "164352.465000", "164353.465000", "164354.465000", "164355.465000", "164356.465000", "164357.465000", "164358.465000", "164359.465000", "164400.465000", "164401.465000", "164402.465000", "164403.465000", "164404.465000", "164405.465000", "164406.465000", "164407.465000", "164408.465000", "164409.465000", "164410.465000", "164411.465000", "164412.465000", "164413.465000", "164414.465000", "164415.465000", "164416.465000", "164417.465000", "164418.465000", "164419.465000", "164420.465000", "164421.465000", "164422.465000", "164423.465000", "164424.465000", "164425.465000", "164426.465000", "164427.465000", "164428.465000", "164429.465000"],
      "ContentTime": ["164224.543000", "164224.547000", "164224.550000", "164224.553000", "164224.565000", "164224.570000", "164224.576000", "164224.579000", "164224.582000", "164224.585000", "164224.588000", "164224.591000", "164224.594000", "164224.597000", "164224.599000", "164224.602000", "164224.605000", "164224.608000", "164224.611000", "164224.614000", "164224.617000", "164224.620000", "164224.623000", "164224.626000", "164244.516000", "164244.519000", "164244.522000", "164244.531000", "164244.534000", "164244.537000", "164244.539000", "164244.542000", "164244.545000", "164244.548000", "164244.552000", "164244.555000", "164244.558000", "164244.561000", "164244.564000", "164244.567000", "164244.570000", "164244.572000", "164244.575000", "164244.578000", "164244.581000", "164244.584000", "164244.587000", "164244.590000", "164244.593000", "164244.595000", "164244.598000", "164244.601000", "164244.604000", "164304.516000", "164304.519000", "164304.522000", "164304.525000", "164304.528000", "164304.530000", "164304.533000", "164304.536000", "164304.539000", "164304.542000", "164304.545000", "164304.549000", "164304.552000", "164304.555000", "164304.558000", "164304.561000", "164304.564000", "164304.567000", "164304.570000", "164304.573000", "164304.575000", "164304.578000", "164304.581000", "164304.584000", "164304.587000", "164304.590000", "164304.593000", "164304.596000", "164324.516000", "164324.519000", "164324.522000", "164324.525000", "164324.527000", "164324.530000", "164324.533000", "164324.536000", "164324.539000", "164324.545000", "164324.549000", "164324.552000", "164324.555000", "164324.558000", "164324.561000", "164324.564000", "164324.567000", "164324.570000", "164324.572000", "164324.575000", "164324.578000", "164324.581000", "164324.584000", "164324.587000", "164324.590000", "164324.593000", "164324.596000", "164324.598000", "164324.601000", "164344.525000", "164344.528000", "164344.531000", "164344.534000", "164344.537000", "164344.540000", "164344.543000", "164344.546000", "164344.550000", "164344.556000", "164344.559000", "164344.562000", "164344.565000", "164344.568000", "164344.571000", "164344.574000", "164344.577000", "164344.580000", "164344.582000", "164344.585000", "164344.588000", "164344.591000", "164344.594000", "164344.597000", "164344.600000", "164344.603000", "164344.606000", "164344.609000", "164404.516000", "164404.519000", "164404.522000", "164404.525000", "164404.528000", "164404.530000", "164404.533000", "164404.536000", "164404.539000", "164404.542000", "164404.545000", "164404.549000", "164404.552000", "164404.555000", "164404.558000", "164404.561000", "164404.564000", "164404.567000", "164404.570000", "164404.573000", "164404.575000", "164404.578000", "164404.581000", "164404.584000", "164404.587000", "164404.590000", "164404.593000", "164424.515000", "164424.518000", "164424.521000", "164424.524000", "164424.527000", "164424.529000", "164424.532000", "164424.535000", "164424.538000", "164424.541000", "164424.544000", "164424.548000", "164424.552000", "164424.555000", "164424.557000", "164424.560000", "164424.563000", "164424.566000", "164424.569000", "164424.572000", "164430.740000", "164430.743000", "164430.746000", "164430.751000", "164430.755000", "164430.759000", "164430.765000"],
      "InstanceCreationTime": ["164224.543000", "164224.547000", "164224.550000", "164224.553000", "164224.565000", "164224.570000", "164224.576000", "164224.579000", "164224.582000", "164224.585000", "164224.588000", "164224.591000", "164224.594000", "164224.597000", "164224.599000", "164224.602000", "164224.605000", "164224.608000", "164224.611000", "164224.614000", "164224.617000", "164224.620000", "164224.623000", "164224.626000", "164244.516000", "164244.519000", "164244.522000", "164244.531000", "164244.534000", "164244.537000", "164244.539000", "164244.542000", "164244.545000", "164244.548000", "164244.552000", "164244.555000", "164244.558000", "164244.561000", "164244.564000", "164244.567000", "164244.570000", "164244.572000", "164244.575000", "164244.578000", "164244.581000", "164244.584000", "164244.587000", "164244.590000", "164244.593000", "164244.595000", "164244.598000", "164244.601000", "164244.604000", "164304.516000", "164304.519000", "164304.522000", "164304.525000", "164304.528000", "164304.530000", "164304.533000", "164304.536000", "164304.539000", "164304.542000", "164304.545000", "164304.549000", "164304.552000", "164304.555000", "164304.558000", "164304.561000", "164304.564000", "164304.567000", "164304.570000", "164304.573000", "164304.575000", "164304.578000", "164304.581000", "164304.584000", "164304.587000", "164304.590000", "164304.593000", "164304.596000", "164324.516000", "164324.519000", "164324.522000", "164324.525000", "164324.527000", "164324.530000", "164324.533000", "164324.536000", "164324.539000", "164324.545000", "164324.549000", "164324.552000", "164324.555000", "164324.558000", "164324.561000", "164324.564000", "164324.567000", "164324.570000", "164324.572000", "164324.575000", "164324.578000", "164324.581000", "164324.584000", "164324.587000", "164324.590000", "164324.593000", "164324.596000", "164324.598000", "164324.601000", "164344.525000", "164344.528000", "164344.531000", "164344.534000", "164344.537000", "164344.540000", "164344.543000", "164344.546000", "164344.550000", "164344.556000", "164344.559000", "164344.562000", "164344.565000", "164344.568000", "164344.571000", "164344.574000", "164344.577000", "164344.580000", "164344.582000", "164344.585000", "164344.588000", "164344.591000", "164344.594000", "164344.597000", "164344.600000", "164344.603000", "164344.606000", "164344.609000", "164404.516000", "164404.519000", "164404.522000", "164404.525000", "164404.528000", "164404.530000", "164404.533000", "164404.536000", "164404.539000", "164404.542000", "164404.545000", "164404.549000", "164404.552000", "164404.555000", "164404.558000", "164404.561000", "164404.564000", "164404.567000", "164404.570000", "164404.573000", "164404.575000", "164404.578000", "164404.581000", "164404.584000", "164404.587000", "164404.590000", "164404.593000", "164424.515000", "164424.518000", "164424.521000", "164424.524000", "164424.527000", "164424.529000", "164424.532000", "164424.535000", "164424.538000", "164424.541000", "164424.544000", "164424.548000", "164424.552000", "164424.555000", "164424.557000", "164424.560000", "164424.563000", "164424.566000", "164424.569000", "164424.572000", "164430.740000", "164430.743000", "164430.746000", "164430.751000", "164430.755000", "164430.759000", "164430.765000"],
      "InstanceNumber": [1, 2, 3, 4, 5, 6, 7, 8, 9, 10, 11, 12, 13, 14, 15, 16, 17, 18, 19, 20, 21, 22, 23, 24, 25, 26, 27, 28, 29, 30, 31, 32, 33, 34, 35, 36, 37, 38, 39, 40, 41, 42, 43, 44, 45, 46, 47, 48, 49, 50, 51, 52, 53, 54, 55, 56, 57, 58, 59, 60, 61, 62, 63, 64, 65, 66, 67, 68, 69, 70, 71, 72, 73, 74, 75, 76, 77, 78, 79, 80, 81, 82, 83, 84, 85, 86, 87, 88, 89, 90, 91, 92, 93, 94, 95, 96, 97, 98, 99, 100, 101, 102, 103, 104, 105, 106, 107, 108, 109, 110, 111, 112, 113, 114, 115, 116, 117, 118, 119, 120, 121, 122, 123, 124, 125, 126, 127, 128, 129, 130, 131, 132, 133, 134, 135, 136, 137, 138, 139, 140, 141, 142, 143, 144, 145, 146, 147, 148, 149, 150, 151, 152, 153, 154, 155, 156, 157, 158, 159, 160, 161, 162, 163, 164, 165, 166, 167, 168, 169, 170, 171, 172, 173, 174, 175, 176, 177, 178, 179, 180, 181, 182, 183, 184, 185, 186, 187, 188, 189, 190, 191, 192],
      "LargestImagePixelValue": [40901, 40135, 39989, 39979, 40065, 39887, 39835, 39284, 39908, 40924, 40598, 40484, 40191, 40745, 40234, 40436, 40459, 40675, 41305, 40736, 41497, 41034, 41290, 41660, 41309, 41362, 41769, 41224, 41010, 40980, 40375, 41151, 41958, 41385, 40908, 40831, 41518, 41362, 41784, 41327, 40779, 41167, 40960, 42056, 42215, 41008, 40962, 40844, 41895, 41972, 41420, 41832, 41700, 40900, 40959, 41627, 41805, 41968, 41813, 41479, 41525, 41220, 41252, 41069, 41184, 42005, 41231, 40461, 40749, 42061, 41933, 41136, 41203, 41365, 41637, 42061, 41744, 42049, 41478, 40537, 42423, 41346, 41306, 41490, 41753, 41484, 41731, 41489, 40706, 40784, 41466, 41500, 41443, 40616, 41846, 41451, 41636, 40748, 39676, 40207, 39914, 41638, 41610, 40940, 41315, 41860, 41913, 40944, 41185, 41547, 40933, 40458, 40007, 40618, 41072, 40503, 41131, 41563, 41427, 41128, 41636, 41065, 40370, 40833, 41464, 40861, 41315, 40955, 41494, 41849, 40739, 40427, 41815, 41671, 41971, 41696, 41567, 41687, 41189, 40767, 41816, 41621, 40414, 39824, 40135, 41464, 41296, 40847, 42114, 41941, 41581, 41141, 41110, 41177, 40767, 40909, 40624, 40429, 41196, 41823, 41762, 41715, 40461, 39433, 39518, 40365, 41435, 41360, 41033, 40430, 41395, 41206, 40408, 40385, 41054, 40952, 40273, 41397, 41353, 40658, 40470, 41225, 40115, 40054, 40927, 41122, 41047, 40744, 41276, 40936, 40967, 40580],
      "WindowCenter": [10250.0, 10206.0, 10196.0, 10186.0, 10178.0, 10171.0, 10166.0, 10164.0, 10169.0, 10192.0, 10195.0, 10207.0, 10203.0, 10202.0, 10201.0, 10201.0, 10197.0, 10209.0, 10220.0, 10216.0, 10220.0, 10217.0, 10222.0, 10219.0, 10210.0, 10204.0, 10213.0, 10210.0, 10212.0, 10211.0, 10194.0, 10195.0, 10206.0, 10210.0, 10213.0, 10220.0, 10225.0, 10213.0, 10209.0, 10210.0, 10206.0, 10208.0, 10196.0, 10197.0, 10206.0, 10203.0, 10209.0, 10204.0, 10211.0, 10205.0, 10200.0, 10203.0, 10205.0, 10201.0, 10195.0, 10197.0, 10193.0, 10180.0, 10178.0, 10180.0, 10186.0, 10182.0, 10182.0, 10177.0, 10182.0, 10201.0, 10206.0, 10202.0, 10198.0, 10200.0, 10209.0, 10214.0, 10214.0, 10206.0, 10195.0, 10200.0, 10201.0, 10202.0, 10211.0, 10194.0, 10205.0, 10192.0, 10188.0, 10193.0, 10194.0, 10199.0, 10194.0, 10203.0, 10195.0, 10192.0, 10186.0, 10171.0, 10172.0, 10162.0, 10177.0, 10186.0, 10193.0, 10184.0, 10160.0, 10138.0, 10108.0, 10103.0, 10106.0, 10129.0, 10151.0, 10173.0, 10176.0, 10170.0, 10159.0, 10154.0, 10145.0, 10151.0, 10145.0, 10134.0, 10123.0, 10109.0, 10132.0, 10153.0, 10163.0, 10158.0, 10156.0, 10152.0, 10140.0, 10136.0, 10137.0, 10125.0, 10133.0, 10132.0, 10144.0, 10151.0, 10146.0, 10140.0, 10159.0, 10149.0, 10152.0, 10154.0, 10172.0, 10175.0, 10170.0, 10154.0, 10161.0, 10165.0, 10163.0, 10148.0, 10125.0, 10128.0, 10129.0, 10140.0, 10165.0, 10173.0, 10168.0, 10149.0, 10139.0, 10148.0, 10141.0, 10135.0, 10132.0, 10129.0, 10145.0, 10165.0, 10181.0, 10191.0, 10192.0, 10159.0, 10126.0, 10106.0, 10122.0, 10142.0, 10163.0, 10160.0, 10163.0, 10164.0, 10148.0, 10140.0, 10127.0, 10127.0, 10121.0, 10138.0, 10141.0, 10137.0, 10124.0, 10123.0, 10112.0, 10115.0, 10132.0, 10147.0, 10151.0, 10145.0, 10135.0, 10126.0, 10119.0, 10122.0],
      "WindowWidth": [22196.0, 22066.0, 22022.0, 21990.0, 21970.0, 21954.0, 21939.0, 21932.0, 21941.0, 21987.0, 21999.0, 22028.0, 22020.0, 22020.0, 22018.0, 22017.0, 22006.0, 22030.0, 22053.0, 22049.0, 22058.0, 22051.0, 22061.0, 22052.0, 22030.0, 22015.0, 22033.0, 22032.0, 22037.0, 22032.0, 21995.0, 21996.0, 22021.0, 22033.0, 22043.0, 22058.0, 22068.0, 22043.0, 22029.0, 22031.0, 22023.0, 22026.0, 21999.0, 21999.0, 22018.0, 22015.0, 22029.0, 22018.0, 22028.0, 22015.0, 22003.0, 22008.0, 22016.0, 22012.0, 21999.0, 22001.0, 21988.0, 21957.0, 21951.0, 21955.0, 21969.0, 21960.0, 21962.0, 21953.0, 21964.0, 22004.0, 22019.0, 22014.0, 22002.0, 22004.0, 22026.0, 22043.0, 22044.0, 22022.0, 21994.0, 22001.0, 22005.0, 22009.0, 22030.0, 21997.0, 22014.0, 21987.0, 21978.0, 21986.0, 21991.0, 22002.0, 21993.0, 22013.0, 22001.0, 21991.0, 21971.0, 21936.0, 21935.0, 21915.0, 21947.0, 21968.0, 21987.0, 21969.0, 21917.0, 21861.0, 21788.0, 21770.0, 21778.0, 21835.0, 21887.0, 21937.0, 21946.0, 21934.0, 21903.0, 21889.0, 21873.0, 21888.0, 21875.0, 21846.0, 21817.0, 21787.0, 21839.0, 21891.0, 21916.0, 21905.0, 21898.0, 21891.0, 21865.0, 21853.0, 21851.0, 21827.0, 21844.0, 21842.0, 21867.0, 21884.0, 21878.0, 21865.0, 21903.0, 21883.0, 21889.0, 21895.0, 21936.0, 21945.0, 21935.0, 21900.0, 21910.0, 21920.0, 21920.0, 21886.0, 21832.0, 21827.0, 21831.0, 21861.0, 21917.0, 21938.0, 21923.0, 21880.0, 21859.0, 21875.0, 21863.0, 21849.0, 21842.0, 21836.0, 21871.0, 21917.0, 21955.0, 21983.0, 21989.0, 21914.0, 21832.0, 21785.0, 21815.0, 21863.0, 21918.0, 21913.0, 21919.0, 21918.0, 21883.0, 21861.0, 21829.0, 21830.0, 21819.0, 21856.0, 21863.0, 21857.0, 21826.0, 21820.0, 21802.0, 21806.0, 21844.0, 21880.0, 21889.0, 21877.0, 21850.0, 21827.0, 21811.0, 21820.0]
    },
    "slices": {}
  },
  "NumberOfVolumes": 192
}