{
  "AcquisitionMatrixPE": 104,
  "AcquisitionNumber": 1,
  "AcquisitionTime": "11:48:30.132500",
  "BandwidthPerPixelPhaseEncode": 16.297,
  "BaseResolution": 104,
  "BodyPartExamined": "BRAIN",
  "ConsistencyInfo": "N4_VE11C_LATEST_20160120",
  "ConversionSoftware": "dcm2niix",
  "ConversionSoftwareVersion": "v1.0.20210317",
  "DerivedVendorReportedEchoSpacing": 0.000590009,
  "DeviceSerialNumber": "166018",
  "DwellTime": 2.1e-06,
  "EchoTime": 0.0376,
  "EchoTrainLength": 104,
  "EffectiveEchoSpacing": 0.000590009,
  "FlipAngle": 68,
  "ImageComments": "Unaliased MB6/PE3/LB",
  "ImageOrientationPatientDICOM": [0.997944, -0.0571732, 0.0289565, 0.0587644, 0.996617, -0.0574616],
  "ImageType": [
    "ORIGINAL",
    "PRIMARY",
    "M",
    "MB",
    "ND",
    "MOSAIC"
],
  "ImagingFrequency": 123.197,
  "InPlanePhaseEncodingDirectionDICOM": "COL",
  "InstitutionAddress": "Washington Place 6,NYC,NYC,US,10003",
  "InstitutionName": "NYU - CBI",
  "InstitutionalDepartmentName": "Department",
  "MRAcquisitionType": "2D",
  "MagneticFieldStrength": 3,
  "Manufacturer": "Siemens",
  "ManufacturersModelName": "Prisma",
  "Modality": "MR",
  "MultibandAccelerationFactor": 6,
  "PartialFourier": 1,
  "PatientPosition": "HFS",
  "PercentPhaseFOV": 100,
  "PercentSampling": 100,
  "PhaseEncodingDirection": "j",
  "PhaseEncodingSteps": 104,
  "PhaseResolution": 1,
  "PixelBandwidth": 2290,
  "ProcedureStepDescription": "Investigators^Winawer",
  "ProtocolName": "cmrr_mbepi_s6_2mm_66sl_PA_task-wedgering2",
  "PulseSequenceDetails": "%CustomerSeq%\\cmrr_mbep2d_bold",
  "ReceiveCoilActiveElements": "HC1-7",
  "ReceiveCoilName": "HeadNeck_64",
  "ReconMatrixPE": 104,
  "RepetitionTime": 1,
  "SAR": 0.0638816,
  "ScanOptions": "FS",
  "ScanningSequence": "EP",
  "SequenceName": "epfid2d1_104",
  "SequenceVariant": "SK\\SS",
  "SeriesDescription": "cmrr_mbepi_s6_2mm_66sl_PA_task-wedgering2",
  "SeriesNumber": 14,
  "ShimSetting": [295, -12683, -8538, 245, 1, -243, -221, 45],
  "SliceThickness": 2,
  "SliceTiming": [0, 0.5325, 0.0875, 0.6225, 0.1775, 0.7125, 0.265, 0.8, 0.355, 0.89, 0.445, 0, 0.5325, 0.0875, 0.6225, 0.1775, 0.7125, 0.265, 0.8, 0.355, 0.89, 0.445, 0, 0.5325, 0.0875, 0.6225, 0.1775, 0.7125, 0.265, 0.8, 0.355, 0.89, 0.445, 0, 0.5325, 0.0875, 0.6225, 0.1775, 0.7125, 0.265, 0.8, 0.355, 0.89, 0.445, 0, 0.5325, 0.0875, 0.6225, 0.1775, 0.7125, 0.265, 0.8, 0.355, 0.89, 0.445, 0, 0.5325, 0.0875, 0.6225, 0.1775, 0.7125, 0.265, 0.8, 0.355, 0.89, 0.445],
  "SoftwareVersions": "syngo MR E11",
  "SpacingBetweenSlices": 2,
  "StationName": "AWP166018",
  "TaskName": "wedgering2",
  "TotalReadoutTime": 0.060771,
  "TxRefAmp": 206.267,
  "VendorReportedEchoSpacing": 0.00059,
  "WipMemBlock": "c2b9c9ad-dac3-4f63-94cc-020a9f727f02||Sequence: R016 ve11c/master r/8780670; Nov 27 2017 15:05:12 by eja",
  "dcmmeta_affine": [
    [-1.9958884716033936, 0.11752887070178986, 0.05114645138382912, 103.26673126220703],
    [0.11434636265039444, 1.9932334423065186, -0.11809025704860687, -86.39984130859375],
    [0.0579129159450531, 0.11492329090833664, 1.995855450630188, -53.27383804321289],
    [0.0, 0.0, 0.0, 1.0]
],
  "dcmmeta_reorient_transform": [
    [0.0, -1.0, 0.0, 103.0],
    [1.0, 0.0, 0.0, 0.0],
    [0.0, 0.0, 1.0, 0.0],
    [0.0, 0.0, 0.0, 1.0]
],
  "dcmmeta_shape": [104, 104, 66, 300],
  "dcmmeta_slice_dim": 2,
  "dcmmeta_version": 0.6,
  "global": {
    "const": {
      "AccessionNumber": "Lekxxqqx",
      "AcquisitionMatrix": [104, 0, 0, 104],
      "AngioFlag": "N",
      "BitsAllocated": 16,
      "BitsStored": 16,
      "BodyPartExamined": "BRAIN",
      "Columns": 936,
      "EchoNumbers": 1,
      "EchoTime": 37.6,
      "EchoTrainLength": 104,
      "FlipAngle": 68.0,
      "HighBit": 15,
      "ImageOrientationPatient": [0.99794426253117, -0.0571731795129, 0.02895645740589, 0.05876443697733, 0.99661672684829, -0.0574616455815],
      "ImagePositionPatient": [-994.55384625711, -900.5202329988, -17.720423317113],
      "ImageType": [
        "ORIGINAL",
        "PRIMARY",
        "M",
        "MB",
        "ND",
        "MOSAIC"
],
      "ImagedNucleus": "1H",
      "ImagingFrequency": 123.196837,
      "InPlanePhaseEncodingDirection": "COL",
      "MRAcquisitionType": "2D",
      "MagneticFieldStrength": 3.0,
      "Manufacturer": "SIEMENS",
      "ManufacturerModelName": "Prisma",
      "Modality": "MR",
      "NumberOfAverages": 1.0,
      "NumberOfPhaseEncodingSteps": 104,
      "PercentPhaseFieldOfView": 100.0,
      "PercentSampling": 100.0,
      "PerformedProcedureStepStartTime": "111721.138000",
      "PhotometricInterpretation": "MONOCHROME2",
      "PixelBandwidth": 2290.0,
      "PixelRepresentation": 0,
      "PixelSpacing": [2.0, 2.0],
      "ProtocolName": "cmrr_mbepi_s6_2mm_66sl_PA_task-wedgering2",
      "RepetitionTime": 1000.0,
      "Rows": 936,
      "SAR": 0.06388163669348,
      "SamplesPerPixel": 1,
      "ScanOptions": "FS",
      "ScanningSequence": "EP",
      "SequenceName": "epfid2d1_104",
      "SequenceVariant": [
        "SK",
        "SS"
],
      "SeriesDescription": "cmrr_mbepi_s6_2mm_66sl_PA_task-wedgering2",
      "SeriesNumber": 14,
      "SeriesTime": "114945.130000",
      "SliceLocation": -45.421085792938,
      "SliceThickness": 2.0,
      "SmallestImagePixelValue": 0,
      "SoftwareVersions": "syngo MR E11",
      "SpacingBetweenSlices": 2.0000000311807,
      "SpecificCharacterSet": "ISO_IR 100",
      "StudyID": "1",
      "StudyTime": "111721.076000",
      "TransmitCoilName": "Body",
      "VariableFlipAngleFlag": "N",
      "WindowCenterWidthExplanation": "Algo1",
      "dBdt": 0.0},
    "slices": {}
  },
  "time": {
    "samples": {
      "AcquisitionNumber": [1, 2, 3, 4, 5, 6, 7, 8, 9, 10, 11, 12, 13, 14, 15, 16, 17, 18, 19, 20, 21, 22, 23, 24, 25, 26, 27, 28, 29, 30, 31, 32, 33, 34, 35, 36, 37, 38, 39, 40, 41, 42, 43, 44, 45, 46, 47, 48, 49, 50, 51, 52, 53, 54, 55, 56, 57, 58, 59, 60, 61, 62, 63, 64, 65, 66, 67, 68, 69, 70, 71, 72, 73, 74, 75, 76, 77, 78, 79, 80, 81, 82, 83, 84, 85, 86, 87, 88, 89, 90, 91, 92, 93, 94, 95, 96, 97, 98, 99, 100, 101, 102, 103, 104, 105, 106, 107, 108, 109, 110, 111, 112, 113, 114, 115, 116, 117, 118, 119, 120, 121, 122, 123, 124, 125, 126, 127, 128, 129, 130, 131, 132, 133, 134, 135, 136, 137, 138, 139, 140, 141, 142, 143, 144, 145, 146, 147, 148, 149, 150, 151, 152, 153, 154, 155, 156, 157, 158, 159, 160, 161, 162, 163, 164, 165, 166, 167, 168, 169, 170, 171, 172, 173, 174, 175, 176, 177, 178, 179, 180, 181, 182, 183, 184, 185, 186, 187, 188, 189, 190, 191, 192, 193, 194, 195, 196, 197, 198, 199, 200, 201, 202, 203, 204, 205, 206, 207, 208, 209, 210, 211, 212, 213, 214, 215, 216, 217, 218, 219, 220, 221, 222, 223, 224, 225, 226, 227, 228, 229, 230, 231, 232, 233, 234, 235, 236, 237, 238, 239, 240, 241, 242, 243, 244, 245, 246, 247, 248, 249, 250, 251, 252, 253, 254, 255, 256, 257, 258, 259, 260, 261, 262, 263, 264, 265, 266, 267, 268, 269, 270, 271, 272, 273, 274, 275, 276, 277, 278, 279, 280, 281, 282, 283, 284, 285, 286, 287, 288, 289, 290, 291, 292, 293, 294, 295, 296, 297, 298, 299, 300],
      "AcquisitionTime": ["114830.132500", "114831.132500", "114832.132500", "114833.132500", "114834.132500", "114835.132500", "114836.132500", "114837.132500", "114838.132500", "114839.132500", "114840.132500", "114841.132500", "114842.132500", "114843.132500", "114844.132500", "114845.132500", "114846.132500", "114847.132500", "114848.132500", "114849.132500", "114850.132500", "114851.132500", "114852.132500", "114853.132500", "114854.132500", "114855.132500", "114856.132500", "114857.132500", "114858.132500", "114859.132500", "114900.132500", "114901.132500", "114902.132500", "114903.132500", "114904.132500", "114905.132500", "114906.132500", "114907.132500", "114908.132500", "114909.132500", "114910.132500", "114911.132500", "114912.132500", "114913.132500", "114914.132500", "114915.132500", "114916.132500", "114917.132500", "114918.132500", "114919.132500", "114920.132500", "114921.132500", "114922.132500", "114923.132500", "114924.132500", "114925.132500", "114926.132500", "114927.132500", "114928.132500", "114929.132500", "114930.132500", "114931.132500", "114932.132500", "114933.132500", "114934.132500", "114935.132500", "114936.132500", "114937.132500", "114938.132500", "114939.132500", "114940.132500", "114941.132500", "114942.132500", "114943.132500", "114944.132500", "114945.132500", "114946.132500", "114947.132500", "114948.132500", "114949.132500", "114950.132500", "114951.132500", "114952.132500", "114953.132500", "114954.132500", "114955.132500", "114956.132500", "114957.132500", "114958.132500", "114959.132500", "115000.132500", "115001.132500", "115002.132500", "115003.132500", "115004.132500", "115005.132500", "115006.132500", "115007.132500", "115008.132500", "115009.132500", "115010.132500", "115011.132500", "115012.132500", "115013.132500", "115014.132500", "115015.132500", "115016.132500", "115017.132500", "115018.132500", "115019.132500", "115020.132500", "115021.132500", "115022.132500", "115023.132500", "115024.132500", "115025.132500", "115026.132500", "115027.132500", "115028.132500", "115029.132500", "115030.132500", "115031.132500", "115032.132500", "115033.132500", "115034.132500", "115035.132500", "115036.132500", "115037.132500", "115038.132500", "115039.132500", "115040.132500", "115041.132500", "115042.132500", "115043.132500", "115044.132500", "115045.132500", "115046.132500", "115047.132500", "115048.132500", "115049.132500", "115050.132500", "115051.132500", "115052.132500", "115053.132500", "115054.132500", "115055.132500", "115056.132500", "115057.132500", "115058.132500", "115059.132500", "115100.132500", "115101.132500", "115102.132500", "115103.132500", "115104.132500", "115105.132500", "115106.132500", "115107.132500", "115108.132500", "115109.132500", "115110.132500", "115111.132500", "115112.132500", "115113.132500", "115114.132500", "115115.132500", "115116.132500", "115117.132500", "115118.132500", "115119.132500", "115120.132500", "115121.132500", "115122.132500", "115123.132500", "115124.132500", "115125.132500", "115126.132500", "115127.132500", "115128.132500", "115129.132500", "115130.132500", "115131.132500", "115132.132500", "115133.132500", "115134.132500", "115135.132500", "115136.132500", "115137.132500", "115138.132500", "115139.132500", "115140.132500", "115141.132500", "115142.132500", "115143.132500", "115144.132500", "115145.132500", "115146.132500", "115147.132500", "115148.132500", "115149.132500", "115150.132500", "115151.132500", "115152.132500", "115153.132500", "115154.132500", "115155.132500", "115156.132500", "115157.132500", "115158.132500", "115159.132500", "115200.132500", "115201.132500", "115202.132500", "115203.132500", "115204.132500", "115205.132500", "115206.132500", "115207.132500", "115208.132500", "115209.132500", "115210.132500", "115211.132500", "115212.132500", "115213.132500", "115214.132500", "115215.132500", "115216.132500", "115217.132500", "115218.132500", "115219.132500", "115220.132500", "115221.132500", "115222.132500", "115223.132500", "115224.132500", "115225.132500", "115226.132500", "115227.132500", "115228.132500", "115229.132500", "115230.132500", "115231.132500", "115232.132500", "115233.132500", "115234.132500", "115235.132500", "115236.132500", "115237.132500", "115238.132500", "115239.132500", "115240.132500", "115241.132500", "115242.132500", "115243.132500", "115244.132500", "115245.132500", "115246.132500", "115247.132500", "115248.132500", "115249.132500", "115250.132500", "115251.132500", "115252.132500", "115253.132500", "115254.132500", "115255.132500", "115256.132500", "115257.132500", "115258.132500", "115259.132500", "115300.132500", "115301.132500", "115302.132500", "115303.132500", "115304.132500", "115305.132500", "115306.132500", "115307.132500", "115308.132500", "115309.132500", "115310.132500", "115311.132500", "115312.132500", "115313.132500", "115314.132500", "115315.132500", "115316.132500", "115317.132500", "115318.132500", "115319.132500", "115320.132500", "115321.132500", "115322.132500", "115323.132500", "115324.132500", "115325.132500", "115326.132500", "115327.132500", "115328.132500", "115329.132500"],
      "ContentTime": ["114945.132000", "114945.142000", "114945.145000", "114945.148000", "114945.151000", "114945.154000", "114945.157000", "114945.160000", "114945.163000", "114945.166000", "114945.169000", "114945.172000", "114945.175000", "114945.178000", "114945.188000", "114945.191000", "114945.194000", "114945.197000", "114945.200000", "114945.203000", "114945.206000", "114945.209000", "114945.212000", "114945.215000", "114945.218000", "114945.221000", "114945.224000", "114945.227000", "114945.230000", "114945.233000", "114945.236000", "114945.239000", "114945.242000", "115005.095000", "115005.098000", "115005.101000", "115005.104000", "115005.107000", "115005.110000", "115005.113000", "115005.116000", "115005.119000", "115005.122000", "115005.131000", "115005.134000", "115005.137000", "115005.140000", "115005.143000", "115005.146000", "115005.150000", "115005.153000", "115005.156000", "115005.159000", "115005.162000", "115005.165000", "115005.168000", "115005.171000", "115005.174000", "115005.177000", "115005.180000", "115005.183000", "115025.095000", "115025.098000", "115025.101000", "115025.104000", "115025.107000", "115025.111000", "115025.114000", "115025.117000", "115025.120000", "115025.124000", "115025.127000", "115025.130000", "115025.133000", "115025.165000", "115025.168000", "115025.171000", "115025.174000", "115025.177000", "115025.180000", "115025.183000", "115025.186000", "115025.189000", "115025.192000", "115025.195000", "115025.198000", "115025.201000", "115025.204000", "115025.207000", "115045.095000", "115045.098000", "115045.101000", "115045.104000", "115045.107000", "115045.110000", "115045.113000", "115045.116000", "115045.119000", "115045.122000", "115045.125000", "115045.128000", "115045.131000", "115045.134000", "115045.137000", "115045.140000", "115045.143000", "115045.146000", "115045.149000", "115045.153000", "115045.156000", "115045.159000", "115045.162000", "115045.165000", "115045.168000", "115045.171000", "115045.174000", "115045.177000", "115045.180000", "115105.096000", "115105.099000", "115105.103000", "115105.106000", "115105.109000", "115105.112000", "115105.115000", "115105.118000", "115105.121000", "115105.124000", "115105.127000", "115105.130000", "115105.133000", "115105.136000", "115105.155000", "115105.158000", "115105.161000", "115105.164000", "115105.167000", "115105.170000", "115105.173000", "115105.176000", "115105.179000", "115105.182000", "115105.185000", "115105.188000", "115105.192000", "115105.195000", "115125.096000", "115125.099000", "115125.102000", "115125.111000", "115125.114000", "115125.117000", "115125.120000", "115125.123000", "115125.126000", "115125.129000", "115125.132000", "115125.135000", "115125.138000", "115125.141000", "115125.145000", "115125.150000", "115125.154000", "115125.159000", "115125.162000", "115125.165000", "115125.168000", "115125.171000", "115125.174000", "115125.177000", "115125.180000", "115125.183000", "115125.186000", "115145.096000", "115145.099000", "115145.102000", "115145.105000", "115145.108000", "115145.111000", "115145.114000", "115145.117000", "115145.121000", "115145.124000", "115145.127000", "115145.130000", "115145.133000", "115145.136000", "115145.139000", "115145.142000", "115145.145000", "115145.148000", "115145.151000", "115145.154000", "115205.095000", "115205.098000", "115205.101000", "115205.104000", "115205.107000", "115205.125000", "115205.128000", "115205.131000", "115205.134000", "115205.137000", "115205.140000", "115205.143000", "115205.146000", "115205.150000", "115205.153000", "115205.156000", "115205.159000", "115205.162000", "115205.165000", "115205.168000", "115225.095000", "115225.098000", "115225.101000", "115225.104000", "115225.108000", "115225.111000", "115225.114000", "115225.117000", "115225.120000", "115225.123000", "115225.126000", "115225.129000", "115225.132000", "115225.135000", "115225.138000", "115225.141000", "115225.144000", "115225.147000", "115225.150000", "115225.153000", "115245.095000", "115245.098000", "115245.101000", "115245.104000", "115245.108000", "115245.111000", "115245.114000", "115245.117000", "115245.120000", "115245.123000", "115245.126000", "115245.129000", "115245.132000", "115245.135000", "115245.138000", "115245.141000", "115245.144000", "115245.148000", "115245.151000", "115245.154000", "115305.095000", "115305.098000", "115305.101000", "115305.104000", "115305.107000", "115305.111000", "115305.114000", "115305.117000", "115305.120000", "115305.123000", "115305.126000", "115305.129000", "115305.132000", "115305.135000", "115305.138000", "115305.141000", "115305.144000", "115305.147000", "115305.151000", "115305.154000", "115325.096000", "115325.099000", "115325.102000", "115325.105000", "115325.108000", "115325.112000", "115325.115000", "115325.118000", "115325.121000", "115325.124000", "115325.127000", "115325.130000", "115325.133000", "115325.136000", "115325.139000", "115325.142000", "115325.145000", "115325.149000", "115325.152000", "115325.155000", "115331.210000", "115331.213000", "115331.216000", "115331.219000", "115331.223000", "115331.226000", "115331.229000"],
      "InstanceCreationTime": ["114945.132000", "114945.142000", "114945.145000", "114945.148000", "114945.151000", "114945.154000", "114945.157000", "114945.160000", "114945.163000", "114945.166000", "114945.169000", "114945.172000", "114945.175000", "114945.178000", "114945.188000", "114945.191000", "114945.194000", "114945.197000", "114945.200000", "114945.203000", "114945.206000", "114945.209000", "114945.212000", "114945.215000", "114945.218000", "114945.221000", "114945.224000", "114945.227000", "114945.230000", "114945.233000", "114945.236000", "114945.239000", "114945.242000", "115005.095000", "115005.098000", "115005.101000", "115005.104000", "115005.107000", "115005.110000", "115005.113000", "115005.116000", "115005.119000", "115005.122000", "115005.131000", "115005.134000", "115005.137000", "115005.140000", "115005.143000", "115005.146000", "115005.150000", "115005.153000", "115005.156000", "115005.159000", "115005.162000", "115005.165000", "115005.168000", "115005.171000", "115005.174000", "115005.177000", "115005.180000", "115005.183000", "115025.095000", "115025.098000", "115025.101000", "115025.104000", "115025.107000", "115025.111000", "115025.114000", "115025.117000", "115025.120000", "115025.124000", "115025.127000", "115025.130000", "115025.133000", "115025.165000", "115025.168000", "115025.171000", "115025.174000", "115025.177000", "115025.180000", "115025.183000", "115025.186000", "115025.189000", "115025.192000", "115025.195000", "115025.198000", "115025.201000", "115025.204000", "115025.207000", "115045.095000", "115045.098000", "115045.101000", "115045.104000", "115045.107000", "115045.110000", "115045.113000", "115045.116000", "115045.119000", "115045.122000", "115045.125000", "115045.128000", "115045.131000", "115045.134000", "115045.137000", "115045.140000", "115045.143000", "115045.146000", "115045.149000", "115045.153000", "115045.156000", "115045.159000", "115045.162000", "115045.165000", "115045.168000", "115045.171000", "115045.174000", "115045.177000", "115045.180000", "115105.096000", "115105.099000", "115105.103000", "115105.106000", "115105.109000", "115105.112000", "115105.115000", "115105.118000", "115105.121000", "115105.124000", "115105.127000", "115105.130000", "115105.133000", "115105.136000", "115105.155000", "115105.158000", "115105.161000", "115105.164000", "115105.167000", "115105.170000", "115105.173000", "115105.176000", "115105.179000", "115105.182000", "115105.185000", "115105.188000", "115105.192000", "115105.195000", "115125.096000", "115125.099000", "115125.102000", "115125.111000", "115125.114000", "115125.117000", "115125.120000", "115125.123000", "115125.126000", "115125.129000", "115125.132000", "115125.135000", "115125.138000", "115125.141000", "115125.145000", "115125.150000", "115125.154000", "115125.159000", "115125.162000", "115125.165000", "115125.168000", "115125.171000", "115125.174000", "115125.177000", "115125.180000", "115125.183000", "115125.186000", "115145.096000", "115145.099000", "115145.102000", "115145.105000", "115145.108000", "115145.111000", "115145.114000", "115145.117000", "115145.121000", "115145.124000", "115145.127000", "115145.130000", "115145.133000", "115145.136000", "115145.139000", "115145.142000", "115145.145000", "115145.148000", "115145.151000", "115145.154000", "115205.095000", "115205.098000", "115205.101000", "115205.104000", "115205.107000", "115205.125000", "115205.128000", "115205.131000", "115205.134000", "115205.137000", "115205.140000", "115205.143000", "115205.146000", "115205.150000", "115205.153000", "115205.156000", "115205.159000", "115205.162000", "115205.165000", "115205.168000", "115225.095000", "115225.098000", "115225.101000", "115225.104000", "115225.108000", "115225.111000", "115225.114000", "115225.117000", "115225.120000", "115225.123000", "115225.126000", "115225.129000", "115225.132000", "115225.135000", "115225.138000", "115225.141000", "115225.144000", "115225.147000", "115225.150000", "115225.153000", "115245.095000", "115245.098000", "115245.101000", "115245.104000", "115245.108000", "115245.111000", "115245.114000", "115245.117000", "115245.120000", "115245.123000", "115245.126000", "115245.129000", "115245.132000", "115245.135000", "115245.138000", "115245.141000", "115245.144000", "115245.148000", "115245.151000", "115245.154000", "115305.095000", "115305.098000", "115305.101000", "115305.104000", "115305.107000", "115305.111000", "115305.114000", "115305.117000", "115305.120000", "115305.123000", "115305.126000", "115305.129000", "115305.132000", "115305.135000", "115305.138000", "115305.141000", "115305.144000", "115305.147000", "115305.151000", "115305.154000", "115325.096000", "115325.099000", "115325.102000", "115325.105000", "115325.108000", "115325.112000", "115325.115000", "115325.118000", "115325.121000", "115325.124000", "115325.127000", "115325.130000", "115325.133000", "115325.136000", "115325.139000", "115325.142000", "115325.145000", "115325.149000", "115325.152000", "115325.155000", "115331.210000", "115331.213000", "115331.216000", "115331.219000", "115331.223000", "115331.226000", "115331.229000"],
      "InstanceNumber": [1, 2, 3, 4, 5, 6, 7, 8, 9, 10, 11, 12, 13, 14, 15, 16, 17, 18, 19, 20, 21, 22, 23, 24, 25, 26, 27, 28, 29, 30, 31, 32, 33, 34, 35, 36, 37, 38, 39, 40, 41, 42, 43, 44, 45, 46, 47, 48, 49, 50, 51, 52, 53, 54, 55, 56, 57, 58, 59, 60, 61, 62, 63, 64, 65, 66, 67, 68, 69, 70, 71, 72, 73, 74, 75, 76, 77, 78, 79, 80, 81, 82, 83, 84, 85, 86, 87, 88, 89, 90, 91, 92, 93, 94, 95, 96, 97, 98, 99, 100, 101, 102, 103, 104, 105, 106, 107, 108, 109, 110, 111, 112, 113, 114, 115, 116, 117, 118, 119, 120, 121, 122, 123, 124, 125, 126, 127, 128, 129, 130, 131, 132, 133, 134, 135, 136, 137, 138, 139, 140, 141, 142, 143, 144, 145, 146, 147, 148, 149, 150, 151, 152, 153, 154, 155, 156, 157, 158, 159, 160, 161, 162, 163, 164, 165, 166, 167, 168, 169, 170, 171, 172, 173, 174, 175, 176, 177, 178, 179, 180, 181, 182, 183, 184, 185, 186, 187, 188, 189, 190, 191, 192, 193, 194, 195, 196, 197, 198, 199, 200, 201, 202, 203, 204, 205, 206, 207, 208, 209, 210, 211, 212, 213, 214, 215, 216, 217, 218, 219, 220, 221, 222, 223, 224, 225, 226, 227, 228, 229, 230, 231, 232, 233, 234, 235, 236, 237, 238, 239, 240, 241, 242, 243, 244, 245, 246, 247, 248, 249, 250, 251, 252, 253, 254, 255, 256, 257, 258, 259, 260, 261, 262, 263, 264, 265, 266, 267, 268, 269, 270, 271, 272, 273, 274, 275, 276, 277, 278, 279, 280, 281, 282, 283, 284, 285, 286, 287, 288, 289, 290, 291, 292, 293, 294, 295, 296, 297, 298, 299, 300],
      "LargestImagePixelValue": [39111, 38351, 37657, 37264, 37153, 37125, 37114, 37327, 37417, 37250, 37546, 37854, 37736, 37475, 37642, 37306, 37494, 37477, 37639, 37696, 37904, 38218, 36752, 37522, 37556, 37155, 36984, 37275, 37597, 37706, 37727, 37754, 37488, 38246, 37813, 37385, 37532, 38097, 37274, 37514, 37890, 37936, 37813, 38158, 37662, 37557, 37798, 38459, 37596, 37941, 37674, 37742, 38074, 38042, 37835, 37855, 38107, 38016, 37837, 37452, 37886, 37772, 37789, 37600, 37349, 37799, 38165, 38174, 38639, 38028, 38435, 37943, 37727, 38133, 38098, 38241, 38246, 38672, 38127, 37733, 37984, 38449, 38191, 37587, 37663, 38498, 38422, 37960, 38322, 38355, 38395, 37726, 38012, 38439, 37647, 38188, 37512, 37729, 37547, 37451, 37800, 37623, 37749, 37469, 37740, 37644, 38320, 38034, 37810, 38054, 38172, 37969, 38058, 37727, 38222, 37624, 38159, 38859, 38012, 38413, 38356, 38079, 37750, 38018, 38077, 38646, 38513, 38499, 38319, 38252, 38137, 38254, 37846, 38180, 38315, 38701, 38336, 38294, 38787, 38582, 38990, 38631, 38571, 38686, 38576, 38894, 38271, 38664, 38206, 38224, 38737, 38327, 38290, 38068, 38364, 37772, 37995, 38462, 38206, 38326, 38691, 38509, 38821, 38516, 38574, 38859, 38463, 38852, 38572, 38596, 39186, 38249, 38515, 38336, 38468, 38577, 38546, 38610, 38526, 38594, 38802, 38139, 37785, 38441, 38706, 38487, 37989, 38495, 38141, 38619, 38754, 38016, 38554, 38502, 38288, 38113, 38048, 38425, 37960, 37913, 37947, 38082, 37427, 38220, 38326, 38371, 38285, 38387, 38065, 38012, 38160, 38544, 38596, 38262, 38361, 38021, 37990, 38321, 37668, 37801, 38108, 38597, 38095, 38404, 38255, 38582, 38207, 37996, 38357, 37808, 38347, 38393, 38058, 37885, 38160, 38111, 37987, 38012, 38230, 37757, 37913, 37960, 37517, 37952, 37818, 38039, 37773, 37817, 37882, 38317, 37821, 38392, 38079, 38323, 38284, 38088, 38011, 38139, 38582, 38141, 38839, 39021, 39046, 39148, 38637, 38968, 38917, 38352, 38398, 38572, 38679, 38482, 38227, 38747, 38058, 37770, 37741, 38044, 37757, 38058, 37961, 38204, 38180, 38033, 38193, 38885, 38421, 37930, 37957, 38226, 38482, 38020, 38634, 38165, 38186, 38088, 37777, 38221, 37645, 38097],
      "WindowCenter": [9942.0, 9923.0, 9919.0, 9905.0, 9904.0, 9905.0, 9911.0, 9896.0, 9893.0, 9885.0, 9882.0, 9880.0, 9872.0, 9872.0, 9873.0, 9875.0, 9884.0, 9887.0, 9897.0, 9899.0, 9908.0, 9925.0, 9907.0, 9910.0, 9904.0, 9895.0, 9887.0, 9880.0, 9877.0, 9874.0, 9880.0, 9873.0, 9864.0, 9875.0, 9867.0, 9867.0, 9873.0, 9888.0, 9878.0, 9884.0, 9897.0, 9899.0, 9900.0, 9907.0, 9900.0, 9894.0, 9892.0, 9895.0, 9875.0, 9872.0, 9872.0, 9867.0, 9872.0, 9880.0, 9883.0, 9881.0, 9888.0, 9888.0, 9875.0, 9876.0, 9882.0, 9889.0, 9891.0, 9891.0, 9886.0, 9895.0, 9899.0, 9892.0, 9893.0, 9887.0, 9885.0, 9887.0, 9890.0, 9889.0, 9888.0, 9889.0, 9881.0, 9882.0, 9866.0, 9861.0, 9862.0, 9869.0, 9866.0, 9859.0, 9865.0, 9870.0, 9868.0, 9869.0, 9868.0, 9868.0, 9875.0, 9873.0, 9881.0, 9889.0, 9892.0, 9899.0, 9897.0, 9900.0, 9891.0, 9892.0, 9893.0, 9892.0, 9886.0, 9876.0, 9877.0, 9877.0, 9888.0, 9889.0, 9892.0, 9891.0, 9897.0, 9898.0, 9897.0, 9899.0, 9899.0, 9893.0, 9896.0, 9901.0, 9891.0, 9892.0, 9893.0, 9881.0, 9872.0, 9871.0, 9869.0, 9874.0, 9869.0, 9871.0, 9875.0, 9876.0, 9878.0, 9880.0, 9866.0, 9871.0, 9875.0, 9874.0, 9876.0, 9876.0, 9876.0, 9883.0, 9890.0, 9884.0, 9885.0, 9894.0, 9892.0, 9898.0, 9893.0, 9891.0, 9881.0, 9880.0, 9884.0, 9877.0, 9869.0, 9876.0, 9876.0, 9866.0, 9874.0, 9870.0, 9856.0, 9859.0, 9866.0, 9853.0, 9849.0, 9850.0, 9849.0, 9842.0, 9843.0, 9849.0, 9856.0, 9855.0, 9863.0, 9860.0, 9867.0, 9871.0, 9872.0, 9877.0, 9885.0, 9902.0, 9905.0, 9925.0, 9929.0, 9920.0, 9917.0, 9909.0, 9898.0, 9882.0, 9881.0, 9879.0, 9872.0, 9876.0, 9887.0, 9865.0, 9878.0, 9883.0, 9888.0, 9880.0, 9879.0, 9888.0, 9882.0, 9883.0, 9882.0, 9883.0, 9878.0, 9879.0, 9894.0, 9894.0, 9889.0, 9887.0, 9884.0, 9881.0, 9880.0, 9879.0, 9883.0, 9881.0, 9865.0, 9867.0, 9872.0, 9881.0, 9876.0, 9890.0, 9898.0, 9919.0, 9911.0, 9915.0, 9909.0, 9906.0, 9895.0, 9892.0, 9888.0, 9876.0, 9881.0, 9888.0, 9883.0, 9880.0, 9879.0, 9874.0, 9867.0, 9872.0, 9867.0, 9860.0, 9861.0, 9866.0, 9860.0, 9866.0, 9874.0, 9874.0, 9875.0, 9877.0, 9883.0, 9894.0, 9887.0, 9898.0, 9900.0, 9903.0, 9897.0, 9891.0, 9886.0, 9887.0, 9893.0, 9883.0, 9885.0, 9888.0, 9890.0, 9891.0, 9886.0, 9891.0, 9891.0, 9885.0, 9885.0, 9885.0, 9879.0, 9878.0, 9872.0, 9887.0, 9887.0, 9894.0, 9911.0, 9913.0, 9905.0, 9901.0, 9891.0, 9876.0, 9866.0, 9855.0, 9852.0, 9858.0, 9860.0, 9862.0, 9865.0, 9872.0, 9876.0, 9871.0, 9883.0, 9873.0, 9880.0, 9888.0, 9883.0, 9891.0, 9886.0, 9892.0],
