{
  "AcquisitionMatrixPE": 104,
  "AcquisitionNumber": 1,
  "AcquisitionTime": "11:55:11.657500",
  "BandwidthPerPixelPhaseEncode": 16.297,
  "BaseResolution": 104,
  "BodyPartExamined": "BRAIN",
  "ConsistencyInfo": "N4_VE11C_LATEST_20160120",
  "ConversionSoftware": "dcm2niix",
  "ConversionSoftwareVersion": "v1.0.20210317",
  "DerivedVendorReportedEchoSpacing": 0.000590009,
  "DeviceSerialNumber": "166018",
  "DwellTime": 2.1e-06,
  "EchoTime": 0.0376,
  "EchoTrainLength": 104,
  "EffectiveEchoSpacing": 0.000590009,
  "FlipAngle": 68,
  "ImageComments": "Unaliased MB6/PE3/LB",
  "ImageOrientationPatientDICOM": [0.997944, -0.0571732, 0.0289565, 0.0587644, 0.996617, -0.0574616],
  "ImageType": [
    "ORIGINAL",
    "PRIMARY",
    "M",
    "MB",
    "ND",
    "MOSAIC"
],
  "ImagingFrequency": 123.197,
  "InPlanePhaseEncodingDirectionDICOM": "COL",
  "InstitutionAddress": "Washington Place 6,NYC,NYC,US,10003",
  "InstitutionName": "NYU - CBI",
  "InstitutionalDepartmentName": "Department",
  "MRAcquisitionType": "2D",
  "MagneticFieldStrength": 3,
  "Manufacturer": "Siemens",
  "ManufacturersModelName": "Prisma",
  "Modality": "MR",
  "MultibandAccelerationFactor": 6,
  "PartialFourier": 1,
  "PatientPosition": "HFS",
  "PercentPhaseFOV": 100,
  "PercentSampling": 100,
  "PhaseEncodingDirection": "j",
  "PhaseEncodingSteps": 104,
  "PhaseResolution": 1,
  "PixelBandwidth": 2290,
  "ProcedureStepDescription": "Investigators^Winawer",
  "ProtocolName": "cmrr_mbepi_s6_2mm_66sl_PA_task-bar3",
  "PulseSequenceDetails": "%CustomerSeq%\\cmrr_mbep2d_bold",
  "ReceiveCoilActiveElements": "HC1-7",
  "ReceiveCoilName": "HeadNeck_64",
  "ReconMatrixPE": 104,
  "RepetitionTime": 1,
  "SAR": 0.0638816,
  "ScanOptions": "FS",
  "ScanningSequence": "EP",
  "SequenceName": "epfid2d1_104",
  "SequenceVariant": "SK\\SS",
  "SeriesDescription": "cmrr_mbepi_s6_2mm_66sl_PA_task-bar3",
  "SeriesNumber": 16,
  "ShimSetting": [295, -12683, -8538, 245, 1, -243, -221, 45],
  "SliceThickness": 2,
  "SliceTiming": [0, 0.5325, 0.0875, 0.6225, 0.1775, 0.7125, 0.265, 0.8, 0.355, 0.89, 0.445, 0, 0.5325, 0.0875, 0.6225, 0.1775, 0.7125, 0.265, 0.8, 0.355, 0.89, 0.445, 0, 0.5325, 0.0875, 0.6225, 0.1775, 0.7125, 0.265, 0.8, 0.355, 0.89, 0.445, 0, 0.5325, 0.0875, 0.6225, 0.1775, 0.7125, 0.265, 0.8, 0.355, 0.89, 0.445, 0, 0.5325, 0.0875, 0.6225, 0.1775, 0.7125, 0.265, 0.8, 0.355, 0.89, 0.445, 0, 0.5325, 0.0875, 0.6225, 0.1775, 0.7125, 0.265, 0.8, 0.355, 0.89, 0.445],
  "SoftwareVersions": "syngo MR E11",
  "SpacingBetweenSlices": 2,
  "StationName": "AWP166018",
  "TaskName": "bar3",
  "TotalReadoutTime": 0.060771,
  "TxRefAmp": 206.267,
  "VendorReportedEchoSpacing": 0.00059,
  "WipMemBlock": "e16ce283-0147-41bd-807a-f5ff813d1f53||Sequence: R016 ve11c/master r/8780670; Nov 27 2017 15:05:12 by eja",
  "dcmmeta_affine": [
    [-1.9958884716033936, 0.11752887070178986, 0.05114645138382912, 103.26673126220703],
    [0.11434636265039444, 1.9932334423065186, -0.11809025704860687, -86.39984130859375],
    [0.0579129159450531, 0.11492329090833664, 1.995855450630188, -53.27383804321289],
    [0.0, 0.0, 0.0, 1.0]
],
  "dcmmeta_reorient_transform": [
    [0.0, -1.0, 0.0, 103.0],
    [1.0, 0.0, 0.0, 0.0],
    [0.0, 0.0, 1.0, 0.0],
    [0.0, 0.0, 0.0, 1.0]
],
  "dcmmeta_shape": [104, 104, 66, 300],
  "dcmmeta_slice_dim": 2,
  "dcmmeta_version": 0.6,
  "global": {
    "const": {
      "AccessionNumber": "Lekxxqqx",
      "AcquisitionMatrix": [104, 0, 0, 104],
      "AngioFlag": "N",
      "BitsAllocated": 16,
      "BitsStored": 16,
      "BodyPartExamined": "BRAIN",
      "Columns": 936,
      "EchoNumbers": 1,
      "EchoTime": 37.6,
      "EchoTrainLength": 104,
      "FlipAngle": 68.0,
      "HighBit": 15,
      "ImageOrientationPatient": [0.99794426253117, -0.0571731795129, 0.02895645740589, 0.05876443697733, 0.99661672684829, -0.0574616455815],
      "ImagePositionPatient": [-994.55384625711, -900.5202329988, -17.720423317113],
      "ImageType": [
        "ORIGINAL",
        "PRIMARY",
        "M",
        "MB",
        "ND",
        "MOSAIC"
],
      "ImagedNucleus": "1H",
      "ImagingFrequency": 123.19684,
      "InPlanePhaseEncodingDirection": "COL",
      "MRAcquisitionType": "2D",
      "MagneticFieldStrength": 3.0,
      "Manufacturer": "SIEMENS",
      "ManufacturerModelName": "Prisma",
      "Modality": "MR",
      "NumberOfAverages": 1.0,
      "NumberOfPhaseEncodingSteps": 104,
      "PercentPhaseFieldOfView": 100.0,
      "PercentSampling": 100.0,
      "PerformedProcedureStepStartTime": "111721.138000",
      "PhotometricInterpretation": "MONOCHROME2",
      "PixelBandwidth": 2290.0,
      "PixelRepresentation": 0,
      "PixelSpacing": [2.0, 2.0],
      "ProtocolName": "cmrr_mbepi_s6_2mm_66sl_PA_task-bar3",
      "RepetitionTime": 1000.0,
      "Rows": 936,
      "SAR": 0.06388163669348,
      "SamplesPerPixel": 1,
      "ScanOptions": "FS",
      "ScanningSequence": "EP",
      "SequenceName": "epfid2d1_104",
      "SequenceVariant": [
        "SK",
        "SS"
],
      "SeriesDescription": "cmrr_mbepi_s6_2mm_66sl_PA_task-bar3",
      "SeriesNumber": 16,
      "SeriesTime": "115625.291000",
      "SliceLocation": -45.421085792938,
      "SliceThickness": 2.0,
      "SmallestImagePixelValue": 0,
      "SoftwareVersions": "syngo MR E11",
      "SpacingBetweenSlices": 2.0000000311807,
      "SpecificCharacterSet": "ISO_IR 100",
      "StudyID": "1",
      "StudyTime": "111721.076000",
      "TransmitCoilName": "Body",
      "VariableFlipAngleFlag": "N",
      "WindowCenterWidthExplanation": "Algo1",
      "dBdt": 0.0},
    "slices": {}
  },
  "time": {
    "samples": {
      "AcquisitionNumber": [1, 2, 3, 4, 5, 6, 7, 8, 9, 10, 11, 12, 13, 14, 15, 16, 17, 18, 19, 20, 21, 22, 23, 24, 25, 26, 27, 28, 29, 30, 31, 32, 33, 34, 35, 36, 37, 38, 39, 40, 41, 42, 43, 44, 45, 46, 47, 48, 49, 50, 51, 52, 53, 54, 55, 56, 57, 58, 59, 60, 61, 62, 63, 64, 65, 66, 67, 68, 69, 70, 71, 72, 73, 74, 75, 76, 77, 78, 79, 80, 81, 82, 83, 84, 85, 86, 87, 88, 89, 90, 91, 92, 93, 94, 95, 96, 97, 98, 99, 100, 101, 102, 103, 104, 105, 106, 107, 108, 109, 110, 111, 112, 113, 114, 115, 116, 117, 118, 119, 120, 121, 122, 123, 124, 125, 126, 127, 128, 129, 130, 131, 132, 133, 134, 135, 136, 137, 138, 139, 140, 141, 142, 143, 144, 145, 146, 147, 148, 149, 150, 151, 152, 153, 154, 155, 156, 157, 158, 159, 160, 161, 162, 163, 164, 165, 166, 167, 168, 169, 170, 171, 172, 173, 174, 175, 176, 177, 178, 179, 180, 181, 182, 183, 184, 185, 186, 187, 188, 189, 190, 191, 192, 193, 194, 195, 196, 197, 198, 199, 200, 201, 202, 203, 204, 205, 206, 207, 208, 209, 210, 211, 212, 213, 214, 215, 216, 217, 218, 219, 220, 221, 222, 223, 224, 225, 226, 227, 228, 229, 230, 231, 232, 233, 234, 235, 236, 237, 238, 239, 240, 241, 242, 243, 244, 245, 246, 247, 248, 249, 250, 251, 252, 253, 254, 255, 256, 257, 258, 259, 260, 261, 262, 263, 264, 265, 266, 267, 268, 269, 270, 271, 272, 273, 274, 275, 276, 277, 278, 279, 280, 281, 282, 283, 284, 285, 286, 287, 288, 289, 290, 291, 292, 293, 294, 295, 296, 297, 298, 299, 300],
      "AcquisitionTime": ["115511.657500", "115512.657500", "115513.657500", "115514.657500", "115515.657500", "115516.657500", "115517.657500", "115518.657500", "115519.657500", "115520.657500", "115521.657500", "115522.657500", "115523.657500", "115524.657500", "115525.657500", "115526.657500", "115527.657500", "115528.657500", "115529.657500", "115530.657500", "115531.657500", "115532.657500", "115533.657500", "115534.657500", "115535.657500", "115536.657500", "115537.657500", "115538.657500", "115539.657500", "115540.657500", "115541.657500", "115542.657500", "115543.657500", "115544.657500", "115545.657500", "115546.657500", "115547.657500", "115548.657500", "115549.657500", "115550.657500", "115551.657500", "115552.657500", "115553.657500", "115554.657500", "115555.657500", "115556.657500", "115557.657500", "115558.657500", "115559.657500", "115600.657500", "115601.657500", "115602.657500", "115603.657500", "115604.657500", "115605.657500", "115606.657500", "115607.657500", "115608.657500", "115609.657500", "115610.657500", "115611.657500", "115612.657500", "115613.657500", "115614.657500", "115615.657500", "115616.657500", "115617.657500", "115618.657500", "115619.657500", "115620.657500", "115621.657500", "115622.657500", "115623.657500", "115624.657500", "115625.657500", "115626.657500", "115627.657500", "115628.657500", "115629.657500", "115630.657500", "115631.657500", "115632.657500", "115633.657500", "115634.657500", "115635.657500", "115636.657500", "115637.657500", "115638.657500", "115639.657500", "115640.657500", "115641.657500", "115642.657500", "115643.657500", "115644.657500", "115645.657500", "115646.657500", "115647.657500", "115648.657500", "115649.657500", "115650.657500", "115651.657500", "115652.657500", "115653.657500", "115654.657500", "115655.657500", "115656.657500", "115657.657500", "115658.657500", "115659.657500", "115700.657500", "115701.657500", "115702.657500", "115703.657500", "115704.657500", "115705.657500", "115706.657500", "115707.657500", "115708.657500", "115709.657500", "115710.657500", "115711.657500", "115712.657500", "115713.657500", "115714.657500", "115715.657500", "115716.657500", "115717.657500", "115718.657500", "115719.657500", "115720.657500", "115721.657500", "115722.657500", "115723.657500", "115724.657500", "115725.657500", "115726.657500", "115727.657500", "115728.657500", "115729.657500", "115730.657500", "115731.657500", "115732.657500", "115733.657500", "115734.657500", "115735.657500", "115736.657500", "115737.657500", "115738.657500", "115739.657500", "115740.657500", "115741.657500", "115742.657500", "115743.657500", "115744.657500", "115745.657500", "115746.657500", "115747.657500", "115748.657500", "115749.657500", "115750.657500", "115751.657500", "115752.657500", "115753.657500", "115754.657500", "115755.657500", "115756.657500", "115757.657500", "115758.657500", "115759.657500", "115800.657500", "115801.657500", "115802.657500", "115803.657500", "115804.657500", "115805.657500", "115806.657500", "115807.657500", "115808.657500", "115809.657500", "115810.657500", "115811.657500", "115812.657500", "115813.657500", "115814.657500", "115815.657500", "115816.657500", "115817.657500", "115818.657500", "115819.657500", "115820.657500", "115821.657500", "115822.657500", "115823.657500", "115824.657500", "115825.657500", "115826.657500", "115827.657500", "115828.657500", "115829.657500", "115830.657500", "115831.657500", "115832.657500", "115833.657500", "115834.657500", "115835.657500", "115836.657500", "115837.657500", "115838.657500", "115839.657500", "115840.657500", "115841.657500", "115842.657500", "115843.657500", "115844.657500", "115845.657500", "115846.657500", "115847.657500", "115848.657500", "115849.657500", "115850.657500", "115851.657500", "115852.657500", "115853.657500", "115854.657500", "115855.657500", "115856.657500", "115857.657500", "115858.657500", "115859.657500", "115900.657500", "115901.657500", "115902.657500", "115903.657500", "115904.657500", "115905.657500", "115906.657500", "115907.657500", "115908.657500", "115909.657500", "115910.657500", "115911.657500", "115912.657500", "115913.657500", "115914.657500", "115915.657500", "115916.657500", "115917.657500", "115918.657500", "115919.657500", "115920.657500", "115921.657500", "115922.657500", "115923.657500", "115924.657500", "115925.657500", "115926.657500", "115927.657500", "115928.657500", "115929.657500", "115930.657500", "115931.657500", "115932.657500", "115933.657500", "115934.657500", "115935.657500", "115936.657500", "115937.657500", "115938.657500", "115939.657500", "115940.657500", "115941.657500", "115942.657500", "115943.657500", "115944.657500", "115945.657500", "115946.657500", "115947.657500", "115948.657500", "115949.657500", "115950.657500", "115951.657500", "115952.657500", "115953.657500", "115954.657500", "115955.657500", "115956.657500", "115957.657500", "115958.657500", "115959.657500", "120000.657500", "120001.657500", "120002.657500", "120003.657500", "120004.657500", "120005.657500", "120006.657500", "120007.657500", "120008.657500", "120009.657500", "120010.657500"],
      "ContentTime": ["115625.294000", "115625.298000", "115625.301000", "115625.304000", "115625.307000", "115625.314000", "115625.318000", "115625.321000", "115625.324000", "115625.328000", "115625.331000", "115625.334000", "115625.343000", "115625.346000", "115625.349000", "115625.352000", "115625.356000", "115625.359000", "115625.362000", "115625.365000", "115625.368000", "115625.371000", "115625.374000", "115625.377000", "115645.255000", "115645.258000", "115645.261000", "115645.264000", "115645.267000", "115645.270000", "115645.273000", "115645.276000", "115645.281000", "115645.284000", "115645.287000", "115645.290000", "115645.293000", "115645.296000", "115645.299000", "115645.302000", "115645.305000", "115645.308000", "115645.311000", "115645.314000", "115645.317000", "115645.320000", "115645.323000", "115645.326000", "115645.329000", "115645.332000", "115645.335000", "115645.338000", "115705.255000", "115705.258000", "115705.262000", "115705.265000", "115705.268000", "115705.271000", "115705.274000", "115705.277000", "115705.280000", "115705.283000", "115705.286000", "115705.289000", "115705.292000", "115705.295000", "115705.298000", "115705.301000", "115705.305000", "115705.308000", "115705.311000", "115705.314000", "115705.317000", "115705.320000", "115705.323000", "115705.326000", "115705.329000", "115705.332000", "115705.335000", "115705.338000", "115725.255000", "115725.258000", "115725.261000", "115725.264000", "115725.267000", "115725.271000", "115725.274000", "115725.277000", "115725.280000", "115725.283000", "115725.286000", "115725.289000", "115725.292000", "115725.295000", "115725.298000", "115725.301000", "115725.304000", "115725.307000", "115725.310000", "115725.313000", "115725.316000", "115725.322000", "115725.325000", "115725.328000", "115725.331000", "115725.334000", "115725.337000", "115725.340000", "115725.343000", "115745.255000", "115745.258000", "115745.261000", "115745.264000", "115745.267000", "115745.270000", "115745.273000", "115745.277000", "115745.280000", "115745.283000", "115745.286000", "115745.289000", "115745.292000", "115745.295000", "115745.298000", "115745.301000", "115745.304000", "115745.307000", "115745.310000", "115745.313000", "115745.316000", "115745.319000", "115745.322000", "115745.325000", "115745.328000", "115745.331000", "115745.334000", "115745.338000", "115805.256000", "115805.259000", "115805.262000", "115805.265000", "115805.268000", "115805.271000", "115805.274000", "115805.278000", "115805.281000", "115805.284000", "115805.287000", "115805.290000", "115805.293000", "115805.296000", "115805.299000", "115805.302000", "115805.305000", "115805.308000", "115805.311000", "115805.314000", "115805.317000", "115805.320000", "115805.323000", "115805.326000", "115805.329000", "115805.332000", "115805.335000", "115805.338000", "115825.256000", "115825.259000", "115825.262000", "115825.265000", "115825.268000", "115825.271000", "115825.274000", "115825.278000", "115825.281000", "115825.284000", "115825.287000", "115825.290000", "115825.293000", "115825.296000", "115825.299000", "115825.302000", "115825.305000", "115825.308000", "115825.311000", "115825.314000", "115825.317000", "115825.320000", "115825.323000", "115825.326000", "115825.329000", "115825.332000", "115825.335000", "115845.255000", "115845.258000", "115845.261000", "115845.264000", "115845.267000", "115845.270000", "115845.273000", "115845.276000", "115845.280000", "115845.283000", "115845.286000", "115845.289000", "115845.292000", "115845.295000", "115845.298000", "115845.301000", "115845.304000", "115845.307000", "115845.310000", "115845.313000", "115905.255000", "115905.258000", "115905.261000", "115905.264000", "115905.267000", "115905.271000", "115905.274000", "115905.277000", "115905.280000", "115905.283000", "115905.286000", "115905.289000", "115905.292000", "115905.295000", "115905.298000", "115905.301000", "115905.304000", "115905.307000", "115905.310000", "115905.313000", "115925.255000", "115925.258000", "115925.261000", "115925.264000", "115925.267000", "115925.270000", "115925.274000", "115925.277000", "115925.280000", "115925.283000", "115925.286000", "115925.289000", "115925.292000", "115925.295000", "115925.298000", "115925.301000", "115925.304000", "115925.307000", "115925.310000", "115925.313000", "115945.255000", "115945.258000", "115945.261000", "115945.264000", "115945.268000", "115945.271000", "115945.274000", "115945.277000", "115945.280000", "115945.283000", "115945.286000", "115945.289000", "115945.292000", "115945.295000", "115945.298000", "115945.301000", "115945.304000", "115945.307000", "115945.310000", "115945.313000", "120005.255000", "120005.258000", "120005.261000", "120005.264000", "120005.267000", "120005.271000", "120005.274000", "120005.277000", "120005.280000", "120005.283000", "120005.286000", "120005.289000", "120005.292000", "120005.295000", "120005.298000", "120005.301000", "120005.304000", "120005.307000", "120005.310000", "120005.314000", "120012.588000", "120012.591000", "120012.594000", "120012.597000", "120012.600000", "120012.603000", "120012.606000", "120012.609000"],
      "InstanceCreationTime": ["115625.294000", "115625.298000", "115625.301000", "115625.304000", "115625.307000", "115625.314000", "115625.318000", "115625.321000", "115625.324000", "115625.328000", "115625.331000", "115625.334000", "115625.343000", "115625.346000", "115625.349000", "115625.352000", "115625.356000", "115625.359000", "115625.362000", "115625.365000", "115625.368000", "115625.371000", "115625.374000", "115625.377000", "115645.255000", "115645.258000", "115645.261000", "115645.264000", "115645.267000", "115645.270000", "115645.273000", "115645.276000", "115645.281000", "115645.284000", "115645.287000", "115645.290000", "115645.293000", "115645.296000", "115645.299000", "115645.302000", "115645.305000", "115645.308000", "115645.311000", "115645.314000", "115645.317000", "115645.320000", "115645.323000", "115645.326000", "115645.329000", "115645.332000", "115645.335000", "115645.338000", "115705.255000", "115705.258000", "115705.262000", "115705.265000", "115705.268000", "115705.271000", "115705.274000", "115705.277000", "115705.280000", "115705.283000", "115705.286000", "115705.289000", "115705.292000", "115705.295000", "115705.298000", "115705.301000", "115705.305000", "115705.308000", "115705.311000", "115705.314000", "115705.317000", "115705.320000", "115705.323000", "115705.326000", "115705.329000", "115705.332000", "115705.335000", "115705.338000", "115725.255000", "115725.258000", "115725.261000", "115725.264000", "115725.267000", "115725.271000", "115725.274000", "115725.277000", "115725.280000", "115725.283000", "115725.286000", "115725.289000", "115725.292000", "115725.295000", "115725.298000", "115725.301000", "115725.304000", "115725.307000", "115725.310000", "115725.313000", "115725.316000", "115725.322000", "115725.325000", "115725.328000", "115725.331000", "115725.334000", "115725.337000", "115725.340000", "115725.343000", "115745.255000", "115745.258000", "115745.261000", "115745.264000", "115745.267000", "115745.270000", "115745.273000", "115745.277000", "115745.280000", "115745.283000", "115745.286000", "115745.289000", "115745.292000", "115745.295000", "115745.298000", "115745.301000", "115745.304000", "115745.307000", "115745.310000", "115745.313000", "115745.316000", "115745.319000", "115745.322000", "115745.325000", "115745.328000", "115745.331000", "115745.334000", "115745.338000", "115805.256000", "115805.259000", "115805.262000", "115805.265000", "115805.268000", "115805.271000", "115805.274000", "115805.278000", "115805.281000", "115805.284000", "115805.287000", "115805.290000", "115805.293000", "115805.296000", "115805.299000", "115805.302000", "115805.305000", "115805.308000", "115805.311000", "115805.314000", "115805.317000", "115805.320000", "115805.323000", "115805.326000", "115805.329000", "115805.332000", "115805.335000", "115805.338000", "115825.256000", "115825.259000", "115825.262000", "115825.265000", "115825.268000", "115825.271000", "115825.274000", "115825.278000", "115825.281000", "115825.284000", "115825.287000", "115825.290000", "115825.293000", "115825.296000", "115825.299000", "115825.302000", "115825.305000", "115825.308000", "115825.311000", "115825.314000", "115825.317000", "115825.320000", "115825.323000", "115825.326000", "115825.329000", "115825.332000", "115825.335000", "115845.255000", "115845.258000", "115845.261000", "115845.264000", "115845.267000", "115845.270000", "115845.273000", "115845.276000", "115845.280000", "115845.283000", "115845.286000", "115845.289000", "115845.292000", "115845.295000", "115845.298000", "115845.301000", "115845.304000", "115845.307000", "115845.310000", "115845.313000", "115905.255000", "115905.258000", "115905.261000", "115905.264000", "115905.267000", "115905.271000", "115905.274000", "115905.277000", "115905.280000", "115905.283000", "115905.286000", "115905.289000", "115905.292000", "115905.295000", "115905.298000", "115905.301000", "115905.304000", "115905.307000", "115905.310000", "115905.313000", "115925.255000", "115925.258000", "115925.261000", "115925.264000", "115925.267000", "115925.270000", "115925.274000", "115925.277000", "115925.280000", "115925.283000", "115925.286000", "115925.289000", "115925.292000", "115925.295000", "115925.298000", "115925.301000", "115925.304000", "115925.307000", "115925.310000", "115925.313000", "115945.255000", "115945.258000", "115945.261000", "115945.264000", "115945.268000", "115945.271000", "115945.274000", "115945.277000", "115945.280000", "115945.283000", "115945.286000", "115945.289000", "115945.292000", "115945.295000", "115945.298000", "115945.301000", "115945.304000", "115945.307000", "115945.310000", "115945.313000", "120005.255000", "120005.258000", "120005.261000", "120005.264000", "120005.267000", "120005.271000", "120005.274000", "120005.277000", "120005.280000", "120005.283000", "120005.286000", "120005.289000", "120005.292000", "120005.295000", "120005.298000", "120005.301000", "120005.304000", "120005.307000", "120005.310000", "120005.314000", "120012.588000", "120012.591000", "120012.594000", "120012.597000", "120012.600000", "120012.603000", "120012.606000", "120012.609000"],
      "InstanceNumber": [1, 2, 3, 4, 5, 6, 7, 8, 9, 10, 11, 12, 13, 14, 15, 16, 17, 18, 19, 20, 21, 22, 23, 24, 25, 26, 27, 28, 29, 30, 31, 32, 33, 34, 35, 36, 37, 38, 39, 40, 41, 42, 43, 44, 45, 46, 47, 48, 49, 50, 51, 52, 53, 54, 55, 56, 57, 58, 59, 60, 61, 62, 63, 64, 65, 66, 67, 68, 69, 70, 71, 72, 73, 74, 75, 76, 77, 78, 79, 80, 81, 82, 83, 84, 85, 86, 87, 88, 89, 90, 91, 92, 93, 94, 95, 96, 97, 98, 99, 100, 101, 102, 103, 104, 105, 106, 107, 108, 109, 110, 111, 112, 113, 114, 115, 116, 117, 118, 119, 120, 121, 122, 123, 124, 125, 126, 127, 128, 129, 130, 131, 132, 133, 134, 135, 136, 137, 138, 139, 140, 141, 142, 143, 144, 145, 146, 147, 148, 149, 150, 151, 152, 153, 154, 155, 156, 157, 158, 159, 160, 161, 162, 163, 164, 165, 166, 167, 168, 169, 170, 171, 172, 173, 174, 175, 176, 177, 178, 179, 180, 181, 182, 183, 184, 185, 186, 187, 188, 189, 190, 191, 192, 193, 194, 195, 196, 197, 198, 199, 200, 201, 202, 203, 204, 205, 206, 207, 208, 209, 210, 211, 212, 213, 214, 215, 216, 217, 218, 219, 220, 221, 222, 223, 224, 225, 226, 227, 228, 229, 230, 231, 232, 233, 234, 235, 236, 237, 238, 239, 240, 241, 242, 243, 244, 245, 246, 247, 248, 249, 250, 251, 252, 253, 254, 255, 256, 257, 258, 259, 260, 261, 262, 263, 264, 265, 266, 267, 268, 269, 270, 271, 272, 273, 274, 275, 276, 277, 278, 279, 280, 281, 282, 283, 284, 285, 286, 287, 288, 289, 290, 291, 292, 293, 294, 295, 296, 297, 298, 299, 300],
      "LargestImagePixelValue": [40453, 39359, 39296, 38708, 38308, 38150, 38299, 38121, 37872, 38005, 37526, 38047, 37919, 38183, 38113, 37924, 38227, 38406, 38047, 37801, 37730, 37749, 38069, 37857, 38244, 38313, 37698, 37559, 38068, 37634, 37902, 37504, 37642, 37994, 38079, 37421, 37608, 37826, 37994, 37900, 38263, 38162, 37782, 38372, 38261, 38076, 37901, 38409, 38218, 38221, 38054, 38387, 38167, 38124, 37935, 38097, 38505, 38181, 38276, 38205, 37784, 38283, 38218, 38258, 38310, 38232, 38089, 37796, 38153, 37958, 38596, 38156, 38208, 37876, 38142, 37941, 38252, 37720, 37977, 37424, 38106, 38050, 37854, 38317, 38273, 38325, 38193, 38413, 38112, 38076, 38109, 37895, 38034, 38119, 37981, 37965, 37812, 37966, 37793, 37880, 37462, 38087, 37711, 37912, 37685, 38135, 37641, 37612, 37809, 37534, 37523, 37496, 37800, 37357, 37901, 37836, 37698, 37461, 38019, 37845, 38030, 38615, 38204, 38010, 38342, 37859, 37747, 37980, 37810, 37812, 38186, 37702, 37641, 37876, 37878, 38012, 38304, 38440, 38163, 37963, 38425, 37742, 37720, 37726, 37167, 37939, 37977, 37888, 37867, 37637, 37640, 37547, 37823, 37778, 37992, 37716, 38361, 38013, 37606, 38187, 38140, 37830, 38195, 38054, 38205, 37925, 37404, 38299, 37840, 38030, 38151, 38152, 38038, 38419, 37899, 38428, 38042, 37870, 38125, 38058, 38063, 38156, 38495, 38075, 38374, 38285, 38216, 38099, 38549, 38008, 38064, 38690, 38552, 38690, 38016, 38227, 38453, 38038, 38538, 38573, 37946, 38109, 38285, 38494, 38417, 38155, 38363, 38093, 38461, 38675, 37984, 38446, 38776, 38363, 38201, 38580, 38576, 38469, 38418, 38331, 38621, 38478, 38626, 38439, 38465, 38194, 38148, 38359, 38090, 38894, 38819, 38746, 38580, 38544, 38546, 38748, 38851, 38909, 38792, 38760, 38763, 38778, 38608, 38093, 38740, 38805, 38541, 38172, 38598, 38585, 38513, 38668, 38659, 38345, 38513, 38494, 38251, 38499, 38857, 38443, 38773, 38786, 38898, 39341, 39126, 38328, 38350, 38834, 38379, 38674, 38471, 38410, 38272, 38535, 38924, 38779, 38188, 38570, 38885, 38522, 38428, 38416, 38689, 38590, 38298, 38431, 38775, 38404, 38540, 38186, 38258, 38796, 38464, 38111, 38858, 38452, 38565, 38485, 38383, 38554],
      "WindowCenter": [9919.0, 9897.0, 9891.0, 9886.0, 9881.0, 9882.0, 9889.0, 9884.0, 9890.0, 9883.0, 9877.0, 9883.0, 9877.0, 9881.0, 9873.0, 9873.0, 9871.0, 9883.0, 9880.0, 9876.0, 9874.0, 9869.0, 9872.0, 9865.0, 9863.0, 9861.0, 9847.0, 9857.0, 9887.0, 9904.0, 9922.0, 9918.0, 9919.0, 9903.0, 9894.0, 9870.0, 9860.0, 9843.0, 9831.0, 9831.0, 9842.0, 9844.0, 9846.0, 9858.0, 9854.0, 9854.0, 9853.0, 9854.0, 9853.0, 9856.0, 9869.0, 9884.0, 9881.0, 9885.0, 9887.0, 9879.0, 9874.0, 9865.0, 9862.0, 9855.0, 9848.0, 9853.0, 9861.0, 9878.0, 9893.0, 9891.0, 9892.0, 9891.0, 9890.0, 9882.0, 9893.0, 9881.0, 9881.0, 9875.0, 9873.0, 9874.0, 9879.0, 9876.0, 9891.0, 9896.0, 9899.0, 9892.0, 9884.0, 9880.0, 9870.0, 9855.0, 9847.0, 9853.0, 9862.0, 9870.0, 9880.0, 9884.0, 9889.0, 9891.0, 9896.0, 9890.0, 9884.0, 9890.0, 9877.0, 9869.0, 9853.0, 9850.0, 9856.0, 9849.0, 9856.0, 9870.0, 9867.0, 9876.0, 9885.0, 9884.0, 9879.0, 9886.0, 9886.0, 9884.0, 9892.0, 9902.0, 9910.0, 9913.0, 9919.0, 9907.0, 9903.0, 9899.0, 9878.0, 9866.0, 9871.0, 9871.0, 9873.0, 9887.0, 9891.0, 9894.0, 9909.0, 9904.0, 9897.0, 9896.0, 9901.0, 9895.0, 9898.0, 9895.0, 9889.0, 9891.0, 9895.0, 9893.0, 9880.0, 9883.0, 9866.0, 9876.0, 9868.0, 9861.0, 9855.0, 9863.0, 9853.0, 9857.0, 9854.0, 9851.0, 9850.0, 9852.0, 9849.0, 9842.0, 9835.0, 9833.0, 9827.0, 9828.0, 9842.0, 9858.0, 9862.0, 9869.0, 9866.0, 9877.0, 9871.0, 9887.0, 9888.0, 9895.0, 9902.0, 9908.0, 9898.0, 9896.0, 9888.0, 9887.0, 9886.0, 9885.0, 9885.0, 9885.0, 9892.0, 9892.0, 9898.0, 9894.0, 9886.0, 9884.0, 9874.0, 9868.0, 9860.0, 9863.0, 9863.0, 9864.0, 9860.0, 9867.0, 9883.0, 9876.0, 9881.0, 9882.0, 9875.0, 9873.0, 9880.0, 9874.0, 9873.0, 9877.0, 9891.0, 9887.0, 9900.0, 9910.0, 9902.0, 9904.0, 9916.0, 9911.0, 9890.0, 9891.0, 9882.0, 9867.0, 9845.0, 9847.0, 9843.0, 9838.0, 9851.0, 9862.0, 9872.0, 9882.0, 9886.0, 9884.0, 9885.0, 9890.0, 9868.0, 9866.0, 9863.0, 9850.0, 9848.0, 9855.0, 9855.0, 9861.0, 9865.0, 9864.0, 9857.0, 9864.0, 9866.0, 9862.0, 9873.0, 9874.0, 9868.0, 9861.0, 9874.0, 9872.0, 9868.0, 9893.0, 9889.0, 9899.0, 9892.0, 9884.0, 9876.0, 9860.0, 9864.0, 9848.0, 9848.0, 9860.0, 9860.0, 9874.0, 9875.0, 9867.0, 9872.0, 9872.0, 9880.0, 9881.0, 9890.0, 9892.0, 9891.0, 9890.0, 9891.0, 9892.0, 9871.0, 9875.0, 9879.0, 9876.0, 9881.0, 9866.0, 9857.0, 9848.0, 9847.0, 9841.0, 9845.0, 9845.0, 9855.0, 9855.0, 9871.0, 9880.0, 9883.0, 9884.0, 9885.0, 9892.0, 9890.0, 9899.0, 9901.0, 9910.0],
