{
  "AcquisitionMatrixPE": 104,
  "AcquisitionNumber": 1,
  "AcquisitionTime": "12:01:39.180000",
  "BandwidthPerPixelPhaseEncode": 16.297,
  "BaseResolution": 104,
  "BodyPartExamined": "BRAIN",
  "ConsistencyInfo": "N4_VE11C_LATEST_20160120",
  "ConversionSoftware": "dcm2niix",
  "ConversionSoftwareVersion": "v1.0.20210317",
  "DerivedVendorReportedEchoSpacing": 0.000590009,
  "DeviceSerialNumber": "166018",
  "DwellTime": 2.1e-06,
  "EchoTime": 0.0376,
  "EchoTrainLength": 104,
  "EffectiveEchoSpacing": 0.000590009,
  "FlipAngle": 68,
  "ImageComments": "Unaliased MB6/PE3/LB",
  "ImageOrientationPatientDICOM": [0.997944, -0.0571732, 0.0289565, 0.0587644, 0.996617, -0.0574616],
  "ImageType": [
    "ORIGINAL",
    "PRIMARY",
    "M",
    "MB",
    "ND",
    "MOSAIC"
],
  "ImagingFrequency": 123.197,
  "InPlanePhaseEncodingDirectionDICOM": "COL",
  "InstitutionAddress": "Washington Place 6,NYC,NYC,US,10003",
  "InstitutionName": "NYU - CBI",
  "InstitutionalDepartmentName": "Department",
  "MRAcquisitionType": "2D",
  "MagneticFieldStrength": 3,
  "Manufacturer": "Siemens",
  "ManufacturersModelName": "Prisma",
  "Modality": "MR",
  "MultibandAccelerationFactor": 6,
  "PartialFourier": 1,
  "PatientPosition": "HFS",
  "PercentPhaseFOV": 100,
  "PercentSampling": 100,
  "PhaseEncodingDirection": "j",
  "PhaseEncodingSteps": 104,
  "PhaseResolution": 1,
  "PixelBandwidth": 2290,
  "ProcedureStepDescription": "Investigators^Winawer",
  "ProtocolName": "cmrr_mbepi_s6_2mm_66sl_PA_task-wedgering3",
  "PulseSequenceDetails": "%CustomerSeq%\\cmrr_mbep2d_bold",
  "ReceiveCoilActiveElements": "HC1-7",
  "ReceiveCoilName": "HeadNeck_64",
  "ReconMatrixPE": 104,
  "RepetitionTime": 1,
  "SAR": 0.0638816,
  "ScanOptions": "FS",
  "ScanningSequence": "EP",
  "SequenceName": "epfid2d1_104",
  "SequenceVariant": "SK\\SS",
  "SeriesDescription": "cmrr_mbepi_s6_2mm_66sl_PA_task-wedgering3",
  "SeriesNumber": 18,
  "ShimSetting": [295, -12683, -8538, 245, 1, -243, -221, 45],
  "SliceThickness": 2,
  "SliceTiming": [0, 0.535, 0.09, 0.625, 0.1775, 0.7125, 0.2675, 0.8025, 0.3575, 0.89, 0.445, 0, 0.535, 0.09, 0.625, 0.1775, 0.7125, 0.2675, 0.8025, 0.3575, 0.89, 0.445, 0, 0.535, 0.09, 0.625, 0.1775, 0.7125, 0.2675, 0.8025, 0.3575, 0.89, 0.445, 0, 0.535, 0.09, 0.625, 0.1775, 0.7125, 0.2675, 0.8025, 0.3575, 0.89, 0.445, 0, 0.535, 0.09, 0.625, 0.1775, 0.7125, 0.2675, 0.8025, 0.3575, 0.89, 0.445, 0, 0.535, 0.09, 0.625, 0.1775, 0.7125, 0.2675, 0.8025, 0.3575, 0.89, 0.445],
  "SoftwareVersions": "syngo MR E11",
  "SpacingBetweenSlices": 2,
  "StationName": "AWP166018",
  "TaskName": "wedgering3",
  "TotalReadoutTime": 0.060771,
  "TxRefAmp": 206.267,
  "VendorReportedEchoSpacing": 0.00059,
  "WipMemBlock": "8ab93efd-7fed-49d5-b171-7433b9e39542||Sequence: R016 ve11c/master r/8780670; Nov 27 2017 15:05:12 by eja",
  "dcmmeta_affine": [
    [-1.9958884716033936, 0.11752887070178986, 0.05114645138382912, 103.26673126220703],
    [0.11434636265039444, 1.9932334423065186, -0.11809025704860687, -86.39984130859375],
    [0.0579129159450531, 0.11492329090833664, 1.995855450630188, -53.27383804321289],
    [0.0, 0.0, 0.0, 1.0]
],
  "dcmmeta_reorient_transform": [
    [0.0, -1.0, 0.0, 103.0],
    [1.0, 0.0, 0.0, 0.0],
    [0.0, 0.0, 1.0, 0.0],
    [0.0, 0.0, 0.0, 1.0]
],
  "dcmmeta_shape": [104, 104, 66, 300],
  "dcmmeta_slice_dim": 2,
  "dcmmeta_version": 0.6,
  "global": {
    "const": {
      "AccessionNumber": "Lekxxqqx",
      "AcquisitionMatrix": [104, 0, 0, 104],
      "AngioFlag": "N",
      "BitsAllocated": 16,
      "BitsStored": 16,
      "BodyPartExamined": "BRAIN",
      "Columns": 936,
      "EchoNumbers": 1,
      "EchoTime": 37.6,
      "EchoTrainLength": 104,
      "FlipAngle": 68.0,
      "HighBit": 15,
      "ImageOrientationPatient": [0.99794426253117, -0.0571731795129, 0.02895645740589, 0.05876443697733, 0.99661672684829, -0.0574616455815],
      "ImagePositionPatient": [-994.55384625711, -900.5202329988, -17.720423317113],
      "ImageType": [
        "ORIGINAL",
        "PRIMARY",
        "M",
        "MB",
        "ND",
        "MOSAIC"
],
      "ImagedNucleus": "1H",
      "ImagingFrequency": 123.196843,
      "InPlanePhaseEncodingDirection": "COL",
      "MRAcquisitionType": "2D",
      "MagneticFieldStrength": 3.0,
      "Manufacturer": "SIEMENS",
      "ManufacturerModelName": "Prisma",
      "Modality": "MR",
      "NumberOfAverages": 1.0,
      "NumberOfPhaseEncodingSteps": 104,
      "PercentPhaseFieldOfView": 100.0,
      "PercentSampling": 100.0,
      "PerformedProcedureStepStartTime": "111721.138000",
      "PhotometricInterpretation": "MONOCHROME2",
      "PixelBandwidth": 2290.0,
      "PixelRepresentation": 0,
      "PixelSpacing": [2.0, 2.0],
      "ProtocolName": "cmrr_mbepi_s6_2mm_66sl_PA_task-wedgering3",
      "RepetitionTime": 1000.0,
      "Rows": 936,
      "SAR": 0.06388163669348,
      "SamplesPerPixel": 1,
      "ScanOptions": "FS",
      "ScanningSequence": "EP",
      "SequenceName": "epfid2d1_104",
      "SequenceVariant": [
        "SK",
        "SS"
],
      "SeriesDescription": "cmrr_mbepi_s6_2mm_66sl_PA_task-wedgering3",
      "SeriesNumber": 18,
      "SeriesTime": "120305.374000",
      "SliceLocation": -45.421085792938,
      "SliceThickness": 2.0,
      "SmallestImagePixelValue": 0,
      "SoftwareVersions": "syngo MR E11",
      "SpacingBetweenSlices": 2.0000000311807,
      "SpecificCharacterSet": "ISO_IR 100",
      "StudyID": "1",
      "StudyTime": "111721.076000",
      "TransmitCoilName": "Body",
      "VariableFlipAngleFlag": "N",
      "WindowCenterWidthExplanation": "Algo1",
      "dBdt": 0.0},
    "slices": {}
  },
  "time": {
    "samples": {
      "AcquisitionNumber": [1, 2, 3, 4, 5, 6, 7, 8, 9, 10, 11, 12, 13, 14, 15, 16, 17, 18, 19, 20, 21, 22, 23, 24, 25, 26, 27, 28, 29, 30, 31, 32, 33, 34, 35, 36, 37, 38, 39, 40, 41, 42, 43, 44, 45, 46, 47, 48, 49, 50, 51, 52, 53, 54, 55, 56, 57, 58, 59, 60, 61, 62, 63, 64, 65, 66, 67, 68, 69, 70, 71, 72, 73, 74, 75, 76, 77, 78, 79, 80, 81, 82, 83, 84, 85, 86, 87, 88, 89, 90, 91, 92, 93, 94, 95, 96, 97, 98, 99, 100, 101, 102, 103, 104, 105, 106, 107, 108, 109, 110, 111, 112, 113, 114, 115, 116, 117, 118, 119, 120, 121, 122, 123, 124, 125, 126, 127, 128, 129, 130, 131, 132, 133, 134, 135, 136, 137, 138, 139, 140, 141, 142, 143, 144, 145, 146, 147, 148, 149, 150, 151, 152, 153, 154, 155, 156, 157, 158, 159, 160, 161, 162, 163, 164, 165, 166, 167, 168, 169, 170, 171, 172, 173, 174, 175, 176, 177, 178, 179, 180, 181, 182, 183, 184, 185, 186, 187, 188, 189, 190, 191, 192, 193, 194, 195, 196, 197, 198, 199, 200, 201, 202, 203, 204, 205, 206, 207, 208, 209, 210, 211, 212, 213, 214, 215, 216, 217, 218, 219, 220, 221, 222, 223, 224, 225, 226, 227, 228, 229, 230, 231, 232, 233, 234, 235, 236, 237, 238, 239, 240, 241, 242, 243, 244, 245, 246, 247, 248, 249, 250, 251, 252, 253, 254, 255, 256, 257, 258, 259, 260, 261, 262, 263, 264, 265, 266, 267, 268, 269, 270, 271, 272, 273, 274, 275, 276, 277, 278, 279, 280, 281, 282, 283, 284, 285, 286, 287, 288, 289, 290, 291, 292, 293, 294, 295, 296, 297, 298, 299, 300],
      "AcquisitionTime": ["120139.180000", "120140.180000", "120141.180000", "120142.180000", "120143.180000", "120144.180000", "120145.180000", "120146.180000", "120147.180000", "120148.180000", "120149.180000", "120150.180000", "120151.180000", "120152.180000", "120153.180000", "120154.180000", "120155.180000", "120156.180000", "120157.180000", "120158.180000", "120159.180000", "120200.180000", "120201.180000", "120202.180000", "120203.180000", "120204.180000", "120205.180000", "120206.180000", "120207.180000", "120208.180000", "120209.180000", "120210.180000", "120211.180000", "120212.180000", "120213.180000", "120214.180000", "120215.180000", "120216.180000", "120217.180000", "120218.180000", "120219.180000", "120220.180000", "120221.180000", "120222.180000", "120223.180000", "120224.180000", "120225.180000", "120226.180000", "120227.180000", "120228.180000", "120229.180000", "120230.180000", "120231.180000", "120232.180000", "120233.180000", "120234.180000", "120235.180000", "120236.180000", "120237.180000", "120238.180000", "120239.180000", "120240.180000", "120241.180000", "120242.180000", "120243.180000", "120244.180000", "120245.180000", "120246.180000", "120247.180000", "120248.180000", "120249.180000", "120250.180000", "120251.180000", "120252.180000", "120253.180000", "120254.180000", "120255.180000", "120256.180000", "120257.180000", "120258.180000", "120259.180000", "120300.180000", "120301.180000", "120302.180000", "120303.180000", "120304.180000", "120305.180000", "120306.180000", "120307.180000", "120308.180000", "120309.180000", "120310.180000", "120311.180000", "120312.180000", "120313.180000", "120314.180000", "120315.180000", "120316.180000", "120317.180000", "120318.180000", "120319.180000", "120320.180000", "120321.180000", "120322.180000", "120323.180000", "120324.180000", "120325.180000", "120326.180000", "120327.180000", "120328.180000", "120329.180000", "120330.180000", "120331.180000", "120332.180000", "120333.180000", "120334.180000", "120335.180000", "120336.180000", "120337.180000", "120338.180000", "120339.180000", "120340.180000", "120341.180000", "120342.180000", "120343.180000", "120344.180000", "120345.180000", "120346.180000", "120347.180000", "120348.180000", "120349.180000", "120350.180000", "120351.180000", "120352.180000", "120353.180000", "120354.180000", "120355.180000", "120356.180000", "120357.180000", "120358.180000", "120359.180000", "120400.180000", "120401.180000", "120402.180000", "120403.180000", "120404.180000", "120405.180000", "120406.180000", "120407.180000", "120408.180000", "120409.180000", "120410.180000", "120411.180000", "120412.180000", "120413.180000", "120414.180000", "120415.180000", "120416.180000", "120417.180000", "120418.180000", "120419.180000", "120420.180000", "120421.180000", "120422.180000", "120423.180000", "120424.180000", "120425.180000", "120426.180000", "120427.180000", "120428.180000", "120429.180000", "120430.180000", "120431.180000", "120432.180000", "120433.180000", "120434.180000", "120435.180000", "120436.180000", "120437.180000", "120438.180000", "120439.180000", "120440.180000", "120441.180000", "120442.180000", "120443.180000", "120444.180000", "120445.180000", "120446.180000", "120447.180000", "120448.180000", "120449.180000", "120450.180000", "120451.180000", "120452.180000", "120453.180000", "120454.180000", "120455.180000", "120456.180000", "120457.180000", "120458.180000", "120459.180000", "120500.180000", "120501.180000", "120502.180000", "120503.180000", "120504.180000", "120505.180000", "120506.180000", "120507.180000", "120508.180000", "120509.180000", "120510.180000", "120511.180000", "120512.180000", "120513.180000", "120514.180000", "120515.180000", "120516.180000", "120517.180000", "120518.180000", "120519.180000", "120520.180000", "120521.180000", "120522.180000", "120523.180000", "120524.180000", "120525.180000", "120526.180000", "120527.180000", "120528.180000", "120529.180000", "120530.180000", "120531.180000", "120532.180000", "120533.180000", "120534.180000", "120535.180000", "120536.180000", "120537.180000", "120538.180000", "120539.180000", "120540.180000", "120541.180000", "120542.180000", "120543.180000", "120544.180000", "120545.180000", "120546.180000", "120547.180000", "120548.180000", "120549.180000", "120550.180000", "120551.180000", "120552.180000", "120553.180000", "120554.180000", "120555.180000", "120556.180000", "120557.180000", "120558.180000", "120559.180000", "120600.180000", "120601.180000", "120602.180000", "120603.180000", "120604.180000", "120605.180000", "120606.180000", "120607.180000", "120608.180000", "120609.180000", "120610.180000", "120611.180000", "120612.180000", "120613.180000", "120614.180000", "120615.180000", "120616.180000", "120617.180000", "120618.180000", "120619.180000", "120620.180000", "120621.180000", "120622.180000", "120623.180000", "120624.180000", "120625.180000", "120626.180000", "120627.180000", "120628.180000", "120629.180000", "120630.180000", "120631.180000", "120632.180000", "120633.180000", "120634.180000", "120635.180000", "120636.180000", "120637.180000", "120638.180000"],
      "ContentTime": ["120305.377000", "120305.380000", "120305.383000", "120305.386000", "120305.389000", "120305.393000", "120305.396000", "120305.399000", "120305.402000", "120305.408000", "120305.411000", "120305.414000", "120305.417000", "120305.420000", "120305.423000", "120305.426000", "120305.429000", "120305.432000", "120305.436000", "120305.439000", "120305.442000", "120305.445000", "120305.448000", "120305.460000", "120305.469000", "120305.472000", "120305.475000", "120305.478000", "120305.481000", "120305.484000", "120305.487000", "120305.490000", "120305.494000", "120305.497000", "120305.500000", "120305.503000", "120305.506000", "120305.509000", "120305.512000", "120305.515000", "120305.518000", "120305.521000", "120305.524000", "120325.329000", "120325.332000", "120325.335000", "120325.338000", "120325.341000", "120325.345000", "120325.348000", "120325.351000", "120325.354000", "120325.357000", "120325.360000", "120325.363000", "120325.366000", "120325.369000", "120325.372000", "120325.375000", "120325.378000", "120325.381000", "120325.385000", "120325.396000", "120325.399000", "120325.402000", "120325.406000", "120325.409000", "120325.412000", "120325.415000", "120325.418000", "120325.421000", "120325.424000", "120345.329000", "120345.332000", "120345.335000", "120345.347000", "120345.350000", "120345.353000", "120345.356000", "120345.359000", "120345.362000", "120345.365000", "120345.368000", "120345.371000", "120345.374000", "120345.377000", "120345.380000", "120345.383000", "120345.386000", "120345.390000", "120345.393000", "120345.396000", "120345.399000", "120345.402000", "120345.405000", "120345.408000", "120345.411000", "120345.414000", "120345.417000", "120345.420000", "120405.329000", "120405.332000", "120405.335000", "120405.344000", "120405.347000", "120405.350000", "120405.353000", "120405.356000", "120405.359000", "120405.363000", "120405.366000", "120405.369000", "120405.372000", "120405.375000", "120405.378000", "120405.381000", "120405.384000", "120405.387000", "120405.390000", "120405.393000", "120405.396000", "120405.399000", "120405.402000", "120405.405000", "120405.408000", "120405.412000", "120405.415000", "120405.418000", "120425.329000", "120425.332000", "120425.335000", "120425.338000", "120425.342000", "120425.345000", "120425.348000", "120425.351000", "120425.354000", "120425.357000", "120425.360000", "120425.363000", "120425.366000", "120425.369000", "120425.372000", "120425.375000", "120425.378000", "120425.381000", "120425.384000", "120425.388000", "120425.391000", "120425.394000", "120425.397000", "120425.400000", "120425.403000", "120425.406000", "120425.409000", "120425.412000", "120425.415000", "120445.329000", "120445.332000", "120445.335000", "120445.339000", "120445.342000", "120445.345000", "120445.348000", "120445.351000", "120445.354000", "120445.357000", "120445.360000", "120445.363000", "120445.366000", "120445.369000", "120445.373000", "120445.376000", "120445.379000", "120445.382000", "120445.385000", "120445.388000", "120445.391000", "120445.394000", "120445.397000", "120445.400000", "120445.409000", "120445.412000", "120445.415000", "120445.418000", "120505.330000", "120505.333000", "120505.337000", "120505.340000", "120505.343000", "120505.346000", "120505.349000", "120505.352000", "120505.355000", "120505.358000", "120505.361000", "120505.365000", "120505.368000", "120505.371000", "120505.374000", "120505.377000", "120505.380000", "120505.383000", "120505.386000", "120505.389000", "120525.348000", "120525.351000", "120525.355000", "120525.358000", "120525.361000", "120525.364000", "120525.367000", "120525.370000", "120525.373000", "120525.376000", "120525.379000", "120525.382000", "120525.385000", "120525.388000", "120525.391000", "120525.394000", "120525.398000", "120525.401000", "120525.404000", "120525.407000", "120545.329000", "120545.332000", "120545.336000", "120545.339000", "120545.342000", "120545.345000", "120545.348000", "120545.351000", "120545.354000", "120545.357000", "120545.360000", "120545.363000", "120545.366000", "120545.369000", "120545.373000", "120545.376000", "120545.379000", "120545.382000", "120545.385000", "120545.388000", "120605.329000", "120605.333000", "120605.336000", "120605.339000", "120605.342000", "120605.345000", "120605.348000", "120605.351000", "120605.354000", "120605.357000", "120605.360000", "120605.363000", "120605.366000", "120605.370000", "120605.373000", "120605.376000", "120605.379000", "120605.382000", "120605.385000", "120605.393000", "120625.329000", "120625.333000", "120625.336000", "120625.339000", "120625.342000", "120625.345000", "120625.348000", "120625.351000", "120625.354000", "120625.357000", "120625.360000", "120625.363000", "120625.366000", "120625.370000", "120625.373000", "120625.376000", "120625.379000", "120625.382000", "120625.385000", "120625.388000", "120639.874000", "120639.879000", "120639.883000", "120639.893000", "120639.896000", "120639.900000", "120639.903000", "120639.906000", "120639.909000", "120639.912000", "120639.915000", "120639.919000", "120639.922000", "120639.925000", "120639.928000"],
      "InstanceCreationTime": ["120305.377000", "120305.380000", "120305.383000", "120305.386000", "120305.389000", "120305.393000", "120305.396000", "120305.399000", "120305.402000", "120305.408000", "120305.411000", "120305.414000", "120305.417000", "120305.420000", "120305.423000", "120305.426000", "120305.429000", "120305.432000", "120305.436000", "120305.439000", "120305.442000", "120305.445000", "120305.448000", "120305.460000", "120305.469000", "120305.472000", "120305.475000", "120305.478000", "120305.481000", "120305.484000", "120305.487000", "120305.490000", "120305.494000", "120305.497000", "120305.500000", "120305.503000", "120305.506000", "120305.509000", "120305.512000", "120305.515000", "120305.518000", "120305.521000", "120305.524000", "120325.329000", "120325.332000", "120325.335000", "120325.338000", "120325.341000", "120325.345000", "120325.348000", "120325.351000", "120325.354000", "120325.357000", "120325.360000", "120325.363000", "120325.366000", "120325.369000", "120325.372000", "120325.375000", "120325.378000", "120325.381000", "120325.385000", "120325.396000", "120325.399000", "120325.402000", "120325.406000", "120325.409000", "120325.412000", "120325.415000", "120325.418000", "120325.421000", "120325.424000", "120345.329000", "120345.332000", "120345.335000", "120345.347000", "120345.350000", "120345.353000", "120345.356000", "120345.359000", "120345.362000", "120345.365000", "120345.368000", "120345.371000", "120345.374000", "120345.377000", "120345.380000", "120345.383000", "120345.386000", "120345.390000", "120345.393000", "120345.396000", "120345.399000", "120345.402000", "120345.405000", "120345.408000", "120345.411000", "120345.414000", "120345.417000", "120345.420000", "120405.329000", "120405.332000", "120405.335000", "120405.344000", "120405.347000", "120405.350000", "120405.353000", "120405.356000", "120405.359000", "120405.363000", "120405.366000", "120405.369000", "120405.372000", "120405.375000", "120405.378000", "120405.381000", "120405.384000", "120405.387000", "120405.390000", "120405.393000", "120405.396000", "120405.399000", "120405.402000", "120405.405000", "120405.408000", "120405.412000", "120405.415000", "120405.418000", "120425.329000", "120425.332000", "120425.335000", "120425.338000", "120425.342000", "120425.345000", "120425.348000", "120425.351000", "120425.354000", "120425.357000", "120425.360000", "120425.363000", "120425.366000", "120425.369000", "120425.372000", "120425.375000", "120425.378000", "120425.381000", "120425.384000", "120425.388000", "120425.391000", "120425.394000", "120425.397000", "120425.400000", "120425.403000", "120425.406000", "120425.409000", "120425.412000", "120425.415000", "120445.329000", "120445.332000", "120445.335000", "120445.339000", "120445.342000", "120445.345000", "120445.348000", "120445.351000", "120445.354000", "120445.357000", "120445.360000", "120445.363000", "120445.366000", "120445.369000", "120445.373000", "120445.376000", "120445.379000", "120445.382000", "120445.385000", "120445.388000", "120445.391000", "120445.394000", "120445.397000", "120445.400000", "120445.409000", "120445.412000", "120445.415000", "120445.418000", "120505.330000", "120505.333000", "120505.337000", "120505.340000", "120505.343000", "120505.346000", "120505.349000", "120505.352000", "120505.355000", "120505.358000", "120505.361000", "120505.365000", "120505.368000", "120505.371000", "120505.374000", "120505.377000", "120505.380000", "120505.383000", "120505.386000", "120505.389000", "120525.348000", "120525.351000", "120525.355000", "120525.358000", "120525.361000", "120525.364000", "120525.367000", "120525.370000", "120525.373000", "120525.376000", "120525.379000", "120525.382000", "120525.385000", "120525.388000", "120525.391000", "120525.394000", "120525.398000", "120525.401000", "120525.404000", "120525.407000", "120545.329000", "120545.332000", "120545.336000", "120545.339000", "120545.342000", "120545.345000", "120545.348000", "120545.351000", "120545.354000", "120545.357000", "120545.360000", "120545.363000", "120545.366000", "120545.369000", "120545.373000", "120545.376000", "120545.379000", "120545.382000", "120545.385000", "120545.388000", "120605.329000", "120605.333000", "120605.336000", "120605.339000", "120605.342000", "120605.345000", "120605.348000", "120605.351000", "120605.354000", "120605.357000", "120605.360000", "120605.363000", "120605.366000", "120605.370000", "120605.373000", "120605.376000", "120605.379000", "120605.382000", "120605.385000", "120605.393000", "120625.329000", "120625.333000", "120625.336000", "120625.339000", "120625.342000", "120625.345000", "120625.348000", "120625.351000", "120625.354000", "120625.357000", "120625.360000", "120625.363000", "120625.366000", "120625.370000", "120625.373000", "120625.376000", "120625.379000", "120625.382000", "120625.385000", "120625.388000", "120639.874000", "120639.879000", "120639.883000", "120639.893000", "120639.896000", "120639.900000", "120639.903000", "120639.906000", "120639.909000", "120639.912000", "120639.915000", "120639.919000", "120639.922000", "120639.925000", "120639.928000"],
      "InstanceNumber": [1, 2, 3, 4, 5, 6, 7, 8, 9, 10, 11, 12, 13, 14, 15, 16, 17, 18, 19, 20, 21, 22, 23, 24, 25, 26, 27, 28, 29, 30, 31, 32, 33, 34, 35, 36, 37, 38, 39, 40, 41, 42, 43, 44, 45, 46, 47, 48, 49, 50, 51, 52, 53, 54, 55, 56, 57, 58, 59, 60, 61, 62, 63, 64, 65, 66, 67, 68, 69, 70, 71, 72, 73, 74, 75, 76, 77, 78, 79, 80, 81, 82, 83, 84, 85, 86, 87, 88, 89, 90, 91, 92, 93, 94, 95, 96, 97, 98, 99, 100, 101, 102, 103, 104, 105, 106, 107, 108, 109, 110, 111, 112, 113, 114, 115, 116, 117, 118, 119, 120, 121, 122, 123, 124, 125, 126, 127, 128, 129, 130, 131, 132, 133, 134, 135, 136, 137, 138, 139, 140, 141, 142, 143, 144, 145, 146, 147, 148, 149, 150, 151, 152, 153, 154, 155, 156, 157, 158, 159, 160, 161, 162, 163, 164, 165, 166, 167, 168, 169, 170, 171, 172, 173, 174, 175, 176, 177, 178, 179, 180, 181, 182, 183, 184, 185, 186, 187, 188, 189, 190, 191, 192, 193, 194, 195, 196, 197, 198, 199, 200, 201, 202, 203, 204, 205, 206, 207, 208, 209, 210, 211, 212, 213, 214, 215, 216, 217, 218, 219, 220, 221, 222, 223, 224, 225, 226, 227, 228, 229, 230, 231, 232, 233, 234, 235, 236, 237, 238, 239, 240, 241, 242, 243, 244, 245, 246, 247, 248, 249, 250, 251, 252, 253, 254, 255, 256, 257, 258, 259, 260, 261, 262, 263, 264, 265, 266, 267, 268, 269, 270, 271, 272, 273, 274, 275, 276, 277, 278, 279, 280, 281, 282, 283, 284, 285, 286, 287, 288, 289, 290, 291, 292, 293, 294, 295, 296, 297, 298, 299, 300],
      "LargestImagePixelValue": [39507, 39157, 38301, 39312, 38837, 38122, 38347, 38282, 38278, 38038, 38165, 38319, 37999, 38269, 38564, 38278, 38488, 38190, 37953, 38142, 37727, 37654, 38610, 38120, 38128, 37912, 37927, 38047, 38205, 38014, 38123, 37907, 38035, 38360, 37379, 37148, 37510, 37193, 37670, 36892, 37890, 37866, 37802, 38794, 37939, 38114, 38093, 38207, 38366, 38052, 37934, 38151, 37995, 38290, 38607, 38517, 38439, 38326, 38376, 38145, 38385, 38519, 38253, 37991, 37866, 37834, 37943, 37983, 38265, 38520, 38318, 38220, 37988, 37834, 38172, 37622, 38166, 37944, 37712, 38634, 38046, 37984, 38253, 38304, 38356, 38313, 38317, 38174, 38560, 38005, 37962, 37884, 37946, 38287, 38093, 38891, 38095, 38281, 38240, 38236, 38386, 38611, 37879, 37891, 37681, 37976, 38471, 38360, 38054, 38607, 38719, 38304, 38559, 38487, 38501, 38340, 38458, 38204, 38215, 38610, 38372, 38329, 38374, 38317, 38239, 38536, 38668, 38373, 38319, 38566, 38285, 38104, 38484, 37884, 38269, 38188, 38352, 37878, 38063, 38265, 38418, 38417, 38417, 38550, 38174, 38040, 37539, 36932, 37713, 38079, 38033, 38739, 38337, 38686, 38900, 38991, 38466, 38886, 38308, 38037, 37583, 37710, 38753, 38310, 38222, 38649, 38810, 38828, 38423, 38622, 38808, 38846, 39138, 38849, 38979, 38800, 38448, 38561, 38630, 38561, 38536, 38405, 38494, 38459, 38241, 38230, 38753, 38481, 38630, 38426, 38351, 38404, 38025, 37607, 38198, 38093, 37898, 38081, 38238, 37535, 37133, 37762, 37927, 38124, 37506, 38037, 38186, 37764, 37656, 37749, 37461, 38343, 38012, 37493, 37918, 37745, 38215, 37839, 38146, 38347, 38650, 38254, 37888, 38360, 38371, 37740, 38036, 37794, 37636, 37965, 38215, 37802, 37344, 37766, 37882, 38034, 37255, 37832, 37846, 37928, 38212, 37993, 37910, 38281, 38458, 38610, 38284, 38751, 38311, 38305, 38258, 38320, 38178, 38247, 37928, 37519, 37956, 38650, 38286, 38823, 38491, 38467, 38568, 38518, 38468, 38493, 38598, 38641, 38698, 38543, 38998, 38323, 38300, 38136, 38361, 38349, 38648, 38440, 38627, 38683, 38130, 38337, 38169, 38364, 38230, 38118, 38243, 38392, 38215, 38297, 38441, 38130, 38521, 38665, 38295, 38550, 38655, 38338, 38194, 38033],
      "WindowCenter": [9925.0, 9870.0, 9825.0, 9809.0, 9798.0, 9784.0, 9789.0, 9799.0, 9799.0, 9799.0, 9807.0, 9821.0, 9825.0, 9839.0, 9841.0, 9847.0, 9860.0, 9862.0, 9869.0, 9872.0, 9875.0, 9880.0, 9886.0, 9881.0, 9880.0, 9874.0, 9880.0, 9895.0, 9897.0, 9898.0, 9899.0, 9901.0, 9914.0, 9921.0, 9912.0, 9911.0, 9902.0, 9909.0, 9902.0, 9891.0, 9897.0, 9900.0, 9889.0, 9892.0, 9879.0, 9878.0, 9872.0, 9871.0, 9876.0, 9877.0, 9872.0, 9878.0, 9872.0, 9863.0, 9873.0, 9869.0, 9868.0, 9873.0, 9869.0, 9870.0, 9877.0, 9885.0, 9888.0, 9895.0, 9893.0, 9897.0, 9904.0, 9895.0, 9893.0, 9892.0, 9900.0, 9896.0, 9905.0, 9907.0, 9913.0, 9908.0, 9907.0, 9905.0, 9902.0, 9910.0, 9906.0, 9914.0, 9912.0, 9905.0, 9903.0, 9902.0, 9893.0, 9877.0, 9876.0, 9885.0, 9896.0, 9904.0, 9904.0, 9904.0, 9903.0, 9908.0, 9881.0, 9885.0, 9884.0, 9879.0, 9891.0, 9893.0, 9890.0, 9891.0, 9889.0, 9888.0, 9886.0, 9879.0, 9878.0, 9884.0, 9891.0, 9886.0, 9885.0, 9884.0, 9877.0, 9876.0, 9884.0, 9879.0, 9879.0, 9899.0, 9893.0, 9891.0, 9887.0, 9887.0, 9887.0, 9896.0, 9900.0, 9894.0, 9893.0, 9892.0, 9879.0, 9871.0, 9875.0, 9864.0, 9874.0, 9884.0, 9900.0, 9903.0, 9910.0, 9911.0, 9910.0, 9902.0, 9900.0, 9905.0, 9910.0, 9906.0, 9895.0, 9878.0, 9887.0, 9875.0, 9860.0, 9867.0, 9851.0, 9852.0, 9849.0, 9846.0, 9831.0, 9844.0, 9844.0, 9843.0, 9832.0, 9845.0, 9843.0, 9845.0, 9839.0, 9839.0, 9844.0, 9843.0, 9840.0, 9852.0, 9846.0, 9846.0, 9850.0, 9854.0, 9860.0, 9853.0, 9856.0, 9870.0, 9879.0, 9880.0, 9876.0, 9885.0, 9884.0, 9883.0, 9883.0, 9876.0, 9887.0, 9882.0, 9887.0, 9892.0, 9898.0, 9900.0, 9910.0, 9906.0, 9912.0, 9905.0, 9898.0, 9889.0, 9872.0, 9865.0, 9864.0, 9870.0, 9883.0, 9886.0, 9897.0, 9892.0, 9894.0, 9897.0, 9895.0, 9904.0, 9898.0, 9901.0, 9895.0, 9892.0, 9887.0, 9891.0, 9878.0, 9869.0, 9866.0, 9863.0, 9861.0, 9846.0, 9848.0, 9862.0, 9857.0, 9858.0, 9864.0, 9867.0, 9869.0, 9881.0, 9885.0, 9902.0, 9904.0, 9904.0, 9903.0, 9902.0, 9874.0, 9878.0, 9860.0, 9850.0, 9846.0, 9856.0, 9847.0, 9860.0, 9869.0, 9868.0, 9879.0, 9877.0, 9872.0, 9877.0, 9877.0, 9877.0, 9872.0, 9880.0, 9875.0, 9870.0, 9884.0, 9895.0, 9890.0, 9887.0, 9881.0, 9870.0, 9860.0, 9851.0, 9852.0, 9858.0, 9872.0, 9880.0, 9891.0, 9888.0, 9910.0, 9899.0, 9891.0, 9885.0, 9891.0, 9878.0, 9870.0, 9878.0, 9875.0, 9878.0, 9880.0, 9879.0, 9880.0, 9888.0, 9873.0, 9880.0, 9872.0, 9869.0, 9855.0, 9854.0, 9851.0, 9843.0, 9851.0, 9875.0, 9876.0, 9895.0, 9901.0, 9897.0, 9893.0, 9893.0],
