{
  "AcquisitionMatrixPE": 104,
  "AcquisitionNumber": 1,
  "AcquisitionTime": "11:42:13.167500",
  "BandwidthPerPixelPhaseEncode": 16.297,
  "BaseResolution": 104,
  "BodyPartExamined": "BRAIN",
  "ConsistencyInfo": "N4_VE11C_LATEST_20160120",
  "ConversionSoftware": "dcm2niix",
  "ConversionSoftwareVersion": "v1.0.20210317",
  "DerivedVendorReportedEchoSpacing": 0.000590009,
  "DeviceSerialNumber": "166018",
  "DwellTime": 2.1e-06,
  "EchoTime": 0.0376,
  "EchoTrainLength": 104,
  "EffectiveEchoSpacing": 0.000590009,
  "FlipAngle": 68,
  "ImageComments": "Unaliased MB6/PE3/LB",
  "ImageOrientationPatientDICOM": [0.997944, -0.0571732, 0.0289565, 0.0587644, 0.996617, -0.0574616],
  "ImageType": [
    "ORIGINAL",
    "PRIMARY",
    "M",
    "MB",
    "ND",
    "MOSAIC"
],
  "ImagingFrequency": 123.197,
  "InPlanePhaseEncodingDirectionDICOM": "COL",
  "InstitutionAddress": "Washington Place 6,NYC,NYC,US,10003",
  "InstitutionName": "NYU - CBI",
  "InstitutionalDepartmentName": "Department",
  "MRAcquisitionType": "2D",
  "MagneticFieldStrength": 3,
  "Manufacturer": "Siemens",
  "ManufacturersModelName": "Prisma",
  "Modality": "MR",
  "MultibandAccelerationFactor": 6,
  "PartialFourier": 1,
  "PatientPosition": "HFS",
  "PercentPhaseFOV": 100,
  "PercentSampling": 100,
  "PhaseEncodingDirection": "j",
  "PhaseEncodingSteps": 104,
  "PhaseResolution": 1,
  "PixelBandwidth": 2290,
  "ProcedureStepDescription": "Investigators^Winawer",
  "ProtocolName": "cmrr_mbepi_s6_2mm_66sl_PA_task-bar2",
  "PulseSequenceDetails": "%CustomerSeq%\\cmrr_mbep2d_bold",
  "ReceiveCoilActiveElements": "HC1-7",
  "ReceiveCoilName": "HeadNeck_64",
  "ReconMatrixPE": 104,
  "RepetitionTime": 1,
  "SAR": 0.0638816,
  "ScanOptions": "FS",
  "ScanningSequence": "EP",
  "SequenceName": "epfid2d1_104",
  "SequenceVariant": "SK\\SS",
  "SeriesDescription": "cmrr_mbepi_s6_2mm_66sl_PA_task-bar2",
  "SeriesNumber": 12,
  "ShimSetting": [295, -12683, -8538, 245, 1, -243, -221, 45],
  "SliceThickness": 2,
  "SliceTiming": [0, 0.5325, 0.0875, 0.6225, 0.1775, 0.7125, 0.2675, 0.8, 0.355, 0.89, 0.445, 0, 0.5325, 0.0875, 0.6225, 0.1775, 0.7125, 0.2675, 0.8, 0.355, 0.89, 0.445, 0, 0.5325, 0.0875, 0.6225, 0.1775, 0.7125, 0.2675, 0.8, 0.355, 0.89, 0.445, 0, 0.5325, 0.0875, 0.6225, 0.1775, 0.7125, 0.2675, 0.8, 0.355, 0.89, 0.445, 0, 0.5325, 0.0875, 0.6225, 0.1775, 0.7125, 0.2675, 0.8, 0.355, 0.89, 0.445, 0, 0.5325, 0.0875, 0.6225, 0.1775, 0.7125, 0.2675, 0.8, 0.355, 0.89, 0.445],
  "SoftwareVersions": "syngo MR E11",
  "SpacingBetweenSlices": 2,
  "StationName": "AWP166018",
  "TaskName": "bar2",
  "TotalReadoutTime": 0.060771,
  "TxRefAmp": 206.267,
  "VendorReportedEchoSpacing": 0.00059,
  "WipMemBlock": "ae93b521-9ddd-4e8d-99dc-8196a04d1b19||Sequence: R016 ve11c/master r/8780670; Nov 27 2017 15:05:12 by eja",
  "dcmmeta_affine": [
    [-1.9958884716033936, 0.11752887070178986, 0.05114645138382912, 103.26673126220703],
    [0.11434636265039444, 1.9932334423065186, -0.11809025704860687, -86.39984130859375],
    [0.0579129159450531, 0.11492329090833664, 1.995855450630188, -53.27383804321289],
    [0.0, 0.0, 0.0, 1.0]
],
  "dcmmeta_reorient_transform": [
    [0.0, -1.0, 0.0, 103.0],
    [1.0, 0.0, 0.0, 0.0],
    [0.0, 0.0, 1.0, 0.0],
    [0.0, 0.0, 0.0, 1.0]
],
  "dcmmeta_shape": [104, 104, 66, 300],
  "dcmmeta_slice_dim": 2,
  "dcmmeta_version": 0.6,
  "global": {
    "const": {
      "AccessionNumber": "Lekxxqqx",
      "AcquisitionMatrix": [104, 0, 0, 104],
      "AngioFlag": "N",
      "BitsAllocated": 16,
      "BitsStored": 16,
      "BodyPartExamined": "BRAIN",
      "Columns": 936,
      "EchoNumbers": 1,
      "EchoTime": 37.6,
      "EchoTrainLength": 104,
      "FlipAngle": 68.0,
      "HighBit": 15,
      "ImageOrientationPatient": [0.99794426253117, -0.0571731795129, 0.02895645740589, 0.05876443697733, 0.99661672684829, -0.0574616455815],
      "ImagePositionPatient": [-994.55384625711, -900.5202329988, -17.720423317113],
      "ImageType": [
        "ORIGINAL",
        "PRIMARY",
        "M",
        "MB",
        "ND",
        "MOSAIC"
],
      "ImagedNucleus": "1H",
      "ImagingFrequency": 123.196835,
      "InPlanePhaseEncodingDirection": "COL",
      "MRAcquisitionType": "2D",
      "MagneticFieldStrength": 3.0,
      "Manufacturer": "SIEMENS",
      "ManufacturerModelName": "Prisma",
      "Modality": "MR",
      "NumberOfAverages": 1.0,
      "NumberOfPhaseEncodingSteps": 104,
      "PercentPhaseFieldOfView": 100.0,
      "PercentSampling": 100.0,
      "PerformedProcedureStepStartTime": "111721.138000",
      "PhotometricInterpretation": "MONOCHROME2",
      "PixelBandwidth": 2290.0,
      "PixelRepresentation": 0,
      "PixelSpacing": [2.0, 2.0],
      "ProtocolName": "cmrr_mbepi_s6_2mm_66sl_PA_task-bar2",
      "RepetitionTime": 1000.0,
      "Rows": 936,
      "SAR": 0.06388163669348,
      "SamplesPerPixel": 1,
      "ScanOptions": "FS",
      "ScanningSequence": "EP",
      "SequenceName": "epfid2d1_104",
      "SequenceVariant": [
        "SK",
        "SS"
],
      "SeriesDescription": "cmrr_mbepi_s6_2mm_66sl_PA_task-bar2",
      "SeriesNumber": 12,
      "SeriesTime": "114325.353000",
      "SliceLocation": -45.421085792938,
      "SliceThickness": 2.0,
      "SmallestImagePixelValue": 0,
      "SoftwareVersions": "syngo MR E11",
      "SpacingBetweenSlices": 2.0000000311807,
      "SpecificCharacterSet": "ISO_IR 100",
      "StudyID": "1",
      "StudyTime": "111721.076000",
      "TransmitCoilName": "Body",
      "VariableFlipAngleFlag": "N",
      "WindowCenterWidthExplanation": "Algo1",
      "dBdt": 0.0},
    "slices": {}
  },
  "time": {
    "samples": {
      "AcquisitionNumber": [1, 2, 3, 4, 5, 6, 7, 8, 9, 10, 11, 12, 13, 14, 15, 16, 17, 18, 19, 20, 21, 22, 23, 24, 25, 26, 27, 28, 29, 30, 31, 32, 33, 34, 35, 36, 37, 38, 39, 40, 41, 42, 43, 44, 45, 46, 47, 48, 49, 50, 51, 52, 53, 54, 55, 56, 57, 58, 59, 60, 61, 62, 63, 64, 65, 66, 67, 68, 69, 70, 71, 72, 73, 74, 75, 76, 77, 78, 79, 80, 81, 82, 83, 84, 85, 86, 87, 88, 89, 90, 91, 92, 93, 94, 95, 96, 97, 98, 99, 100, 101, 102, 103, 104, 105, 106, 107, 108, 109, 110, 111, 112, 113, 114, 115, 116, 117, 118, 119, 120, 121, 122, 123, 124, 125, 126, 127, 128, 129, 130, 131, 132, 133, 134, 135, 136, 137, 138, 139, 140, 141, 142, 143, 144, 145, 146, 147, 148, 149, 150, 151, 152, 153, 154, 155, 156, 157, 158, 159, 160, 161, 162, 163, 164, 165, 166, 167, 168, 169, 170, 171, 172, 173, 174, 175, 176, 177, 178, 179, 180, 181, 182, 183, 184, 185, 186, 187, 188, 189, 190, 191, 192, 193, 194, 195, 196, 197, 198, 199, 200, 201, 202, 203, 204, 205, 206, 207, 208, 209, 210, 211, 212, 213, 214, 215, 216, 217, 218, 219, 220, 221, 222, 223, 224, 225, 226, 227, 228, 229, 230, 231, 232, 233, 234, 235, 236, 237, 238, 239, 240, 241, 242, 243, 244, 245, 246, 247, 248, 249, 250, 251, 252, 253, 254, 255, 256, 257, 258, 259, 260, 261, 262, 263, 264, 265, 266, 267, 268, 269, 270, 271, 272, 273, 274, 275, 276, 277, 278, 279, 280, 281, 282, 283, 284, 285, 286, 287, 288, 289, 290, 291, 292, 293, 294, 295, 296, 297, 298, 299, 300],
      "AcquisitionTime": ["114213.167500", "114214.167500", "114215.167500", "114216.167500", "114217.167500", "114218.167500", "114219.167500", "114220.167500", "114221.167500", "114222.167500", "114223.167500", "114224.167500", "114225.167500", "114226.167500", "114227.167500", "114228.167500", "114229.167500", "114230.167500", "114231.167500", "114232.167500", "114233.167500", "114234.167500", "114235.167500", "114236.167500", "114237.167500", "114238.167500", "114239.167500", "114240.167500", "114241.167500", "114242.167500", "114243.167500", "114244.167500", "114245.167500", "114246.167500", "114247.167500", "114248.167500", "114249.167500", "114250.167500", "114251.167500", "114252.167500", "114253.167500", "114254.167500", "114255.167500", "114256.167500", "114257.167500", "114258.167500", "114259.167500", "114300.167500", "114301.167500", "114302.167500", "114303.167500", "114304.167500", "114305.167500", "114306.167500", "114307.167500", "114308.167500", "114309.167500", "114310.167500", "114311.167500", "114312.167500", "114313.167500", "114314.167500", "114315.167500", "114316.167500", "114317.167500", "114318.167500", "114319.167500", "114320.167500", "114321.167500", "114322.167500", "114323.167500", "114324.167500", "114325.167500", "114326.167500", "114327.167500", "114328.167500", "114329.167500", "114330.167500", "114331.167500", "114332.167500", "114333.167500", "114334.167500", "114335.167500", "114336.167500", "114337.167500", "114338.167500", "114339.167500", "114340.167500", "114341.167500", "114342.167500", "114343.167500", "114344.167500", "114345.167500", "114346.167500", "114347.167500", "114348.167500", "114349.167500", "114350.167500", "114351.167500", "114352.167500", "114353.167500", "114354.167500", "114355.167500", "114356.167500", "114357.167500", "114358.167500", "114359.167500", "114400.167500", "114401.167500", "114402.167500", "114403.167500", "114404.167500", "114405.167500", "114406.167500", "114407.167500", "114408.167500", "114409.167500", "114410.167500", "114411.167500", "114412.167500", "114413.167500", "114414.167500", "114415.167500", "114416.167500", "114417.167500", "114418.167500", "114419.167500", "114420.167500", "114421.167500", "114422.167500", "114423.167500", "114424.167500", "114425.167500", "114426.167500", "114427.167500", "114428.167500", "114429.167500", "114430.167500", "114431.167500", "114432.167500", "114433.167500", "114434.167500", "114435.167500", "114436.167500", "114437.167500", "114438.167500", "114439.167500", "114440.167500", "114441.167500", "114442.167500", "114443.167500", "114444.167500", "114445.167500", "114446.167500", "114447.167500", "114448.167500", "114449.167500", "114450.167500", "114451.167500", "114452.167500", "114453.167500", "114454.167500", "114455.167500", "114456.167500", "114457.167500", "114458.167500", "114459.167500", "114500.167500", "114501.167500", "114502.167500", "114503.167500", "114504.167500", "114505.167500", "114506.167500", "114507.167500", "114508.167500", "114509.167500", "114510.167500", "114511.167500", "114512.167500", "114513.167500", "114514.167500", "114515.167500", "114516.167500", "114517.167500", "114518.167500", "114519.167500", "114520.167500", "114521.167500", "114522.167500", "114523.167500", "114524.167500", "114525.167500", "114526.167500", "114527.167500", "114528.167500", "114529.167500", "114530.167500", "114531.167500", "114532.167500", "114533.167500", "114534.167500", "114535.167500", "114536.167500", "114537.167500", "114538.167500", "114539.167500", "114540.167500", "114541.167500", "114542.167500", "114543.167500", "114544.167500", "114545.167500", "114546.167500", "114547.167500", "114548.167500", "114549.167500", "114550.167500", "114551.167500", "114552.167500", "114553.167500", "114554.167500", "114555.167500", "114556.167500", "114557.167500", "114558.167500", "114559.167500", "114600.167500", "114601.167500", "114602.167500", "114603.167500", "114604.167500", "114605.167500", "114606.167500", "114607.167500", "114608.167500", "114609.167500", "114610.167500", "114611.167500", "114612.167500", "114613.167500", "114614.167500", "114615.167500", "114616.167500", "114617.167500", "114618.167500", "114619.167500", "114620.167500", "114621.167500", "114622.167500", "114623.167500", "114624.167500", "114625.167500", "114626.167500", "114627.167500", "114628.167500", "114629.167500", "114630.167500", "114631.167500", "114632.167500", "114633.167500", "114634.167500", "114635.167500", "114636.167500", "114637.167500", "114638.167500", "114639.167500", "114640.167500", "114641.167500", "114642.167500", "114643.167500", "114644.167500", "114645.167500", "114646.167500", "114647.167500", "114648.167500", "114649.167500", "114650.167500", "114651.167500", "114652.167500", "114653.167500", "114654.167500", "114655.167500", "114656.167500", "114657.167500", "114658.167500", "114659.167500", "114700.167500", "114701.167500", "114702.167500", "114703.167500", "114704.167500", "114705.167500", "114706.167500", "114707.167500", "114708.167500", "114709.167500", "114710.167500", "114711.167500", "114712.167500"],
      "ContentTime": ["114325.356000", "114325.359000", "114325.363000", "114325.366000", "114325.369000", "114325.372000", "114325.375000", "114325.378000", "114325.381000", "114325.384000", "114325.387000", "114325.390000", "114325.393000", "114325.396000", "114325.399000", "114325.402000", "114325.405000", "114325.408000", "114325.411000", "114325.414000", "114325.417000", "114325.420000", "114325.423000", "114325.426000", "114325.429000", "114325.432000", "114325.435000", "114325.438000", "114325.449000", "114325.452000", "114325.455000", "114325.458000", "114345.329000", "114345.332000", "114345.335000", "114345.338000", "114345.341000", "114345.344000", "114345.347000", "114345.350000", "114345.353000", "114345.356000", "114345.359000", "114345.362000", "114345.365000", "114345.368000", "114345.371000", "114345.374000", "114345.377000", "114345.380000", "114345.383000", "114345.386000", "114345.389000", "114345.392000", "114345.395000", "114345.398000", "114345.401000", "114345.404000", "114345.407000", "114345.411000", "114405.330000", "114405.333000", "114405.336000", "114405.339000", "114405.342000", "114405.345000", "114405.348000", "114405.351000", "114405.354000", "114405.357000", "114405.360000", "114405.363000", "114405.366000", "114405.369000", "114405.372000", "114405.375000", "114405.378000", "114405.381000", "114405.385000", "114405.388000", "114405.391000", "114405.394000", "114405.397000", "114405.400000", "114405.412000", "114405.415000", "114405.418000", "114405.421000", "114405.424000", "114425.330000", "114425.333000", "114425.336000", "114425.339000", "114425.342000", "114425.345000", "114425.348000", "114425.351000", "114425.354000", "114425.357000", "114425.360000", "114425.363000", "114425.366000", "114425.370000", "114425.373000", "114425.376000", "114425.379000", "114425.382000", "114425.385000", "114425.388000", "114425.391000", "114425.394000", "114425.397000", "114425.400000", "114425.403000", "114425.406000", "114425.409000", "114425.412000", "114445.330000", "114445.333000", "114445.336000", "114445.339000", "114445.342000", "114445.345000", "114445.348000", "114445.351000", "114445.354000", "114445.357000", "114445.360000", "114445.364000", "114445.367000", "114445.370000", "114445.373000", "114445.376000", "114445.379000", "114445.382000", "114445.385000", "114445.388000", "114445.391000", "114445.394000", "114445.397000", "114445.400000", "114445.403000", "114445.406000", "114445.409000", "114445.412000", "114505.329000", "114505.332000", "114505.335000", "114505.338000", "114505.341000", "114505.344000", "114505.347000", "114505.350000", "114505.353000", "114505.356000", "114505.359000", "114505.362000", "114505.366000", "114505.369000", "114505.372000", "114505.375000", "114505.378000", "114505.381000", "114505.384000", "114505.387000", "114505.390000", "114505.393000", "114505.396000", "114505.399000", "114505.402000", "114505.405000", "114525.329000", "114525.332000", "114525.335000", "114525.338000", "114525.341000", "114525.344000", "114525.347000", "114525.350000", "114525.353000", "114525.356000", "114525.360000", "114525.363000", "114525.366000", "114525.369000", "114525.372000", "114525.375000", "114525.378000", "114525.381000", "114525.384000", "114525.387000", "114545.329000", "114545.332000", "114545.335000", "114545.338000", "114545.341000", "114545.344000", "114545.347000", "114545.350000", "114545.353000", "114545.356000", "114545.359000", "114545.362000", "114545.365000", "114545.368000", "114545.372000", "114545.375000", "114545.378000", "114545.381000", "114545.384000", "114545.387000", "114605.329000", "114605.332000", "114605.335000", "114605.338000", "114605.341000", "114605.345000", "114605.348000", "114605.351000", "114605.354000", "114605.357000", "114605.360000", "114605.363000", "114605.366000", "114605.369000", "114605.372000", "114605.375000", "114605.378000", "114605.381000", "114605.384000", "114605.387000", "114625.330000", "114625.333000", "114625.336000", "114625.339000", "114625.342000", "114625.346000", "114625.349000", "114625.352000", "114625.355000", "114625.358000", "114625.361000", "114625.364000", "114625.367000", "114625.370000", "114625.373000", "114625.376000", "114625.379000", "114625.382000", "114625.385000", "114625.388000", "114645.330000", "114645.333000", "114645.336000", "114645.345000", "114645.348000", "114645.351000", "114645.354000", "114645.357000", "114645.360000", "114645.363000", "114645.366000", "114645.369000", "114645.372000", "114645.375000", "114645.378000", "114645.381000", "114645.384000", "114645.387000", "114645.390000", "114645.393000", "114705.330000", "114705.333000", "114705.336000", "114705.339000", "114705.342000", "114705.346000", "114705.349000", "114705.352000", "114705.355000", "114705.358000", "114705.361000", "114705.364000", "114705.367000", "114705.370000", "114705.373000", "114705.376000", "114705.379000", "114705.382000", "114705.385000", "114705.388000", "114713.668000", "114713.671000", "114713.674000", "114713.677000", "114713.680000", "114713.683000", "114713.686000", "114713.689000", "114713.693000"],
      "InstanceCreationTime": ["114325.356000", "114325.359000", "114325.363000", "114325.366000", "114325.369000", "114325.372000", "114325.375000", "114325.378000", "114325.381000", "114325.384000", "114325.387000", "114325.390000", "114325.393000", "114325.396000", "114325.399000", "114325.402000", "114325.405000", "114325.408000", "114325.411000", "114325.414000", "114325.417000", "114325.420000", "114325.423000", "114325.426000", "114325.429000", "114325.432000", "114325.435000", "114325.438000", "114325.449000", "114325.452000", "114325.455000", "114325.458000", "114345.329000", "114345.332000", "114345.335000", "114345.338000", "114345.341000", "114345.344000", "114345.347000", "114345.350000", "114345.353000", "114345.356000", "114345.359000", "114345.362000", "114345.365000", "114345.368000", "114345.371000", "114345.374000", "114345.377000", "114345.380000", "114345.383000", "114345.386000", "114345.389000", "114345.392000", "114345.395000", "114345.398000", "114345.401000", "114345.404000", "114345.407000", "114345.411000", "114405.330000", "114405.333000", "114405.336000", "114405.339000", "114405.342000", "114405.345000", "114405.348000", "114405.351000", "114405.354000", "114405.357000", "114405.360000", "114405.363000", "114405.366000", "114405.369000", "114405.372000", "114405.375000", "114405.378000", "114405.381000", "114405.385000", "114405.388000", "114405.391000", "114405.394000", "114405.397000", "114405.400000", "114405.412000", "114405.415000", "114405.418000", "114405.421000", "114405.424000", "114425.330000", "114425.333000", "114425.336000", "114425.339000", "114425.342000", "114425.345000", "114425.348000", "114425.351000", "114425.354000", "114425.357000", "114425.360000", "114425.363000", "114425.366000", "114425.370000", "114425.373000", "114425.376000", "114425.379000", "114425.382000", "114425.385000", "114425.388000", "114425.391000", "114425.394000", "114425.397000", "114425.400000", "114425.403000", "114425.406000", "114425.409000", "114425.412000", "114445.330000", "114445.333000", "114445.336000", "114445.339000", "114445.342000", "114445.345000", "114445.348000", "114445.351000", "114445.354000", "114445.357000", "114445.360000", "114445.364000", "114445.367000", "114445.370000", "114445.373000", "114445.376000", "114445.379000", "114445.382000", "114445.385000", "114445.388000", "114445.391000", "114445.394000", "114445.397000", "114445.400000", "114445.403000", "114445.406000", "114445.409000", "114445.412000", "114505.329000", "114505.332000", "114505.335000", "114505.338000", "114505.341000", "114505.344000", "114505.347000", "114505.350000", "114505.353000", "114505.356000", "114505.359000", "114505.362000", "114505.366000", "114505.369000", "114505.372000", "114505.375000", "114505.378000", "114505.381000", "114505.384000", "114505.387000", "114505.390000", "114505.393000", "114505.396000", "114505.399000", "114505.402000", "114505.405000", "114525.329000", "114525.332000", "114525.335000", "114525.338000", "114525.341000", "114525.344000", "114525.347000", "114525.350000", "114525.353000", "114525.356000", "114525.360000", "114525.363000", "114525.366000", "114525.369000", "114525.372000", "114525.375000", "114525.378000", "114525.381000", "114525.384000", "114525.387000", "114545.329000", "114545.332000", "114545.335000", "114545.338000", "114545.341000", "114545.344000", "114545.347000", "114545.350000", "114545.353000", "114545.356000", "114545.359000", "114545.362000", "114545.365000", "114545.368000", "114545.372000", "114545.375000", "114545.378000", "114545.381000", "114545.384000", "114545.387000", "114605.329000", "114605.332000", "114605.335000", "114605.338000", "114605.341000", "114605.345000", "114605.348000", "114605.351000", "114605.354000", "114605.357000", "114605.360000", "114605.363000", "114605.366000", "114605.369000", "114605.372000", "114605.375000", "114605.378000", "114605.381000", "114605.384000", "114605.387000", "114625.330000", "114625.333000", "114625.336000", "114625.339000", "114625.342000", "114625.346000", "114625.349000", "114625.352000", "114625.355000", "114625.358000", "114625.361000", "114625.364000", "114625.367000", "114625.370000", "114625.373000", "114625.376000", "114625.379000", "114625.382000", "114625.385000", "114625.388000", "114645.330000", "114645.333000", "114645.336000", "114645.345000", "114645.348000", "114645.351000", "114645.354000", "114645.357000", "114645.360000", "114645.363000", "114645.366000", "114645.369000", "114645.372000", "114645.375000", "114645.378000", "114645.381000", "114645.384000", "114645.387000", "114645.390000", "114645.393000", "114705.330000", "114705.333000", "114705.336000", "114705.339000", "114705.342000", "114705.346000", "114705.349000", "114705.352000", "114705.355000", "114705.358000", "114705.361000", "114705.364000", "114705.367000", "114705.370000", "114705.373000", "114705.376000", "114705.379000", "114705.382000", "114705.385000", "114705.388000", "114713.668000", "114713.671000", "114713.674000", "114713.677000", "114713.680000", "114713.683000", "114713.686000", "114713.689000", "114713.693000"],
      "InstanceNumber": [1, 2, 3, 4, 5, 6, 7, 8, 9, 10, 11, 12, 13, 14, 15, 16, 17, 18, 19, 20, 21, 22, 23, 24, 25, 26, 27, 28, 29, 30, 31, 32, 33, 34, 35, 36, 37, 38, 39, 40, 41, 42, 43, 44, 45, 46, 47, 48, 49, 50, 51, 52, 53, 54, 55, 56, 57, 58, 59, 60, 61, 62, 63, 64, 65, 66, 67, 68, 69, 70, 71, 72, 73, 74, 75, 76, 77, 78, 79, 80, 81, 82, 83, 84, 85, 86, 87, 88, 89, 90, 91, 92, 93, 94, 95, 96, 97, 98, 99, 100, 101, 102, 103, 104, 105, 106, 107, 108, 109, 110, 111, 112, 113, 114, 115, 116, 117, 118, 119, 120, 121, 122, 123, 124, 125, 126, 127, 128, 129, 130, 131, 132, 133, 134, 135, 136, 137, 138, 139, 140, 141, 142, 143, 144, 145, 146, 147, 148, 149, 150, 151, 152, 153, 154, 155, 156, 157, 158, 159, 160, 161, 162, 163, 164, 165, 166, 167, 168, 169, 170, 171, 172, 173, 174, 175, 176, 177, 178, 179, 180, 181, 182, 183, 184, 185, 186, 187, 188, 189, 190, 191, 192, 193, 194, 195, 196, 197, 198, 199, 200, 201, 202, 203, 204, 205, 206, 207, 208, 209, 210, 211, 212, 213, 214, 215, 216, 217, 218, 219, 220, 221, 222, 223, 224, 225, 226, 227, 228, 229, 230, 231, 232, 233, 234, 235, 236, 237, 238, 239, 240, 241, 242, 243, 244, 245, 246, 247, 248, 249, 250, 251, 252, 253, 254, 255, 256, 257, 258, 259, 260, 261, 262, 263, 264, 265, 266, 267, 268, 269, 270, 271, 272, 273, 274, 275, 276, 277, 278, 279, 280, 281, 282, 283, 284, 285, 286, 287, 288, 289, 290, 291, 292, 293, 294, 295, 296, 297, 298, 299, 300],
      "LargestImagePixelValue": [37838, 36438, 36199, 35762, 35638, 35244, 35212, 35084, 35237, 35297, 35524, 35205, 35355, 35097, 35436, 34773, 35351, 35808, 35489, 35134, 35886, 35718, 35797, 35173, 35147, 35947, 36066, 35332, 36179, 36270, 36011, 35828, 36161, 35169, 35680, 35834, 35484, 35919, 36218, 34959, 35163, 35803, 35930, 35365, 35949, 35575, 35496, 36008, 35972, 35976, 35845, 35637, 36269, 36198, 35509, 36013, 36008, 35556, 35679, 36079, 35454, 34867, 35918, 35224, 36035, 35784, 35147, 35508, 36085, 36102, 35025, 35600, 35582, 36029, 35928, 35699, 35948, 35361, 35791, 35031, 35807, 35401, 35828, 35871, 35577, 36010, 36516, 35288, 35896, 35928, 35632, 35655, 35849, 36334, 35589, 35529, 36386, 35539, 36750, 36786, 36226, 36621, 36019, 36075, 36482, 36364, 36317, 36975, 36776, 36108, 37420, 36751, 36782, 36865, 36912, 36429, 36759, 36968, 36712, 36986, 37168, 36931, 37536, 37358, 37117, 37416, 37100, 36891, 36997, 37201, 36476, 37009, 37387, 37205, 37305, 37517, 37245, 37159, 37333, 37222, 37075, 37677, 37374, 37711, 37560, 37560, 37847, 37435, 37125, 37453, 37550, 37586, 37576, 37540, 36901, 37450, 37853, 37596, 37386, 37372, 37537, 37122, 37056, 37522, 37171, 36916, 37446, 37491, 36469, 37473, 37778, 37115, 37461, 37626, 37304, 37259, 36966, 36766, 37165, 37712, 37354, 36517, 36677, 37404, 36784, 37318, 37095, 36721, 36470, 37048, 36911, 36905, 36481, 37077, 36788, 36984, 37415, 37032, 37110, 37355, 36996, 37307, 37647, 37030, 37159, 37256, 37196, 37171, 36599, 37109, 37236, 36745, 37704, 36730, 36441, 37372, 37434, 36932, 37385, 37277, 37043, 37187, 37367, 37190, 36699, 37311, 37478, 37118, 37756, 37646, 37111, 37386, 37486, 37375, 37226, 37461, 37352, 37567, 37402, 36975, 37412, 37325, 37702, 38140, 37306, 37544, 37422, 37601, 37008, 37506, 37630, 37758, 37076, 37682, 37682, 37800, 36344, 36295, 36513, 36890, 36815, 37617, 37367, 37035, 37252, 38251, 37725, 38055, 37676, 37964, 37750, 36798, 37608, 37287, 37408, 37264, 37669, 37851, 37753, 38122, 37940, 38242, 37547, 38084, 38000, 37911, 38016, 38463, 37616, 37758, 37585, 37805, 37481, 37274, 37311, 37526, 37216, 37888, 38463, 38091],
      "WindowCenter": [9900.0, 9870.0, 9866.0, 9859.0, 9852.0, 9847.0, 9854.0, 9848.0, 9846.0, 9846.0, 9852.0, 9847.0, 9847.0, 9847.0, 9846.0, 9841.0, 9854.0, 9868.0, 9871.0, 9875.0, 9893.0, 9895.0, 9896.0, 9891.0, 9884.0, 9898.0, 9897.0, 9876.0, 9884.0, 9885.0, 9884.0, 9877.0, 9883.0, 9864.0, 9860.0, 9864.0, 9860.0, 9864.0, 9873.0, 9868.0, 9887.0, 9893.0, 9909.0, 9906.0, 9910.0, 9908.0, 9900.0, 9897.0, 9870.0, 9861.0, 9858.0, 9844.0, 9855.0, 9856.0, 9850.0, 9857.0, 9865.0, 9856.0, 9861.0, 9874.0, 9864.0, 9858.0, 9865.0, 9865.0, 9874.0, 9872.0, 9865.0, 9872.0, 9876.0, 9875.0, 9860.0, 9862.0, 9870.0, 9868.0, 9869.0, 9867.0, 9868.0, 9864.0, 9873.0, 9860.0, 9869.0, 9862.0, 9860.0, 9852.0, 9852.0, 9864.0, 9873.0, 9870.0, 9876.0, 9877.0, 9871.0, 9863.0, 9854.0, 9857.0, 9846.0, 9854.0, 9873.0, 9870.0, 9895.0, 9901.0, 9901.0, 9902.0, 9902.0, 9893.0, 9876.0, 9870.0, 9859.0, 9868.0, 9871.0, 9859.0, 9881.0, 9881.0, 9887.0, 9894.0, 9893.0, 9886.0, 9888.0, 9886.0, 9874.0, 9864.0, 9856.0, 9841.0, 9847.0, 9843.0, 9842.0, 9849.0, 9857.0, 9860.0, 9867.0, 9877.0, 9865.0, 9875.0, 9874.0, 9868.0, 9874.0, 9869.0, 9870.0, 9869.0, 9876.0, 9879.0, 9871.0, 9882.0, 9883.0, 9876.0, 9876.0, 9877.0, 9876.0, 9874.0, 9861.0, 9858.0, 9873.0, 9864.0, 9866.0, 9876.0, 9874.0, 9876.0, 9889.0, 9875.0, 9860.0, 9859.0, 9872.0, 9861.0, 9868.0, 9882.0, 9885.0, 9880.0, 9884.0, 9877.0, 9864.0, 9861.0, 9858.0, 9847.0, 9856.0, 9855.0, 9863.0, 9866.0, 9878.0, 9885.0, 9900.0, 9916.0, 9912.0, 9893.0, 9882.0, 9884.0, 9863.0, 9850.0, 9851.0, 9856.0, 9863.0, 9881.0, 9885.0, 9885.0, 9888.0, 9887.0, 9881.0, 9884.0, 9886.0, 9881.0, 9886.0, 9886.0, 9881.0, 9881.0, 9893.0, 9891.0, 9896.0, 9897.0, 9899.0, 9906.0, 9903.0, 9917.0, 9919.0, 9902.0, 9896.0, 9877.0, 9861.0, 9862.0, 9853.0, 9840.0, 9845.0, 9849.0, 9856.0, 9857.0, 9878.0, 9880.0, 9882.0, 9888.0, 9883.0, 9881.0, 9884.0, 9886.0, 9878.0, 9879.0, 9878.0, 9885.0, 9865.0, 9870.0, 9869.0, 9861.0, 9860.0, 9855.0, 9854.0, 9853.0, 9865.0, 9868.0, 9873.0, 9870.0, 9872.0, 9869.0, 9864.0, 9869.0, 9865.0, 9865.0, 9847.0, 9855.0, 9854.0, 9867.0, 9851.0, 9858.0, 9864.0, 9879.0, 9871.0, 9884.0, 9886.0, 9872.0, 9863.0, 9869.0, 9855.0, 9851.0, 9868.0, 9870.0, 9879.0, 9873.0, 9881.0, 9883.0, 9884.0, 9868.0, 9880.0, 9863.0, 9856.0, 9861.0, 9868.0, 9876.0, 9872.0, 9877.0, 9884.0, 9881.0, 9887.0, 9893.0, 9892.0, 9898.0, 9894.0, 9906.0, 9902.0, 9894.0, 9886.0, 9884.0, 9876.0, 9880.0, 9879.0, 9877.0],
