{
  "AcquisitionMatrixPE": 104,
  "AcquisitionNumber": 1,
  "AcquisitionTime": "16:37:26.460000",
  "BandwidthPerPixelPhaseEncode": 16.578,
  "BaseResolution": 104,
  "BodyPartExamined": "BRAIN",
  "ConsistencyInfo": "N4_VE11C_LATEST_20160120",
  "ConversionSoftware": "dcm2niix",
  "ConversionSoftwareVersion": "v1.0.20190902",
  "DerivedVendorReportedEchoSpacing": 0.000580009,
  "DeviceSerialNumber": "166018",
  "DwellTime": 2.1e-06,
  "EchoTime": 0.037,
  "EchoTrainLength": 104,
  "EffectiveEchoSpacing": 0.000580009,
  "FlipAngle": 68,
  "ImageComments": "Unaliased_MB6_PE3_LB",
  "ImageOrientationPatientDICOM": [0.998425, -0.054405, 0.0137063, 0.0559954, 0.981542, -0.182868],
  "ImageType": [
    "ORIGINAL",
    "PRIMARY",
    "M",
    "MB",
    "ND",
    "MOSAIC"
],
  "ImagingFrequency": 123.191,
  "InPlanePhaseEncodingDirectionDICOM": "COL",
  "InstitutionAddress": "Washington_Place_6_NYC_NYC_US_10003",
  "InstitutionName": "NYU_-_CBI",
  "InstitutionalDepartmentName": "Department",
  "MRAcquisitionType": "2D",
  "MagneticFieldStrength": 3,
  "Manufacturer": "Siemens",
  "ManufacturersModelName": "Prisma",
  "Modality": "MR",
  "MultibandAccelerationFactor": 6,
  "PartialFourier": 1,
  "PatientPosition": "HFS",
  "PercentPhaseFOV": 100,
  "PhaseEncodingDirection": "j",
  "PhaseEncodingSteps": 104,
  "PhaseResolution": 1,
  "PixelBandwidth": 2290,
  "ProcedureStepDescription": "Investigators_Winawer",
  "ProtocolName": "cmrr_mbepi_s6_2mm_66sl_PA_task-prf",
  "PulseSequenceDetails": "%CustomerSeq%_cmrr_mbep2d_bold",
  "ReceiveCoilActiveElements": "HC1-7",
  "ReceiveCoilName": "HeadNeck_64",
  "ReconMatrixPE": 104,
  "RepetitionTime": 1,
  "SAR": 0.0600187,
  "ScanOptions": "FS",
  "ScanningSequence": "EP",
  "SequenceName": "epfid2d1_104",
  "SequenceVariant": "SK_SS",
  "SeriesDescription": "cmrr_mbepi_s6_2mm_66sl_PA_task-prf",
  "SeriesNumber": 12,
  "ShimSetting": [262, -12688, -8435, 421, 14, -313, -190, 51],
  "SliceThickness": 2,
  "SliceTiming": [0, 0.535, 0.09, 0.6225, 0.1775, 0.7125, 0.2675, 0.8025, 0.355, 0.89, 0.445, 0, 0.535, 0.09, 0.6225, 0.1775, 0.7125, 0.2675, 0.8025, 0.355, 0.89, 0.445, 0, 0.535, 0.09, 0.6225, 0.1775, 0.7125, 0.2675, 0.8025, 0.355, 0.89, 0.445, 0, 0.535, 0.09, 0.6225, 0.1775, 0.7125, 0.2675, 0.8025, 0.355, 0.89, 0.445, 0, 0.535, 0.09, 0.6225, 0.1775, 0.7125, 0.2675, 0.8025, 0.355, 0.89, 0.445, 0, 0.535, 0.09, 0.6225, 0.1775, 0.7125, 0.2675, 0.8025, 0.355, 0.89, 0.445],
  "SoftwareVersions": "syngo_MR_E11",
  "SpacingBetweenSlices": 2,
  "StationName": "AWP166018",
  "TaskName": "prf",
  "TotalReadoutTime": 0.0597409,
  "TxRefAmp": 214.703,
  "WipMemBlock": "bd7e540e-8c16-45af-9d0f-ce19cea88b1b||Sequence: R016 ve11c/master r/8780670; Nov 27 2017 15:05:12 by eja",
  "dcmmeta_affine": [
    [-1.996849775314331, 0.11199085414409637, 0.00700881564989686, 105.56240844726562],
    [0.10881001502275467, 1.963083028793335, -0.3666951060295105, -80.43143463134766],
    [0.027412692084908485, 0.365736186504364, 1.9660837650299072, -59.48920822143555],
    [0.0, 0.0, 0.0, 1.0]
],
  "dcmmeta_reorient_transform": [
    [0.0, -1.0, 0.0, 103.0],
    [1.0, 0.0, 0.0, 0.0],
    [0.0, 0.0, 1.0, 0.0],
    [0.0, 0.0, 0.0, 1.0]
],
  "dcmmeta_shape": [104, 104, 66, 192],
  "dcmmeta_slice_dim": 2,
  "dcmmeta_version": 0.6,
  "global": {
    "const": {
      "AccessionNumber": "K3FZJ5YA",
      "AcquisitionMatrix": [104, 0, 0, 104],
      "AngioFlag": "N",
      "BitsAllocated": 16,
      "BitsStored": 16,
      "BodyPartExamined": "BRAIN",
      "Columns": 936,
      "EchoNumbers": 1,
      "EchoTime": 37.0,
      "EchoTrainLength": 104,
      "FlipAngle": 68.0,
      "HighBit": 15,
      "ImageOrientationPatient": [0.9984248751527, -0.0544050067007, 0.01370634605616, 0.05599542661683, 0.98154152815794, -0.1828680964503],
      "ImagePositionPatient": [-994.37515565681, -893.143703838, 118.9241968919],
      "ImageType": [
        "ORIGINAL",
        "PRIMARY",
        "M",
        "MB",
        "ND",
        "MOSAIC"
],
      "ImagedNucleus": "1H",
      "ImagingFrequency": 123.190738,
      "InPlanePhaseEncodingDirection": "COL",
      "MRAcquisitionType": "2D",
      "MagneticFieldStrength": 3.0,
      "Manufacturer": "SIEMENS",
      "ManufacturerModelName": "Prisma",
      "Modality": "MR",
      "NumberOfAverages": 1.0,
      "NumberOfPhaseEncodingSteps": 104,
      "PercentPhaseFieldOfView": 100.0,
      "PercentSampling": 100.0,
      "PerformedProcedureStepStartTime": "161424.654000",
      "PhotometricInterpretation": "MONOCHROME2",
      "PixelBandwidth": 2290.0,
      "PixelRepresentation": 0,
      "PixelSpacing": [2.0, 2.0],
      "ProtocolName": "cmrr_mbepi_s6_2mm_66sl_PA_task-prf",
      "RepetitionTime": 1000.0,
      "Rows": 936,
      "SAR": 0.06001870760341,
      "SamplesPerPixel": 1,
      "ScanOptions": "FS",
      "ScanningSequence": "EP",
      "SequenceName": "epfid2d1_104",
      "SequenceVariant": [
        "SK",
        "SS"
],
      "SeriesDescription": "cmrr_mbepi_s6_2mm_66sl_PA_task-prf",
      "SeriesNumber": 12,
      "SeriesTime": "163844.471000",
      "SliceLocation": -43.363543396476,
      "SliceThickness": 2.0,
      "SmallestImagePixelValue": 0,
      "SoftwareVersions": "syngo MR E11",
      "SpacingBetweenSlices": 2.00000000109,
      "SpecificCharacterSet": "ISO_IR 100",
      "StudyID": "1",
      "StudyTime": "161424.601000",
      "TransmitCoilName": "Body",
      "VariableFlipAngleFlag": "N",
      "WindowCenterWidthExplanation": "Algo1",
      "dBdt": 0.0},
    "slices": {}
  },
  "time": {
    "samples": {
      "AcquisitionNumber": [1, 2, 3, 4, 5, 6, 7, 8, 9, 10, 11, 12, 13, 14, 15, 16, 17, 18, 19, 20, 21, 22, 23, 24, 25, 26, 27, 28, 29, 30, 31, 32, 33, 34, 35, 36, 37, 38, 39, 40, 41, 42, 43, 44, 45, 46, 47, 48, 49, 50, 51, 52, 53, 54, 55, 56, 57, 58, 59, 60, 61, 62, 63, 64, 65, 66, 67, 68, 69, 70, 71, 72, 73, 74, 75, 76, 77, 78, 79, 80, 81, 82, 83, 84, 85, 86, 87, 88, 89, 90, 91, 92, 93, 94, 95, 96, 97, 98, 99, 100, 101, 102, 103, 104, 105, 106, 107, 108, 109, 110, 111, 112, 113, 114, 115, 116, 117, 118, 119, 120, 121, 122, 123, 124, 125, 126, 127, 128, 129, 130, 131, 132, 133, 134, 135, 136, 137, 138, 139, 140, 141, 142, 143, 144, 145, 146, 147, 148, 149, 150, 151, 152, 153, 154, 155, 156, 157, 158, 159, 160, 161, 162, 163, 164, 165, 166, 167, 168, 169, 170, 171, 172, 173, 174, 175, 176, 177, 178, 179, 180, 181, 182, 183, 184, 185, 186, 187, 188, 189, 190, 191, 192],
      "AcquisitionTime": ["163726.460000", "163727.460000", "163728.460000", "163729.460000", "163730.460000", "163731.460000", "163732.460000", "163733.460000", "163734.460000", "163735.460000", "163736.460000", "163737.460000", "163738.460000", "163739.460000", "163740.460000", "163741.460000", "163742.460000", "163743.460000", "163744.460000", "163745.460000", "163746.460000", "163747.460000", "163748.460000", "163749.460000", "163750.460000", "163751.460000", "163752.460000", "163753.460000", "163754.460000", "163755.460000", "163756.460000", "163757.460000", "163758.460000", "163759.460000", "163800.460000", "163801.460000", "163802.460000", "163803.460000", "163804.460000", "163805.460000", "163806.460000", "163807.460000", "163808.460000", "163809.460000", "163810.460000", "163811.460000", "163812.460000", "163813.460000", "163814.460000", "163815.460000", "163816.460000", "163817.460000", "163818.460000", "163819.460000", "163820.460000", "163821.460000", "163822.460000", "163823.460000", "163824.460000", "163825.460000", "163826.460000", "163827.460000", "163828.460000", "163829.460000", "163830.460000", "163831.460000", "163832.460000", "163833.460000", "163834.460000", "163835.460000", "163836.460000", "163837.460000", "163838.460000", "163839.460000", "163840.460000", "163841.460000", "163842.460000", "163843.460000", "163844.460000", "163845.460000", "163846.460000", "163847.460000", "163848.460000", "163849.460000", "163850.460000", "163851.460000", "163852.460000", "163853.460000", "163854.460000", "163855.460000", "163856.460000", "163857.460000", "163858.460000", "163859.460000", "163900.460000", "163901.460000", "163902.460000", "163903.460000", "163904.460000", "163905.460000", "163906.460000", "163907.460000", "163908.460000", "163909.460000", "163910.460000", "163911.460000", "163912.460000", "163913.460000", "163914.460000", "163915.460000", "163916.460000", "163917.460000", "163918.460000", "163919.460000", "163920.460000", "163921.460000", "163922.460000", "163923.460000", "163924.460000", "163925.460000", "163926.460000", "163927.460000", "163928.460000", "163929.460000", "163930.460000", "163931.460000", "163932.460000", "163933.460000", "163934.460000", "163935.460000", "163936.460000", "163937.460000", "163938.460000", "163939.460000", "163940.460000", "163941.460000", "163942.460000", "163943.460000", "163944.460000", "163945.460000", "163946.460000", "163947.460000", "163948.460000", "163949.460000", "163950.460000", "163951.460000", "163952.460000", "163953.460000", "163954.460000", "163955.460000", "163956.460000", "163957.460000", "163958.460000", "163959.460000", "164000.460000", "164001.460000", "164002.460000", "164003.460000", "164004.460000", "164005.460000", "164006.460000", "164007.460000", "164008.460000", "164009.460000", "164010.460000", "164011.460000", "164012.460000", "164013.460000", "164014.460000", "164015.460000", "164016.460000", "164017.460000", "164018.460000", "164019.460000", "164020.460000", "164021.460000", "164022.460000", "164023.460000", "164024.460000", "164025.460000", "164026.460000", "164027.460000", "164028.460000", "164029.460000", "164030.460000", "164031.460000", "164032.460000", "164033.460000", "164034.460000", "164035.460000", "164036.460000", "164037.460000"],
      "ContentTime": ["163844.473000", "163844.477000", "163844.480000", "163844.482000", "163844.485000", "163844.488000", "163844.491000", "163844.499000", "163844.501000", "163844.504000", "163844.507000", "163844.510000", "163844.513000", "163844.516000", "163844.519000", "163844.522000", "163844.525000", "163844.528000", "163844.531000", "163844.533000", "163844.536000", "163844.539000", "163844.542000", "163844.551000", "163844.554000", "163844.557000", "163844.560000", "163844.563000", "163844.566000", "163844.569000", "163844.572000", "163844.575000", "163844.577000", "163844.580000", "163844.583000", "163844.586000", "163844.589000", "163844.592000", "163844.595000", "163844.598000", "163844.601000", "163904.446000", "163904.449000", "163904.452000", "163904.455000", "163904.457000", "163904.460000", "163904.463000", "163904.466000", "163904.469000", "163904.472000", "163904.475000", "163904.478000", "163904.481000", "163904.483000", "163904.486000", "163904.489000", "163904.492000", "163904.495000", "163904.498000", "163904.500000", "163904.503000", "163904.506000", "163904.509000", "163904.512000", "163904.515000", "163904.518000", "163904.521000", "163904.529000", "163924.446000", "163924.449000", "163924.452000", "163924.455000", "163924.458000", "163924.460000", "163924.463000", "163924.466000", "163924.469000", "163924.472000", "163924.475000", "163924.478000", "163924.481000", "163924.484000", "163924.486000", "163924.489000", "163924.492000", "163924.495000", "163924.498000", "163924.501000", "163924.504000", "163924.507000", "163924.509000", "163924.512000", "163924.515000", "163924.518000", "163924.521000", "163924.524000", "163924.527000", "163944.445000", "163944.448000", "163944.451000", "163944.454000", "163944.456000", "163944.459000", "163944.462000", "163944.465000", "163944.468000", "163944.471000", "163944.474000", "163944.477000", "163944.480000", "163944.483000", "163944.485000", "163944.488000", "163944.491000", "163944.494000", "163944.497000", "163944.500000", "163944.503000", "163944.506000", "163944.508000", "163944.511000", "163944.514000", "163944.526000", "163944.529000", "163944.532000", "164004.445000", "164004.448000", "164004.451000", "164004.454000", "164004.456000", "164004.459000", "164004.462000", "164004.465000", "164004.468000", "164004.471000", "164004.474000", "164004.477000", "164004.479000", "164004.482000", "164004.485000", "164004.488000", "164004.491000", "164004.494000", "164004.497000", "164004.500000", "164004.503000", "164004.505000", "164004.508000", "164004.511000", "164004.514000", "164004.517000", "164004.520000", "164004.523000", "164024.446000", "164024.449000", "164024.452000", "164024.455000", "164024.457000", "164024.460000", "164024.463000", "164024.466000", "164024.469000", "164024.472000", "164024.475000", "164024.485000", "164024.488000", "164024.491000", "164024.493000", "164024.496000", "164024.499000", "164024.502000", "164024.505000", "164024.508000", "164024.511000", "164024.514000", "164024.516000", "164038.923000", "164038.927000", "164038.930000", "164038.932000", "164038.935000", "164038.938000", "164038.941000", "164038.944000", "164038.947000", "164038.950000", "164038.953000", "164038.956000", "164038.959000", "164038.961000", "164038.964000"],
      "InstanceCreationTime": ["163844.473000", "163844.477000", "163844.480000", "163844.482000", "163844.485000", "163844.488000", "163844.491000", "163844.499000", "163844.501000", "163844.504000", "163844.507000", "163844.510000", "163844.513000", "163844.516000", "163844.519000", "163844.522000", "163844.525000", "163844.528000", "163844.531000", "163844.533000", "163844.536000", "163844.539000", "163844.542000", "163844.551000", "163844.554000", "163844.557000", "163844.560000", "163844.563000", "163844.566000", "163844.569000", "163844.572000", "163844.575000", "163844.577000", "163844.580000", "163844.583000", "163844.586000", "163844.589000", "163844.592000", "163844.595000", "163844.598000", "163844.601000", "163904.446000", "163904.449000", "163904.452000", "163904.455000", "163904.457000", "163904.460000", "163904.463000", "163904.466000", "163904.469000", "163904.472000", "163904.475000", "163904.478000", "163904.481000", "163904.483000", "163904.486000", "163904.489000", "163904.492000", "163904.495000", "163904.498000", "163904.500000", "163904.503000", "163904.506000", "163904.509000", "163904.512000", "163904.515000", "163904.518000", "163904.521000", "163904.529000", "163924.446000", "163924.449000", "163924.452000", "163924.455000", "163924.458000", "163924.460000", "163924.463000", "163924.466000", "163924.469000", "163924.472000", "163924.475000", "163924.478000", "163924.481000", "163924.484000", "163924.486000", "163924.489000", "163924.492000", "163924.495000", "163924.498000", "163924.501000", "163924.504000", "163924.507000", "163924.509000", "163924.512000", "163924.515000", "163924.518000", "163924.521000", "163924.524000", "163924.527000", "163944.445000", "163944.448000", "163944.451000", "163944.454000", "163944.456000", "163944.459000", "163944.462000", "163944.465000", "163944.468000", "163944.471000", "163944.474000", "163944.477000", "163944.480000", "163944.483000", "163944.485000", "163944.488000", "163944.491000", "163944.494000", "163944.497000", "163944.500000", "163944.503000", "163944.506000", "163944.508000", "163944.511000", "163944.514000", "163944.526000", "163944.529000", "163944.532000", "164004.445000", "164004.448000", "164004.451000", "164004.454000", "164004.456000", "164004.459000", "164004.462000", "164004.465000", "164004.468000", "164004.471000", "164004.474000", "164004.477000", "164004.479000", "164004.482000", "164004.485000", "164004.488000", "164004.491000", "164004.494000", "164004.497000", "164004.500000", "164004.503000", "164004.505000", "164004.508000", "164004.511000", "164004.514000", "164004.517000", "164004.520000", "164004.523000", "164024.446000", "164024.449000", "164024.452000", "164024.455000", "164024.457000", "164024.460000", "164024.463000", "164024.466000", "164024.469000", "164024.472000", "164024.475000", "164024.485000", "164024.488000", "164024.491000", "164024.493000", "164024.496000", "164024.499000", "164024.502000", "164024.505000", "164024.508000", "164024.511000", "164024.514000", "164024.516000", "164038.923000", "164038.927000", "164038.930000", "164038.932000", "164038.935000", "164038.938000", "164038.941000", "164038.944000", "164038.947000", "164038.950000", "164038.953000", "164038.956000", "164038.959000", "164038.961000", "164038.964000"],
      "InstanceNumber": [1, 2, 3, 4, 5, 6, 7, 8, 9, 10, 11, 12, 13, 14, 15, 16, 17, 18, 19, 20, 21, 22, 23, 24, 25, 26, 27, 28, 29, 30, 31, 32, 33, 34, 35, 36, 37, 38, 39, 40, 41, 42, 43, 44, 45, 46, 47, 48, 49, 50, 51, 52, 53, 54, 55, 56, 57, 58, 59, 60, 61, 62, 63, 64, 65, 66, 67, 68, 69, 70, 71, 72, 73, 74, 75, 76, 77, 78, 79, 80, 81, 82, 83, 84, 85, 86, 87, 88, 89, 90, 91, 92, 93, 94, 95, 96, 97, 98, 99, 100, 101, 102, 103, 104, 105, 106, 107, 108, 109, 110, 111, 112, 113, 114, 115, 116, 117, 118, 119, 120, 121, 122, 123, 124, 125, 126, 127, 128, 129, 130, 131, 132, 133, 134, 135, 136, 137, 138, 139, 140, 141, 142, 143, 144, 145, 146, 147, 148, 149, 150, 151, 152, 153, 154, 155, 156, 157, 158, 159, 160, 161, 162, 163, 164, 165, 166, 167, 168, 169, 170, 171, 172, 173, 174, 175, 176, 177, 178, 179, 180, 181, 182, 183, 184, 185, 186, 187, 188, 189, 190, 191, 192],
      "LargestImagePixelValue": [39577, 37901, 38706, 38519, 38149, 36973, 37572, 37680, 37384, 37627, 37657, 37110, 37395, 37263, 37653, 37241, 37675, 37221, 37269, 37333, 37676, 37056, 37032, 37310, 37449, 37395, 38025, 37712, 38262, 37991, 37625, 37412, 37405, 38115, 38354, 37842, 38322, 37882, 37640, 37704, 38573, 38270, 38158, 37778, 37260, 38228, 37522, 37750, 37907, 37982, 38156, 38416, 37956, 37854, 37842, 37620, 37609, 37974, 37811, 38081, 37506, 38533, 37690, 37448, 38502, 38119, 37986, 37862, 37800, 37949, 37642, 38150, 38077, 38162, 37916, 37663, 38082, 38432, 38209, 37421, 37298, 38308, 38302, 37533, 37664, 38683, 38397, 37914, 37902, 37689, 38122, 38066, 37728, 38373, 37975, 37742, 37677, 38002, 38272, 38106, 38412, 38697, 38322, 38492, 38418, 37567, 38444, 37700, 37486, 38058, 38207, 37676, 38700, 38272, 38377, 38026, 38029, 37593, 37802, 37709, 37533, 38422, 38106, 37928, 38192, 38715, 37730, 37453, 37786, 38214, 38679, 37727, 38477, 38631, 38178, 38756, 38158, 37489, 37992, 38362, 38828, 38282, 38624, 38326, 37932, 38086, 38385, 38240, 37954, 38529, 38404, 37698, 38322, 37931, 38562, 38870, 38142, 38108, 38390, 37944, 38416, 38406, 37911, 38469, 37892, 37755, 38587, 38498, 38532, 39111, 38541, 38361, 38438, 38462, 38336, 38429, 38263, 39191, 39228, 38015, 38522, 38274, 38247, 38727, 38607, 38727, 38416, 38558, 38208, 38043, 38017, 38163],
      "WindowCenter": [10204.0, 10166.0, 10157.0, 10132.0, 10106.0, 10072.0, 10059.0, 10052.0, 10067.0, 10091.0, 10112.0, 10097.0, 10088.0, 10073.0, 10067.0, 10055.0, 10059.0, 10057.0, 10064.0, 10076.0, 10085.0, 10087.0, 10088.0, 10093.0, 10093.0, 10093.0, 10098.0, 10099.0, 10104.0, 10104.0, 10099.0, 10087.0, 10080.0, 10084.0, 10092.0, 10082.0, 10092.0, 10083.0, 10084.0, 10097.0, 10108.0, 10103.0, 10098.0, 10098.0, 10094.0, 10111.0, 10110.0, 10114.0, 10107.0, 10105.0, 10099.0, 10111.0, 10114.0, 10122.0, 10121.0, 10116.0, 10114.0, 10111.0, 10112.0, 10114.0, 10115.0, 10126.0, 10130.0, 10135.0, 10143.0, 10129.0, 10114.0, 10101.0, 10098.0, 10091.0, 10085.0, 10088.0, 10088.0, 10088.0, 10089.0, 10091.0, 10102.0, 10102.0, 10102.0, 10092.0, 10090.0, 10107.0, 10116.0, 10109.0, 10105.0, 10107.0, 10101.0, 10096.0, 10089.0, 10088.0, 10093.0, 10093.0, 10083.0, 10100.0, 10095.0, 10087.0, 10073.0, 10072.0, 10075.0, 10077.0, 10092.0, 10099.0, 10107.0, 10102.0, 10094.0, 10077.0, 10092.0, 10090.0, 10092.0, 10101.0, 10098.0, 10105.0, 10121.0, 10116.0, 10112.0, 10112.0, 10112.0, 10102.0, 10106.0, 10092.0, 10080.0, 10100.0, 10095.0, 10089.0, 10091.0, 10108.0, 10107.0, 10101.0, 10089.0, 10071.0, 10072.0, 10070.0, 10088.0, 10091.0, 10089.0, 10092.0, 10088.0, 10071.0, 10065.0, 10055.0, 10057.0, 10061.0, 10074.0, 10068.0, 10064.0, 10064.0, 10061.0, 10058.0, 10066.0, 10070.0, 10071.0, 10067.0, 10077.0, 10072.0, 10068.0, 10067.0, 10066.0, 10080.0, 10085.0, 10065.0, 10053.0, 10037.0, 10047.0, 10067.0, 10067.0, 10060.0, 10064.0, 10061.0, 10056.0, 10057.0, 10046.0, 10054.0, 10076.0, 10084.0, 10065.0, 10040.0, 10021.0, 10022.0, 10037.0, 10053.0, 10075.0, 10068.0, 10070.0, 10076.0, 10063.0, 10046.0, 10030.0, 10031.0, 10038.0, 10052.0, 10048.0, 10055.0],
      "WindowWidth": [22061.0, 21953.0, 21917.0, 21848.0, 21784.0, 21704.0, 21670.0, 21654.0, 21688.0, 21742.0, 21790.0, 21760.0, 21735.0, 21699.0, 21680.0, 21656.0, 21665.0, 21664.0, 21681.0, 21709.0, 21730.0, 21736.0, 21740.0, 21750.0, 21752.0, 21748.0, 21760.0, 21763.0, 21774.0, 21774.0, 21761.0, 21735.0, 21717.0, 21723.0, 21738.0, 21720.0, 21741.0, 21724.0, 21728.0, 21755.0, 21778.0, 21768.0, 21760.0, 21759.0, 21751.0, 21789.0, 21788.0, 21796.0, 21779.0, 21773.0, 21762.0, 21791.0, 21801.0, 21818.0, 21816.0, 21804.0, 21796.0, 21788.0, 21791.0, 21797.0, 21800.0, 21823.0, 21835.0, 21849.0, 21862.0, 21829.0, 21794.0, 21765.0, 21758.0, 21744.0, 21729.0, 21735.0, 21734.0, 21735.0, 21737.0, 21742.0, 21763.0, 21763.0, 21766.0, 21745.0, 21739.0, 21773.0, 21793.0, 21784.0, 21774.0, 21774.0, 21762.0, 21754.0, 21737.0, 21732.0, 21740.0, 21741.0, 21722.0, 21757.0, 21747.0, 21728.0, 21696.0, 21693.0, 21697.0, 21703.0, 21737.0, 21755.0, 21772.0, 21762.0, 21743.0, 21710.0, 21740.0, 21738.0, 21746.0, 21762.0, 21757.0, 21774.0, 21807.0, 21797.0, 21791.0, 21789.0, 21789.0, 21770.0, 21774.0, 21743.0, 21718.0, 21755.0, 21746.0, 21736.0, 21741.0, 21778.0, 21781.0, 21768.0, 21737.0, 21692.0, 21689.0, 21689.0, 21726.0, 21737.0, 21733.0, 21736.0, 21729.0, 21691.0, 21675.0, 21647.0, 21649.0, 21663.0, 21693.0, 21682.0, 21673.0, 21672.0, 21663.0, 21659.0, 21681.0, 21686.0, 21691.0, 21683.0, 21701.0, 21690.0, 21678.0, 21678.0, 21680.0, 21713.0, 21723.0, 21678.0, 21644.0, 21606.0, 21632.0, 21678.0, 21685.0, 21668.0, 21669.0, 21662.0, 21652.0, 21649.0, 21629.0, 21649.0, 21702.0, 21722.0, 21677.0, 21620.0, 21573.0, 21570.0, 21604.0, 21647.0, 21697.0, 21680.0, 21684.0, 21696.0, 21667.0, 21627.0, 21590.0, 21593.0, 21612.0, 21642.0, 21636.0, 21650.0]
    },
    "slices": {}
  },
  "NumberOfVolumes": 192
}