{
  "AcquisitionMatrixPE": 104,
  "AcquisitionNumber": 1,
  "AcquisitionTime": "16:45:2.467500",
  "BandwidthPerPixelPhaseEncode": 16.578,
  "BaseResolution": 104,
  "BodyPartExamined": "BRAIN",
  "ConsistencyInfo": "N4_VE11C_LATEST_20160120",
  "ConversionSoftware": "dcm2niix",
  "ConversionSoftwareVersion": "v1.0.20190902",
  "DerivedVendorReportedEchoSpacing": 0.000580009,
  "DeviceSerialNumber": "166018",
  "DwellTime": 2.1e-06,
  "EchoTime": 0.037,
  "EchoTrainLength": 104,
  "EffectiveEchoSpacing": 0.000580009,
  "FlipAngle": 68,
  "ImageComments": "Unaliased_MB6_PE3_LB",
  "ImageOrientationPatientDICOM": [0.998425, -0.054405, 0.0137063, 0.0559954, 0.981542, -0.182868],
  "ImageType": [
    "ORIGINAL",
    "PRIMARY",
    "M",
    "MB",
    "ND",
    "MOSAIC"
],
  "ImagingFrequency": 123.191,
  "InPlanePhaseEncodingDirectionDICOM": "COL",
  "InstitutionAddress": "Washington_Place_6_NYC_NYC_US_10003",
  "InstitutionName": "NYU_-_CBI",
  "InstitutionalDepartmentName": "Department",
  "MRAcquisitionType": "2D",
  "MagneticFieldStrength": 3,
  "Manufacturer": "Siemens",
  "ManufacturersModelName": "Prisma",
  "Modality": "MR",
  "MultibandAccelerationFactor": 6,
  "PartialFourier": 1,
  "PatientPosition": "HFS",
  "PercentPhaseFOV": 100,
  "PhaseEncodingDirection": "j",
  "PhaseEncodingSteps": 104,
  "PhaseResolution": 1,
  "PixelBandwidth": 2290,
  "ProcedureStepDescription": "Investigators_Winawer",
  "ProtocolName": "cmrr_mbepi_s6_2mm_66sl_PA_task-prf",
  "PulseSequenceDetails": "%CustomerSeq%_cmrr_mbep2d_bold",
  "ReceiveCoilActiveElements": "HC1-7",
  "ReceiveCoilName": "HeadNeck_64",
  "ReconMatrixPE": 104,
  "RepetitionTime": 1,
  "SAR": 0.0600187,
  "ScanOptions": "FS",
  "ScanningSequence": "EP",
  "SequenceName": "epfid2d1_104",
  "SequenceVariant": "SK_SS",
  "SeriesDescription": "cmrr_mbepi_s6_2mm_66sl_PA_task-prf",
  "SeriesNumber": 16,
  "ShimSetting": [262, -12688, -8435, 421, 14, -313, -190, 51],
  "SliceThickness": 2,
  "SliceTiming": [0, 0.535, 0.0875, 0.6225, 0.1775, 0.7125, 0.2675, 0.8, 0.355, 0.89, 0.445, 0, 0.535, 0.0875, 0.6225, 0.1775, 0.7125, 0.2675, 0.8, 0.355, 0.89, 0.445, 0, 0.535, 0.0875, 0.6225, 0.1775, 0.7125, 0.2675, 0.8, 0.355, 0.89, 0.445, 0, 0.535, 0.0875, 0.6225, 0.1775, 0.7125, 0.2675, 0.8, 0.355, 0.89, 0.445, 0, 0.535, 0.0875, 0.6225, 0.1775, 0.7125, 0.2675, 0.8, 0.355, 0.89, 0.445, 0, 0.535, 0.0875, 0.6225, 0.1775, 0.7125, 0.2675, 0.8, 0.355, 0.89, 0.445],
  "SoftwareVersions": "syngo_MR_E11",
  "SpacingBetweenSlices": 2,
  "StationName": "AWP166018",
  "TaskName": "prf",
  "TotalReadoutTime": 0.0597409,
  "TxRefAmp": 214.703,
  "WipMemBlock": "bd7e540e-8c16-45af-9d0f-ce19cea88b1b||Sequence: R016 ve11c/master r/8780670; Nov 27 2017 15:05:12 by eja",
  "dcmmeta_affine": [
    [-1.996849775314331, 0.11199085414409637, 0.00700881564989686, 105.56240844726562],
    [0.10881001502275467, 1.963083028793335, -0.3666951060295105, -80.43143463134766],
    [0.027412692084908485, 0.365736186504364, 1.9660837650299072, -59.48920822143555],
    [0.0, 0.0, 0.0, 1.0]
],
  "dcmmeta_reorient_transform": [
    [0.0, -1.0, 0.0, 103.0],
    [1.0, 0.0, 0.0, 0.0],
    [0.0, 0.0, 1.0, 0.0],
    [0.0, 0.0, 0.0, 1.0]
],
  "dcmmeta_shape": [104, 104, 66, 192],
  "dcmmeta_slice_dim": 2,
  "dcmmeta_version": 0.6,
  "global": {
    "const": {
      "AccessionNumber": "K3FZJ5YA",
      "AcquisitionMatrix": [104, 0, 0, 104],
      "AngioFlag": "N",
      "BitsAllocated": 16,
      "BitsStored": 16,
      "BodyPartExamined": "BRAIN",
      "Columns": 936,
      "EchoNumbers": 1,
      "EchoTime": 37.0,
      "EchoTrainLength": 104,
      "FlipAngle": 68.0,
      "HighBit": 15,
      "ImageOrientationPatient": [0.9984248751527, -0.0544050067007, 0.01370634605616, 0.05599542661683, 0.98154152815794, -0.1828680964503],
      "ImagePositionPatient": [-994.37515565681, -893.143703838, 118.9241968919],
      "ImageType": [
        "ORIGINAL",
        "PRIMARY",
        "M",
        "MB",
        "ND",
        "MOSAIC"
],
      "ImagedNucleus": "1H",
      "ImagingFrequency": 123.190738,
      "InPlanePhaseEncodingDirection": "COL",
      "MRAcquisitionType": "2D",
      "MagneticFieldStrength": 3.0,
      "Manufacturer": "SIEMENS",
      "ManufacturerModelName": "Prisma",
      "Modality": "MR",
      "NumberOfAverages": 1.0,
      "NumberOfPhaseEncodingSteps": 104,
      "PercentPhaseFieldOfView": 100.0,
      "PercentSampling": 100.0,
      "PerformedProcedureStepStartTime": "161424.654000",
      "PhotometricInterpretation": "MONOCHROME2",
      "PixelBandwidth": 2290.0,
      "PixelRepresentation": 0,
      "PixelSpacing": [2.0, 2.0],
      "ProtocolName": "cmrr_mbepi_s6_2mm_66sl_PA_task-prf",
      "RepetitionTime": 1000.0,
      "Rows": 936,
      "SAR": 0.06001870760341,
      "SamplesPerPixel": 1,
      "ScanOptions": "FS",
      "ScanningSequence": "EP",
      "SequenceName": "epfid2d1_104",
      "SequenceVariant": [
        "SK",
        "SS"
],
      "SeriesDescription": "cmrr_mbepi_s6_2mm_66sl_PA_task-prf",
      "SeriesNumber": 16,
      "SeriesTime": "164624.613000",
      "SliceLocation": -43.363543396476,
      "SliceThickness": 2.0,
      "SmallestImagePixelValue": 0,
      "SoftwareVersions": "syngo MR E11",
      "SpacingBetweenSlices": 2.00000000109,
      "SpecificCharacterSet": "ISO_IR 100",
      "StudyID": "1",
      "StudyTime": "161424.601000",
      "TransmitCoilName": "Body",
      "VariableFlipAngleFlag": "N",
      "WindowCenterWidthExplanation": "Algo1",
      "dBdt": 0.0},
    "slices": {}
  },
  "time": {
    "samples": {
      "AcquisitionNumber": [1, 2, 3, 4, 5, 6, 7, 8, 9, 10, 11, 12, 13, 14, 15, 16, 17, 18, 19, 20, 21, 22, 23, 24, 25, 26, 27, 28, 29, 30, 31, 32, 33, 34, 35, 36, 37, 38, 39, 40, 41, 42, 43, 44, 45, 46, 47, 48, 49, 50, 51, 52, 53, 54, 55, 56, 57, 58, 59, 60, 61, 62, 63, 64, 65, 66, 67, 68, 69, 70, 71, 72, 73, 74, 75, 76, 77, 78, 79, 80, 81, 82, 83, 84, 85, 86, 87, 88, 89, 90, 91, 92, 93, 94, 95, 96, 97, 98, 99, 100, 101, 102, 103, 104, 105, 106, 107, 108, 109, 110, 111, 112, 113, 114, 115, 116, 117, 118, 119, 120, 121, 122, 123, 124, 125, 126, 127, 128, 129, 130, 131, 132, 133, 134, 135, 136, 137, 138, 139, 140, 141, 142, 143, 144, 145, 146, 147, 148, 149, 150, 151, 152, 153, 154, 155, 156, 157, 158, 159, 160, 161, 162, 163, 164, 165, 166, 167, 168, 169, 170, 171, 172, 173, 174, 175, 176, 177, 178, 179, 180, 181, 182, 183, 184, 185, 186, 187, 188, 189, 190, 191, 192],
      "AcquisitionTime": ["164502.467500", "164503.467500", "164504.467500", "164505.467500", "164506.467500", "164507.467500", "164508.467500", "164509.467500", "164510.467500", "164511.467500", "164512.467500", "164513.467500", "164514.467500", "164515.467500", "164516.467500", "164517.467500", "164518.467500", "164519.467500", "164520.467500", "164521.467500", "164522.467500", "164523.467500", "164524.467500", "164525.467500", "164526.467500", "164527.467500", "164528.467500", "164529.467500", "164530.467500", "164531.467500", "164532.467500", "164533.467500", "164534.467500", "164535.467500", "164536.467500", "164537.467500", "164538.467500", "164539.467500", "164540.467500", "164541.467500", "164542.467500", "164543.467500", "164544.467500", "164545.467500", "164546.467500", "164547.467500", "164548.467500", "164549.467500", "164550.467500", "164551.467500", "164552.467500", "164553.467500", "164554.467500", "164555.467500", "164556.467500", "164557.467500", "164558.467500", "164559.467500", "164600.467500", "164601.467500", "164602.467500", "164603.467500", "164604.467500", "164605.467500", "164606.467500", "164607.467500", "164608.467500", "164609.467500", "164610.467500", "164611.467500", "164612.467500", "164613.467500", "164614.467500", "164615.467500", "164616.467500", "164617.467500", "164618.467500", "164619.467500", "164620.467500", "164621.467500", "164622.467500", "164623.467500", "164624.467500", "164625.467500", "164626.467500", "164627.467500", "164628.467500", "164629.467500", "164630.467500", "164631.467500", "164632.467500", "164633.467500", "164634.467500", "164635.467500", "164636.467500", "164637.467500", "164638.467500", "164639.467500", "164640.467500", "164641.467500", "164642.467500", "164643.467500", "164644.467500", "164645.467500", "164646.467500", "164647.467500", "164648.467500", "164649.467500", "164650.467500", "164651.467500", "164652.467500", "164653.467500", "164654.467500", "164655.467500", "164656.467500", "164657.467500", "164658.467500", "164659.467500", "164700.467500", "164701.467500", "164702.467500", "164703.467500", "164704.467500", "164705.467500", "164706.467500", "164707.467500", "164708.467500", "164709.467500", "164710.467500", "164711.467500", "164712.467500", "164713.467500", "164714.467500", "164715.467500", "164716.467500", "164717.467500", "164718.467500", "164719.467500", "164720.467500", "164721.467500", "164722.467500", "164723.467500", "164724.467500", "164725.467500", "164726.467500", "164727.467500", "164728.467500", "164729.467500", "164730.467500", "164731.467500", "164732.467500", "164733.467500", "164734.467500", "164735.467500", "164736.467500", "164737.467500", "164738.467500", "164739.467500", "164740.467500", "164741.467500", "164742.467500", "164743.467500", "164744.467500", "164745.467500", "164746.467500", "164747.467500", "164748.467500", "164749.467500", "164750.467500", "164751.467500", "164752.467500", "164753.467500", "164754.467500", "164755.467500", "164756.467500", "164757.467500", "164758.467500", "164759.467500", "164800.467500", "164801.467500", "164802.467500", "164803.467500", "164804.467500", "164805.467500", "164806.467500", "164807.467500", "164808.467500", "164809.467500", "164810.467500", "164811.467500", "164812.467500", "164813.467500"],
      "ContentTime": ["164624.616000", "164624.619000", "164624.622000", "164624.625000", "164624.628000", "164624.631000", "164624.634000", "164624.637000", "164624.639000", "164624.642000", "164624.645000", "164624.648000", "164624.651000", "164624.654000", "164624.661000", "164624.664000", "164624.667000", "164624.670000", "164624.673000", "164624.676000", "164624.678000", "164624.681000", "164624.684000", "164624.687000", "164624.690000", "164624.693000", "164624.696000", "164624.699000", "164624.702000", "164624.704000", "164624.707000", "164624.710000", "164624.713000", "164624.716000", "164624.719000", "164624.722000", "164624.725000", "164624.727000", "164624.730000", "164624.733000", "164624.736000", "164624.739000", "164624.742000", "164624.745000", "164644.586000", "164644.589000", "164644.592000", "164644.595000", "164644.598000", "164644.601000", "164644.604000", "164644.607000", "164644.617000", "164644.620000", "164644.623000", "164644.625000", "164644.628000", "164644.631000", "164644.634000", "164644.637000", "164644.640000", "164644.643000", "164644.646000", "164644.648000", "164644.651000", "164644.654000", "164644.657000", "164644.660000", "164644.663000", "164644.666000", "164644.668000", "164644.671000", "164704.586000", "164704.589000", "164704.592000", "164704.595000", "164704.598000", "164704.601000", "164704.604000", "164704.607000", "164704.610000", "164704.613000", "164704.616000", "164704.618000", "164704.621000", "164704.624000", "164704.627000", "164704.630000", "164704.633000", "164704.636000", "164704.639000", "164704.641000", "164704.644000", "164704.647000", "164704.650000", "164704.653000", "164704.656000", "164704.659000", "164704.684000", "164704.687000", "164724.587000", "164724.590000", "164724.593000", "164724.596000", "164724.599000", "164724.602000", "164724.605000", "164724.608000", "164724.610000", "164724.613000", "164724.616000", "164724.619000", "164724.622000", "164724.625000", "164724.628000", "164724.631000", "164724.634000", "164724.637000", "164724.639000", "164724.642000", "164724.645000", "164724.648000", "164724.651000", "164724.654000", "164724.657000", "164724.661000", "164724.664000", "164724.667000", "164724.670000", "164744.587000", "164744.590000", "164744.593000", "164744.596000", "164744.599000", "164744.602000", "164744.605000", "164744.608000", "164744.610000", "164744.613000", "164744.616000", "164744.619000", "164744.622000", "164744.625000", "164744.628000", "164744.631000", "164744.634000", "164744.637000", "164744.640000", "164744.642000", "164744.645000", "164744.648000", "164744.651000", "164744.654000", "164744.657000", "164744.660000", "164744.663000", "164744.666000", "164804.587000", "164804.590000", "164804.593000", "164804.596000", "164804.599000", "164804.602000", "164804.605000", "164804.608000", "164804.611000", "164804.614000", "164804.617000", "164804.619000", "164804.622000", "164804.625000", "164804.628000", "164804.631000", "164804.634000", "164804.637000", "164804.640000", "164804.643000", "164804.645000", "164804.648000", "164804.651000", "164804.654000", "164814.728000", "164814.731000", "164814.734000", "164814.737000", "164814.740000", "164814.743000", "164814.746000", "164814.749000", "164814.752000", "164814.755000", "164814.758000"],
      "InstanceCreationTime": ["164624.616000", "164624.619000", "164624.622000", "164624.625000", "164624.628000", "164624.631000", "164624.634000", "164624.637000", "164624.639000", "164624.642000", "164624.645000", "164624.648000", "164624.651000", "164624.654000", "164624.661000", "164624.664000", "164624.667000", "164624.670000", "164624.673000", "164624.676000", "164624.678000", "164624.681000", "164624.684000", "164624.687000", "164624.690000", "164624.693000", "164624.696000", "164624.699000", "164624.702000", "164624.704000", "164624.707000", "164624.710000", "164624.713000", "164624.716000", "164624.719000", "164624.722000", "164624.725000", "164624.727000", "164624.730000", "164624.733000", "164624.736000", "164624.739000", "164624.742000", "164624.745000", "164644.586000", "164644.589000", "164644.592000", "164644.595000", "164644.598000", "164644.601000", "164644.604000", "164644.607000", "164644.617000", "164644.620000", "164644.623000", "164644.625000", "164644.628000", "164644.631000", "164644.634000", "164644.637000", "164644.640000", "164644.643000", "164644.646000", "164644.648000", "164644.651000", "164644.654000", "164644.657000", "164644.660000", "164644.663000", "164644.666000", "164644.668000", "164644.671000", "164704.586000", "164704.589000", "164704.592000", "164704.595000", "164704.598000", "164704.601000", "164704.604000", "164704.607000", "164704.610000", "164704.613000", "164704.616000", "164704.618000", "164704.621000", "164704.624000", "164704.627000", "164704.630000", "164704.633000", "164704.636000", "164704.639000", "164704.641000", "164704.644000", "164704.647000", "164704.650000", "164704.653000", "164704.656000", "164704.659000", "164704.684000", "164704.687000", "164724.587000", "164724.590000", "164724.593000", "164724.596000", "164724.599000", "164724.602000", "164724.605000", "164724.608000", "164724.610000", "164724.613000", "164724.616000", "164724.619000", "164724.622000", "164724.625000", "164724.628000", "164724.631000", "164724.634000", "164724.637000", "164724.639000", "164724.642000", "164724.645000", "164724.648000", "164724.651000", "164724.654000", "164724.657000", "164724.661000", "164724.664000", "164724.667000", "164724.670000", "164744.587000", "164744.590000", "164744.593000", "164744.596000", "164744.599000", "164744.602000", "164744.605000", "164744.608000", "164744.610000", "164744.613000", "164744.616000", "164744.619000", "164744.622000", "164744.625000", "164744.628000", "164744.631000", "164744.634000", "164744.637000", "164744.640000", "164744.642000", "164744.645000", "164744.648000", "164744.651000", "164744.654000", "164744.657000", "164744.660000", "164744.663000", "164744.666000", "164804.587000", "164804.590000", "164804.593000", "164804.596000", "164804.599000", "164804.602000", "164804.605000", "164804.608000", "164804.611000", "164804.614000", "164804.617000", "164804.619000", "164804.622000", "164804.625000", "164804.628000", "164804.631000", "164804.634000", "164804.637000", "164804.640000", "164804.643000", "164804.645000", "164804.648000", "164804.651000", "164804.654000", "164814.728000", "164814.731000", "164814.734000", "164814.737000", "164814.740000", "164814.743000", "164814.746000", "164814.749000", "164814.752000", "164814.755000", "164814.758000"],
      "InstanceNumber": [1, 2, 3, 4, 5, 6, 7, 8, 9, 10, 11, 12, 13, 14, 15, 16, 17, 18, 19, 20, 21, 22, 23, 24, 25, 26, 27, 28, 29, 30, 31, 32, 33, 34, 35, 36, 37, 38, 39, 40, 41, 42, 43, 44, 45, 46, 47, 48, 49, 50, 51, 52, 53, 54, 55, 56, 57, 58, 59, 60, 61, 62, 63, 64, 65, 66, 67, 68, 69, 70, 71, 72, 73, 74, 75, 76, 77, 78, 79, 80, 81, 82, 83, 84, 85, 86, 87, 88, 89, 90, 91, 92, 93, 94, 95, 96, 97, 98, 99, 100, 101, 102, 103, 104, 105, 106, 107, 108, 109, 110, 111, 112, 113, 114, 115, 116, 117, 118, 119, 120, 121, 122, 123, 124, 125, 126, 127, 128, 129, 130, 131, 132, 133, 134, 135, 136, 137, 138, 139, 140, 141, 142, 143, 144, 145, 146, 147, 148, 149, 150, 151, 152, 153, 154, 155, 156, 157, 158, 159, 160, 161, 162, 163, 164, 165, 166, 167, 168, 169, 170, 171, 172, 173, 174, 175, 176, 177, 178, 179, 180, 181, 182, 183, 184, 185, 186, 187, 188, 189, 190, 191, 192],
      "LargestImagePixelValue": [41388, 40979, 40790, 40802, 41827, 41702, 41446, 41398, 41755, 41840, 41278, 40798, 41335, 40821, 41283, 41684, 42204, 42439, 41428, 40870, 40434, 41975, 41672, 41695, 41587, 41282, 40753, 41867, 41315, 41087, 41204, 41193, 40997, 41080, 41431, 40830, 41302, 40926, 39882, 40660, 41071, 41486, 41649, 41043, 41004, 41164, 40808, 41212, 40615, 41578, 41779, 41722, 41112, 40468, 41010, 41265, 41434, 41093, 41063, 41362, 41506, 41171, 41557, 40900, 40581, 41956, 41555, 41581, 41696, 40744, 41308, 41732, 41648, 41077, 41662, 41619, 40766, 40948, 40963, 41388, 41294, 41108, 40813, 40040, 40180, 40976, 40870, 41273, 41264, 40973, 40515, 40504, 41357, 41244, 41184, 41848, 41261, 41254, 40492, 41248, 41039, 41156, 41444, 41572, 41513, 40387, 39844, 40698, 41238, 41395, 40825, 41286, 41142, 41453, 41090, 41178, 41856, 40951, 40841, 40526, 41629, 41291, 41379, 40977, 40923, 41083, 41017, 41112, 41002, 41012, 40994, 41682, 41830, 41122, 41927, 41911, 42019, 40939, 40529, 41378, 39787, 40680, 40043, 39630, 40136, 40338, 40369, 40291, 40348, 40467, 41002, 41103, 41740, 42597, 42245, 42097, 42070, 42400, 41196, 41071, 41671, 41124, 40510, 40746, 39684, 39413, 39321, 38918, 39769, 40222, 40018, 40138, 39971, 39579, 38613, 39423, 39626, 39955, 39766, 40153, 40812, 40794, 40672, 41099, 41018, 41352, 40946, 41009, 40588, 40965, 41234, 40547],
      "WindowCenter": [10241.0, 10201.0, 10188.0, 10193.0, 10214.0, 10220.0, 10221.0, 10217.0, 10214.0, 10204.0, 10177.0, 10151.0, 10153.0, 10149.0, 10169.0, 10192.0, 10207.0, 10195.0, 10173.0, 10151.0, 10138.0, 10158.0, 10165.0, 10166.0, 10173.0, 10177.0, 10165.0, 10173.0, 10168.0, 10164.0, 10178.0, 10169.0, 10167.0, 10167.0, 10174.0, 10164.0, 10168.0, 10160.0, 10145.0, 10165.0, 10190.0, 10197.0, 10188.0, 10169.0, 10175.0, 10187.0, 10185.0, 10182.0, 10162.0, 10165.0, 10156.0, 10148.0, 10138.0, 10125.0, 10137.0, 10142.0, 10149.0, 10142.0, 10137.0, 10140.0, 10140.0, 10141.0, 10152.0, 10157.0, 10176.0, 10207.0, 10201.0, 10178.0, 10149.0, 10130.0, 10142.0, 10153.0, 10162.0, 10166.0, 10171.0, 10157.0, 10141.0, 10147.0, 10144.0, 10132.0, 10124.0, 10112.0, 10112.0, 10108.0, 10116.0, 10127.0, 10136.0, 10149.0, 10142.0, 10137.0, 10137.0, 10128.0, 10131.0, 10141.0, 10160.0, 10173.0, 10161.0, 10141.0, 10121.0, 10138.0, 10150.0, 10162.0, 10163.0, 10163.0, 10153.0, 10125.0, 10107.0, 10117.0, 10114.0, 10119.0, 10126.0, 10131.0, 10125.0, 10123.0, 10121.0, 10113.0, 10122.0, 10122.0, 10127.0, 10115.0, 10128.0, 10126.0, 10126.0, 10127.0, 10134.0, 10142.0, 10151.0, 10147.0, 10139.0, 10136.0, 10144.0, 10156.0, 10166.0, 10158.0, 10170.0, 10165.0, 10165.0, 10162.0, 10161.0, 10164.0, 10156.0, 10168.0, 10168.0, 10175.0, 10175.0, 10181.0, 10180.0, 10179.0, 10180.0, 10187.0, 10187.0, 10178.0, 10174.0, 10177.0, 10169.0, 10167.0, 10171.0, 10187.0, 10176.0, 10170.0, 10175.0, 10181.0, 10177.0, 10182.0, 10177.0, 10181.0, 10178.0, 10161.0, 10161.0, 10159.0, 10166.0, 10180.0, 10182.0, 10185.0, 10186.0, 10189.0, 10188.0, 10184.0, 10169.0, 10167.0, 10183.0, 10186.0, 10186.0, 10185.0, 10185.0, 10189.0, 10177.0, 10176.0, 10176.0, 10186.0, 10197.0, 10193.0],
      "WindowWidth": [22168.0, 22047.0, 22001.0, 22007.0, 22049.0, 22061.0, 22062.0, 22050.0, 22039.0, 22012.0, 21949.0, 21891.0, 21891.0, 21885.0, 21932.0, 21985.0, 22017.0, 21992.0, 21942.0, 21891.0, 21861.0, 21899.0, 21915.0, 21922.0, 21939.0, 21950.0, 21925.0, 21938.0, 21929.0, 21921.0, 21951.0, 21931.0, 21925.0, 21926.0, 21941.0, 21922.0, 21927.0, 21908.0, 21880.0, 21925.0, 21982.0, 22000.0, 21978.0, 21934.0, 21945.0, 21974.0, 21972.0, 21960.0, 21916.0, 21917.0, 21898.0, 21878.0, 21856.0, 21828.0, 21851.0, 21862.0, 21878.0, 21865.0, 21854.0, 21860.0, 21861.0, 21864.0, 21885.0, 21901.0, 21951.0, 22021.0, 22009.0, 21953.0, 21881.0, 21836.0, 21862.0, 21890.0, 21914.0, 21925.0, 21933.0, 21901.0, 21866.0, 21879.0, 21870.0, 21841.0, 21822.0, 21797.0, 21795.0, 21789.0, 21806.0, 21830.0, 21853.0, 21879.0, 21866.0, 21858.0, 21855.0, 21833.0, 21838.0, 21863.0, 21906.0, 21938.0, 21912.0, 21864.0, 21820.0, 21854.0, 21886.0, 21912.0, 21916.0, 21916.0, 21891.0, 21830.0, 21789.0, 21808.0, 21799.0, 21813.0, 21827.0, 21838.0, 21825.0, 21819.0, 21816.0, 21797.0, 21813.0, 21818.0, 21829.0, 21806.0, 21830.0, 21826.0, 21828.0, 21832.0, 21849.0, 21869.0, 21890.0, 21883.0, 21864.0, 21854.0, 21873.0, 21896.0, 21919.0, 21907.0, 21933.0, 21924.0, 21923.0, 21918.0, 21915.0, 21919.0, 21908.0, 21930.0, 21935.0, 21953.0, 21956.0, 21970.0, 21966.0, 21963.0, 21964.0, 21981.0, 21980.0, 21960.0, 21948.0, 21949.0, 21930.0, 21924.0, 21934.0, 21969.0, 21951.0, 21940.0, 21949.0, 21960.0, 21953.0, 21963.0, 21959.0, 21971.0, 21964.0, 21926.0, 21922.0, 21917.0, 21934.0, 21964.0, 21973.0, 21982.0, 21988.0, 21993.0, 21989.0, 21979.0, 21945.0, 21936.0, 21971.0, 21977.0, 21978.0, 21975.0, 21973.0, 21982.0, 21954.0, 21951.0, 21951.0, 21974.0, 21998.0, 21993.0]
    },
    "slices": {}
  },
  "NumberOfVolumes": 192
}