{
  "AcquisitionMatrixPE": 104,
  "AcquisitionNumber": 1,
  "AcquisitionTime": "11:57:0.442500",
  "BandwidthPerPixelPhaseEncode": 16.297,
  "BaseResolution": 104,
  "BodyPartExamined": "BRAIN",
  "ConsistencyInfo": "N4_VE11C_LATEST_20160120",
  "ConversionSoftware": "dcm2niix",
  "ConversionSoftwareVersion": "v1.0.20210317",
  "DerivedVendorReportedEchoSpacing": 0.000590009,
  "DeviceSerialNumber": "166018",
  "DwellTime": 2.1e-06,
  "EchoTime": 0.0376,
  "EchoTrainLength": 104,
  "EffectiveEchoSpacing": 0.000590009,
  "FlipAngle": 68,
  "ImageComments": "Unaliased MB6/PE3/LB",
  "ImageOrientationPatientDICOM": [0.998791, -0.0136688, 0.04722, 0.0226657, 0.980418, -0.195621],
  "ImageType": [
    "ORIGINAL",
    "PRIMARY",
    "M",
    "MB",
    "ND",
    "MOSAIC"
],
  "ImagingFrequency": 123.197,
  "InPlanePhaseEncodingDirectionDICOM": "COL",
  "InstitutionAddress": "Washington Place 6,NYC,NYC,US,10003",
  "InstitutionName": "NYU - CBI",
  "InstitutionalDepartmentName": "Department",
  "MRAcquisitionType": "2D",
  "MagneticFieldStrength": 3,
  "Manufacturer": "Siemens",
  "ManufacturersModelName": "Prisma",
  "Modality": "MR",
  "MultibandAccelerationFactor": 6,
  "PartialFourier": 1,
  "PatientPosition": "HFS",
  "PercentPhaseFOV": 100,
  "PercentSampling": 100,
  "PhaseEncodingDirection": "j",
  "PhaseEncodingSteps": 104,
  "PhaseResolution": 1,
  "PixelBandwidth": 2290,
  "ProcedureStepDescription": "Investigators^Winawer",
  "ProtocolName": "cmrr_mbepi_s6_2mm_66sl_PA_task-prf",
  "PulseSequenceDetails": "%CustomerSeq%\\cmrr_mbep2d_bold",
  "ReceiveCoilActiveElements": "HC1-7",
  "ReceiveCoilName": "HeadNeck_64",
  "ReconMatrixPE": 104,
  "RepetitionTime": 1,
  "SAR": 0.0918345,
  "ScanOptions": "FS",
  "ScanningSequence": "EP",
  "SequenceName": "epfid2d1_104",
  "SequenceVariant": "SK\\SS",
  "SeriesDescription": "cmrr_mbepi_s6_2mm_66sl_PA_task-prf",
  "SeriesNumber": 19,
  "ShimSetting": [316, -12633, -8503, 139, 23, -125, 105, 101],
  "SliceThickness": 2,
  "SliceTiming": [0, 0.535, 0.09, 0.625, 0.18, 0.7125, 0.2675, 0.8025, 0.3575, 0.8925, 0.445, 0, 0.535, 0.09, 0.625, 0.18, 0.7125, 0.2675, 0.8025, 0.3575, 0.8925, 0.445, 0, 0.535, 0.09, 0.625, 0.18, 0.7125, 0.2675, 0.8025, 0.3575, 0.8925, 0.445, 0, 0.535, 0.09, 0.625, 0.18, 0.7125, 0.2675, 0.8025, 0.3575, 0.8925, 0.445, 0, 0.535, 0.09, 0.625, 0.18, 0.7125, 0.2675, 0.8025, 0.3575, 0.8925, 0.445, 0, 0.535, 0.09, 0.625, 0.18, 0.7125, 0.2675, 0.8025, 0.3575, 0.8925, 0.445],
  "SoftwareVersions": "syngo MR E11",
  "SpacingBetweenSlices": 2,
  "StationName": "AWP166018",
  "TaskName": "prf",
  "TotalReadoutTime": 0.060771,
  "TxRefAmp": 263.077,
  "VendorReportedEchoSpacing": 0.00059,
  "WipMemBlock": "d0c30371-2d52-4609-ad95-2df4d5c2f496||Sequence: R016 ve11c/master r/8780670; Nov 27 2017 15:05:12 by eja",
  "dcmmeta_affine": [
    [-1.997581958770752, 0.0453314371407032, 0.08724290132522583, 102.45104217529297],
    [0.027337506413459778, 1.9608352184295654, -0.39290952682495117, -65.47602844238281],
    [0.09444005787372589, 0.39124199748039246, 1.959084153175354, -55.4233512878418],
    [0.0, 0.0, 0.0, 1.0]
],
  "dcmmeta_reorient_transform": [
    [0.0, -1.0, 0.0, 103.0],
    [1.0, 0.0, 0.0, 0.0],
    [0.0, 0.0, 1.0, 0.0],
    [0.0, 0.0, 0.0, 1.0]
],
  "dcmmeta_shape": [104, 104, 66, 192],
  "dcmmeta_slice_dim": 2,
  "dcmmeta_version": 0.6,
  "global": {
    "const": {
      "AccessionNumber": "L5mqz82m",
      "AcquisitionMatrix": [104, 0, 0, 104],
      "AngioFlag": "N",
      "BitsAllocated": 16,
      "BitsStored": 16,
      "BodyPartExamined": "BRAIN",
      "Columns": 936,
      "EchoNumbers": 1,
      "EchoTime": 37.6,
      "EchoTrainLength": 104,
      "FlipAngle": 68.0,
      "HighBit": 15,
      "ImageOrientationPatient": [0.99879098617124, -0.0136687528333, 0.04722002900325, 0.02266571833323, 0.98041761027041, -0.1956209975542],
      "ImagePositionPatient": [-956.97215921212, -940.82504686365, 108.34418066342],
      "ImageType": [
        "ORIGINAL",
        "PRIMARY",
        "M",
        "MB",
        "ND",
        "MOSAIC"
],
      "ImagedNucleus": "1H",
      "ImagingFrequency": 123.196825,
      "InPlanePhaseEncodingDirection": "COL",
      "MRAcquisitionType": "2D",
      "MagneticFieldStrength": 3.0,
      "Manufacturer": "SIEMENS",
      "ManufacturerModelName": "Prisma",
      "Modality": "MR",
      "NumberOfAverages": 1.0,
      "NumberOfPhaseEncodingSteps": 104,
      "PercentPhaseFieldOfView": 100.0,
      "PercentSampling": 100.0,
      "PerformedProcedureStepStartTime": "111458.126000",
      "PhotometricInterpretation": "MONOCHROME2",
      "PixelBandwidth": 2290.0,
      "PixelRepresentation": 0,
      "PixelSpacing": [2.0, 2.0],
      "ProtocolName": "cmrr_mbepi_s6_2mm_66sl_PA_task-prf",
      "RepetitionTime": 1000.0,
      "Rows": 936,
      "SAR": 0.09183454342287,
      "SamplesPerPixel": 1,
      "ScanOptions": "FS",
      "ScanningSequence": "EP",
      "SequenceName": "epfid2d1_104",
      "SequenceVariant": [
        "SK",
        "SS"
],
      "SeriesDescription": "cmrr_mbepi_s6_2mm_66sl_PA_task-prf",
      "SeriesNumber": 19,
      "SeriesTime": "115829.414000",
      "SliceLocation": -36.957362927095,
      "SliceThickness": 2.0,
      "SmallestImagePixelValue": 0,
      "SoftwareVersions": "syngo MR E11",
      "SpacingBetweenSlices": 1.999999945464,
      "SpecificCharacterSet": "ISO_IR 100",
      "StudyID": "1",
      "StudyTime": "111458.052000",
      "TransmitCoilName": "Body",
      "VariableFlipAngleFlag": "N",
      "WindowCenterWidthExplanation": "Algo1",
      "dBdt": 0.0},
    "slices": {}
  },
  "time": {
    "samples": {
      "AcquisitionNumber": [1, 2, 3, 4, 5, 6, 7, 8, 9, 10, 11, 12, 13, 14, 15, 16, 17, 18, 19, 20, 21, 22, 23, 24, 25, 26, 27, 28, 29, 30, 31, 32, 33, 34, 35, 36, 37, 38, 39, 40, 41, 42, 43, 44, 45, 46, 47, 48, 49, 50, 51, 52, 53, 54, 55, 56, 57, 58, 59, 60, 61, 62, 63, 64, 65, 66, 67, 68, 69, 70, 71, 72, 73, 74, 75, 76, 77, 78, 79, 80, 81, 82, 83, 84, 85, 86, 87, 88, 89, 90, 91, 92, 93, 94, 95, 96, 97, 98, 99, 100, 101, 102, 103, 104, 105, 106, 107, 108, 109, 110, 111, 112, 113, 114, 115, 116, 117, 118, 119, 120, 121, 122, 123, 124, 125, 126, 127, 128, 129, 130, 131, 132, 133, 134, 135, 136, 137, 138, 139, 140, 141, 142, 143, 144, 145, 146, 147, 148, 149, 150, 151, 152, 153, 154, 155, 156, 157, 158, 159, 160, 161, 162, 163, 164, 165, 166, 167, 168, 169, 170, 171, 172, 173, 174, 175, 176, 177, 178, 179, 180, 181, 182, 183, 184, 185, 186, 187, 188, 189, 190, 191, 192],
      "AcquisitionTime": ["115700.442500", "115701.442500", "115702.442500", "115703.442500", "115704.442500", "115705.442500", "115706.442500", "115707.442500", "115708.442500", "115709.442500", "115710.442500", "115711.442500", "115712.442500", "115713.442500", "115714.442500", "115715.442500", "115716.442500", "115717.442500", "115718.442500", "115719.442500", "115720.442500", "115721.442500", "115722.442500", "115723.442500", "115724.442500", "115725.442500", "115726.442500", "115727.442500", "115728.442500", "115729.442500", "115730.442500", "115731.442500", "115732.442500", "115733.442500", "115734.442500", "115735.442500", "115736.442500", "115737.442500", "115738.442500", "115739.442500", "115740.442500", "115741.442500", "115742.442500", "115743.442500", "115744.442500", "115745.442500", "115746.442500", "115747.442500", "115748.442500", "115749.442500", "115750.442500", "115751.442500", "115752.442500", "115753.442500", "115754.442500", "115755.442500", "115756.442500", "115757.442500", "115758.442500", "115759.442500", "115800.442500", "115801.442500", "115802.442500", "115803.442500", "115804.442500", "115805.442500", "115806.442500", "115807.442500", "115808.442500", "115809.442500", "115810.442500", "115811.442500", "115812.442500", "115813.442500", "115814.442500", "115815.442500", "115816.442500", "115817.442500", "115818.442500", "115819.442500", "115820.442500", "115821.442500", "115822.442500", "115823.442500", "115824.442500", "115825.442500", "115826.442500", "115827.442500", "115828.442500", "115829.442500", "115830.442500", "115831.442500", "115832.442500", "115833.442500", "115834.442500", "115835.442500", "115836.442500", "115837.442500", "115838.442500", "115839.442500", "115840.442500", "115841.442500", "115842.442500", "115843.442500", "115844.442500", "115845.442500", "115846.442500", "115847.442500", "115848.442500", "115849.442500", "115850.442500", "115851.442500", "115852.442500", "115853.442500", "115854.442500", "115855.442500", "115856.442500", "115857.442500", "115858.442500", "115859.442500", "115900.442500", "115901.442500", "115902.442500", "115903.442500", "115904.442500", "115905.442500", "115906.442500", "115907.442500", "115908.442500", "115909.442500", "115910.442500", "115911.442500", "115912.442500", "115913.442500", "115914.442500", "115915.442500", "115916.442500", "115917.442500", "115918.442500", "115919.442500", "115920.442500", "115921.442500", "115922.442500", "115923.442500", "115924.442500", "115925.442500", "115926.442500", "115927.442500", "115928.442500", "115929.442500", "115930.442500", "115931.442500", "115932.442500", "115933.442500", "115934.442500", "115935.442500", "115936.442500", "115937.442500", "115938.442500", "115939.442500", "115940.442500", "115941.442500", "115942.442500", "115943.442500", "115944.442500", "115945.442500", "115946.442500", "115947.442500", "115948.442500", "115949.442500", "115950.442500", "115951.442500", "115952.442500", "115953.442500", "115954.442500", "115955.442500", "115956.442500", "115957.442500", "115958.442500", "115959.442500", "120000.442500", "120001.442500", "120002.442500", "120003.442500", "120004.442500", "120005.442500", "120006.442500", "120007.442500", "120008.442500", "120009.442500", "120010.442500", "120011.442500"],
      "ContentTime": ["115829.416000", "115829.420000", "115829.423000", "115829.426000", "115829.435000", "115829.438000", "115829.441000", "115829.444000", "115829.447000", "115829.450000", "115829.453000", "115829.456000", "115829.459000", "115829.462000", "115829.465000", "115829.468000", "115829.471000", "115829.474000", "115829.477000", "115829.480000", "115829.483000", "115829.486000", "115829.489000", "115829.492000", "115829.495000", "115829.498000", "115829.501000", "115829.504000", "115829.507000", "115829.510000", "115829.513000", "115829.516000", "115829.519000", "115829.522000", "115829.525000", "115829.528000", "115829.531000", "115829.534000", "115829.537000", "115829.540000", "115829.543000", "115829.546000", "115829.549000", "115829.552000", "115829.556000", "115829.559000", "115829.562000", "115829.570000", "115849.393000", "115849.396000", "115849.399000", "115849.402000", "115849.405000", "115849.408000", "115849.411000", "115849.414000", "115849.417000", "115849.420000", "115849.423000", "115849.426000", "115849.429000", "115849.432000", "115849.435000", "115849.438000", "115849.441000", "115849.444000", "115849.447000", "115849.450000", "115849.455000", "115849.458000", "115849.461000", "115849.464000", "115849.467000", "115849.470000", "115849.473000", "115849.476000", "115909.393000", "115909.396000", "115909.399000", "115909.402000", "115909.405000", "115909.408000", "115909.411000", "115909.414000", "115909.417000", "115909.420000", "115909.423000", "115909.426000", "115909.429000", "115909.432000", "115909.435000", "115909.438000", "115909.441000", "115909.444000", "115909.447000", "115909.450000", "115909.453000", "115909.456000", "115909.459000", "115909.462000", "115909.465000", "115909.468000", "115909.471000", "115909.474000", "115929.393000", "115929.396000", "115929.399000", "115929.402000", "115929.418000", "115929.421000", "115929.424000", "115929.427000", "115929.430000", "115929.433000", "115929.436000", "115929.439000", "115929.442000", "115929.445000", "115929.448000", "115929.451000", "115929.454000", "115929.466000", "115929.469000", "115929.472000", "115929.475000", "115929.478000", "115929.481000", "115929.484000", "115929.487000", "115929.490000", "115929.493000", "115929.496000", "115949.393000", "115949.396000", "115949.399000", "115949.402000", "115949.405000", "115949.408000", "115949.411000", "115949.414000", "115949.417000", "115949.420000", "115949.423000", "115949.426000", "115949.429000", "115949.432000", "115949.435000", "115949.438000", "115949.441000", "115949.444000", "115949.447000", "115949.450000", "115949.453000", "115949.456000", "115949.459000", "115949.462000", "115949.465000", "115949.468000", "115949.478000", "115949.481000", "115949.484000", "120009.394000", "120009.397000", "120009.400000", "120009.403000", "120009.406000", "120009.409000", "120009.412000", "120009.416000", "120009.419000", "120009.422000", "120009.425000", "120009.428000", "120009.431000", "120009.434000", "120009.437000", "120009.440000", "120009.443000", "120009.447000", "120009.450000", "120009.453000", "120009.456000", "120009.459000", "120009.462000", "120009.465000", "120009.468000", "120009.471000", "120009.474000", "120012.798000", "120012.802000", "120012.805000", "120012.808000"],
      "InstanceCreationTime": ["115829.416000", "115829.420000", "115829.423000", "115829.426000", "115829.435000", "115829.438000", "115829.441000", "115829.444000", "115829.447000", "115829.450000", "115829.453000", "115829.456000", "115829.459000", "115829.462000", "115829.465000", "115829.468000", "115829.471000", "115829.474000", "115829.477000", "115829.480000", "115829.483000", "115829.486000", "115829.489000", "115829.492000", "115829.495000", "115829.498000", "115829.501000", "115829.504000", "115829.507000", "115829.510000", "115829.513000", "115829.516000", "115829.519000", "115829.522000", "115829.525000", "115829.528000", "115829.531000", "115829.534000", "115829.537000", "115829.540000", "115829.543000", "115829.546000", "115829.549000", "115829.552000", "115829.556000", "115829.559000", "115829.562000", "115829.570000", "115849.393000", "115849.396000", "115849.399000", "115849.402000", "115849.405000", "115849.408000", "115849.411000", "115849.414000", "115849.417000", "115849.420000", "115849.423000", "115849.426000", "115849.429000", "115849.432000", "115849.435000", "115849.438000", "115849.441000", "115849.444000", "115849.447000", "115849.450000", "115849.455000", "115849.458000", "115849.461000", "115849.464000", "115849.467000", "115849.470000", "115849.473000", "115849.476000", "115909.393000", "115909.396000", "115909.399000", "115909.402000", "115909.405000", "115909.408000", "115909.411000", "115909.414000", "115909.417000", "115909.420000", "115909.423000", "115909.426000", "115909.429000", "115909.432000", "115909.435000", "115909.438000", "115909.441000", "115909.444000", "115909.447000", "115909.450000", "115909.453000", "115909.456000", "115909.459000", "115909.462000", "115909.465000", "115909.468000", "115909.471000", "115909.474000", "115929.393000", "115929.396000", "115929.399000", "115929.402000", "115929.418000", "115929.421000", "115929.424000", "115929.427000", "115929.430000", "115929.433000", "115929.436000", "115929.439000", "115929.442000", "115929.445000", "115929.448000", "115929.451000", "115929.454000", "115929.466000", "115929.469000", "115929.472000", "115929.475000", "115929.478000", "115929.481000", "115929.484000", "115929.487000", "115929.490000", "115929.493000", "115929.496000", "115949.393000", "115949.396000", "115949.399000", "115949.402000", "115949.405000", "115949.408000", "115949.411000", "115949.414000", "115949.417000", "115949.420000", "115949.423000", "115949.426000", "115949.429000", "115949.432000", "115949.435000", "115949.438000", "115949.441000", "115949.444000", "115949.447000", "115949.450000", "115949.453000", "115949.456000", "115949.459000", "115949.462000", "115949.465000", "115949.468000", "115949.478000", "115949.481000", "115949.484000", "120009.394000", "120009.397000", "120009.400000", "120009.403000", "120009.406000", "120009.409000", "120009.412000", "120009.416000", "120009.419000", "120009.422000", "120009.425000", "120009.428000", "120009.431000", "120009.434000", "120009.437000", "120009.440000", "120009.443000", "120009.447000", "120009.450000", "120009.453000", "120009.456000", "120009.459000", "120009.462000", "120009.465000", "120009.468000", "120009.471000", "120009.474000", "120012.798000", "120012.802000", "120012.805000", "120012.808000"],
      "InstanceNumber": [1, 2, 3, 4, 5, 6, 7, 8, 9, 10, 11, 12, 13, 14, 15, 16, 17, 18, 19, 20, 21, 22, 23, 24, 25, 26, 27, 28, 29, 30, 31, 32, 33, 34, 35, 36, 37, 38, 39, 40, 41, 42, 43, 44, 45, 46, 47, 48, 49, 50, 51, 52, 53, 54, 55, 56, 57, 58, 59, 60, 61, 62, 63, 64, 65, 66, 67, 68, 69, 70, 71, 72, 73, 74, 75, 76, 77, 78, 79, 80, 81, 82, 83, 84, 85, 86, 87, 88, 89, 90, 91, 92, 93, 94, 95, 96, 97, 98, 99, 100, 101, 102, 103, 104, 105, 106, 107, 108, 109, 110, 111, 112, 113, 114, 115, 116, 117, 118, 119, 120, 121, 122, 123, 124, 125, 126, 127, 128, 129, 130, 131, 132, 133, 134, 135, 136, 137, 138, 139, 140, 141, 142, 143, 144, 145, 146, 147, 148, 149, 150, 151, 152, 153, 154, 155, 156, 157, 158, 159, 160, 161, 162, 163, 164, 165, 166, 167, 168, 169, 170, 171, 172, 173, 174, 175, 176, 177, 178, 179, 180, 181, 182, 183, 184, 185, 186, 187, 188, 189, 190, 191, 192],
      "LargestImagePixelValue": [54475, 52564, 51745, 52012, 51030, 50831, 50900, 50282, 50547, 50877, 50756, 50418, 51380, 51212, 50679, 51572, 51371, 51070, 50583, 51667, 51847, 51635, 50766, 51837, 51871, 51385, 51210, 51481, 52100, 50887, 50913, 52053, 51691, 50772, 50964, 51228, 52150, 52082, 52946, 51649, 50302, 49958, 49500, 49909, 50781, 50500, 50703, 50338, 50105, 51152, 50213, 50760, 50003, 50610, 50600, 50363, 51298, 50271, 51135, 50491, 50342, 50558, 50786, 51941, 51143, 50524, 50640, 50664, 51521, 50407, 50526, 50423, 51340, 50674, 50491, 50939, 51745, 50776, 51280, 50999, 50732, 51091, 50693, 50754, 50844, 52770, 52463, 52659, 49874, 49990, 50760, 51245, 50166, 51199, 50643, 50862, 50931, 51841, 50543, 50687, 50327, 50754, 51403, 50737, 50835, 50909, 50945, 50661, 50538, 51727, 51258, 50777, 50479, 50806, 50226, 50238, 50608, 50631, 51010, 50230, 51063, 51632, 50671, 50786, 50679, 50386, 50230, 51600, 50874, 50495, 50287, 51135, 50558, 51930, 51570, 50576, 50042, 51039, 50889, 50008, 50657, 50155, 50682, 50143, 51488, 52851, 51780, 50940, 50606, 51242, 50415, 50678, 50339, 51688, 51541, 50455, 51934, 51966, 50867, 50778, 51256, 50752, 50476, 50568, 51169, 50939, 51382, 50796, 50655, 51034, 50333, 49842, 49894, 50853, 51102, 50911, 50567, 51413, 50203, 50431, 51488, 50819, 50605, 50259, 51509, 50680, 50234, 51496, 51101, 49942, 50457, 51012],
      "WindowCenter": [10592.0, 10571.0, 10552.0, 10544.0, 10523.0, 10504.0, 10497.0, 10477.0, 10474.0, 10479.0, 10495.0, 10516.0, 10531.0, 10521.0, 10511.0, 10508.0, 10507.0, 10500.0, 10493.0, 10503.0, 10509.0, 10512.0, 10514.0, 10518.0, 10504.0, 10498.0, 10485.0, 10483.0, 10487.0, 10471.0, 10475.0, 10497.0, 10494.0, 10491.0, 10492.0, 10495.0, 10505.0, 10501.0, 10504.0, 10500.0, 10503.0, 10502.0, 10500.0, 10499.0, 10490.0, 10496.0, 10480.0, 10473.0, 10475.0, 10491.0, 10503.0, 10511.0, 10503.0, 10500.0, 10497.0, 10490.0, 10485.0, 10473.0, 10484.0, 10494.0, 10492.0, 10499.0, 10505.0, 10511.0, 10499.0, 10487.0, 10478.0, 10472.0, 10481.0, 10479.0, 10479.0, 10467.0, 10467.0, 10461.0, 10467.0, 10473.0, 10485.0, 10488.0, 10483.0, 10483.0, 10471.0, 10472.0, 10460.0, 10464.0, 10467.0, 10499.0, 10510.0, 10523.0, 10499.0, 10492.0, 10493.0, 10479.0, 10465.0, 10466.0, 10463.0, 10467.0, 10468.0, 10486.0, 10485.0, 10499.0, 10496.0, 10496.0, 10487.0, 10485.0, 10477.0, 10471.0, 10468.0, 10468.0, 10475.0, 10492.0, 10488.0, 10498.0, 10506.0, 10507.0, 10492.0, 10483.0, 10479.0, 10480.0, 10486.0, 10475.0, 10478.0, 10477.0, 10471.0, 10470.0, 10464.0, 10464.0, 10478.0, 10491.0, 10495.0, 10488.0, 10474.0, 10472.0, 10466.0, 10463.0, 10469.0, 10472.0, 10468.0, 10490.0, 10500.0, 10491.0, 10471.0, 10457.0, 10454.0, 10445.0, 10462.0, 10485.0, 10479.0, 10474.0, 10473.0, 10471.0, 10461.0, 10453.0, 10446.0, 10460.0, 10462.0, 10459.0, 10475.0, 10470.0, 10458.0, 10457.0, 10462.0, 10455.0, 10448.0, 10449.0, 10447.0, 10449.0, 10457.0, 10458.0, 10452.0, 10446.0, 10444.0, 10436.0, 10442.0, 10446.0, 10452.0, 10447.0, 10450.0, 10476.0, 10477.0, 10486.0, 10491.0, 10478.0, 10465.0, 10464.0, 10465.0, 10454.0, 10456.0, 10472.0, 10472.0, 10457.0, 10454.0, 10452.0],
      "WindowWidth": [22895.0, 22822.0, 22766.0, 22732.0, 22675.0, 22624.0, 22602.0, 22558.0, 22546.0, 22556.0, 22595.0, 22653.0, 22689.0, 22667.0, 22643.0, 22631.0, 22628.0, 22613.0, 22601.0, 22620.0, 22633.0, 22642.0, 22649.0, 22653.0, 22617.0, 22600.0, 22571.0, 22565.0, 22571.0, 22542.0, 22547.0, 22589.0, 22586.0, 22582.0, 22585.0, 22592.0, 22606.0, 22588.0, 22594.0, 22596.0, 22607.0, 22605.0, 22605.0, 22603.0, 22579.0, 22590.0, 22555.0, 22538.0, 22546.0, 22585.0, 22616.0, 22633.0, 22617.0, 22606.0, 22597.0, 22581.0, 22565.0, 22542.0, 22568.0, 22594.0, 22597.0, 22613.0, 22624.0, 22635.0, 22608.0, 22581.0, 22555.0, 22539.0, 22561.0, 22563.0, 22562.0, 22535.0, 22532.0, 22520.0, 22529.0, 22543.0, 22568.0, 22580.0, 22572.0, 22571.0, 22541.0, 22536.0, 22508.0, 22515.0, 22521.0, 22585.0, 22621.0, 22655.0, 22604.0, 22586.0, 22582.0, 22547.0, 22518.0, 22517.0, 22516.0, 22521.0, 22527.0, 22567.0, 22568.0, 22597.0, 22591.0, 22592.0, 22572.0, 22568.0, 22547.0, 22535.0, 22528.0, 22528.0, 22542.0, 22580.0, 22577.0, 22602.0, 22620.0, 22621.0, 22588.0, 22567.0, 22555.0, 22558.0, 22573.0, 22550.0, 22554.0, 22554.0, 22542.0, 22538.0, 22525.0, 22525.0, 22558.0, 22587.0, 22599.0, 22582.0, 22549.0, 22532.0, 22517.0, 22498.0, 22516.0, 22528.0, 22523.0, 22572.0, 22600.0, 22580.0, 22531.0, 22498.0, 22484.0, 22458.0, 22497.0, 22550.0, 22547.0, 22539.0, 22535.0, 22530.0, 22510.0, 22490.0, 22475.0, 22504.0, 22511.0, 22508.0, 22542.0, 22530.0, 22504.0, 22499.0, 22508.0, 22494.0, 22477.0, 22476.0, 22470.0, 22482.0, 22497.0, 22500.0, 22488.0, 22469.0, 22465.0, 22445.0, 22457.0, 22464.0, 22479.0, 22468.0, 22482.0, 22542.0, 22556.0, 22575.0, 22587.0, 22559.0, 22528.0, 22521.0, 22522.0, 22502.0, 22504.0, 22537.0, 22539.0, 22506.0, 22492.0, 22488.0]
    },
    "slices": {}
  }
}