{
  "AcquisitionMatrixPE": 104,
  "AcquisitionNumber": 1,
  "AcquisitionTime": "11:27:31.637500",
  "BandwidthPerPixelPhaseEncode": 16.297,
  "BaseResolution": 104,
  "BodyPartExamined": "BRAIN",
  "ConsistencyInfo": "N4_VE11C_LATEST_20160120",
  "ConversionSoftware": "dcm2niix",
  "ConversionSoftwareVersion": "v1.0.20210317",
  "DerivedVendorReportedEchoSpacing": 0.000590009,
  "DeviceSerialNumber": "166018",
  "DwellTime": 2.1e-06,
  "EchoTime": 0.0376,
  "EchoTrainLength": 104,
  "EffectiveEchoSpacing": 0.000590009,
  "FlipAngle": 68,
  "ImageComments": "Unaliased MB6/PE3/LB",
  "ImageOrientationPatientDICOM": [0.998791, -0.0136688, 0.04722, 0.0226657, 0.980418, -0.195621],
  "ImageType": [
    "ORIGINAL",
    "PRIMARY",
    "M",
    "MB",
    "ND",
    "MOSAIC"
],
  "ImagingFrequency": 123.197,
  "InPlanePhaseEncodingDirectionDICOM": "COL",
  "InstitutionAddress": "Washington Place 6,NYC,NYC,US,10003",
  "InstitutionName": "NYU - CBI",
  "InstitutionalDepartmentName": "Department",
  "MRAcquisitionType": "2D",
  "MagneticFieldStrength": 3,
  "Manufacturer": "Siemens",
  "ManufacturersModelName": "Prisma",
  "Modality": "MR",
  "MultibandAccelerationFactor": 6,
  "PartialFourier": 1,
  "PatientPosition": "HFS",
  "PercentPhaseFOV": 100,
  "PercentSampling": 100,
  "PhaseEncodingDirection": "j",
  "PhaseEncodingSteps": 104,
  "PhaseResolution": 1,
  "PixelBandwidth": 2290,
  "ProcedureStepDescription": "Investigators^Winawer",
  "ProtocolName": "cmrr_mbepi_s6_2mm_66sl_PA_task-prf",
  "PulseSequenceDetails": "%CustomerSeq%\\cmrr_mbep2d_bold",
  "ReceiveCoilActiveElements": "HC1-7",
  "ReceiveCoilName": "HeadNeck_64",
  "ReconMatrixPE": 104,
  "RepetitionTime": 1,
  "SAR": 0.0918345,
  "ScanOptions": "FS",
  "ScanningSequence": "EP",
  "SequenceName": "epfid2d1_104",
  "SequenceVariant": "SK\\SS",
  "SeriesDescription": "cmrr_mbepi_s6_2mm_66sl_PA_task-prf",
  "SeriesNumber": 8,
  "ShimSetting": [316, -12633, -8503, 139, 23, -125, 105, 101],
  "SliceThickness": 2,
  "SliceTiming": [0, 0.5325, 0.0875, 0.6225, 0.1775, 0.7125, 0.2675, 0.8, 0.355, 0.89, 0.445, 0, 0.5325, 0.0875, 0.6225, 0.1775, 0.7125, 0.2675, 0.8, 0.355, 0.89, 0.445, 0, 0.5325, 0.0875, 0.6225, 0.1775, 0.7125, 0.2675, 0.8, 0.355, 0.89, 0.445, 0, 0.5325, 0.0875, 0.6225, 0.1775, 0.7125, 0.2675, 0.8, 0.355, 0.89, 0.445, 0, 0.5325, 0.0875, 0.6225, 0.1775, 0.7125, 0.2675, 0.8, 0.355, 0.89, 0.445, 0, 0.5325, 0.0875, 0.6225, 0.1775, 0.7125, 0.2675, 0.8, 0.355, 0.89, 0.445],
  "SoftwareVersions": "syngo MR E11",
  "SpacingBetweenSlices": 2,
  "StationName": "AWP166018",
  "TaskName": "prf",
  "TotalReadoutTime": 0.060771,
  "TxRefAmp": 263.077,
  "VendorReportedEchoSpacing": 0.00059,
  "WipMemBlock": "44e431e4-5897-45e1-91bf-026199605165||Sequence: R016 ve11c/master r/8780670; Nov 27 2017 15:05:12 by eja",
  "dcmmeta_affine": [
    [-1.997581958770752, 0.0453314371407032, 0.08724290132522583, 102.45104217529297],
    [0.027337506413459778, 1.9608352184295654, -0.39290952682495117, -65.47602844238281],
    [0.09444005787372589, 0.39124199748039246, 1.959084153175354, -55.4233512878418],
    [0.0, 0.0, 0.0, 1.0]
],
  "dcmmeta_reorient_transform": [
    [0.0, -1.0, 0.0, 103.0],
    [1.0, 0.0, 0.0, 0.0],
    [0.0, 0.0, 1.0, 0.0],
    [0.0, 0.0, 0.0, 1.0]
],
  "dcmmeta_shape": [104, 104, 66, 192],
  "dcmmeta_slice_dim": 2,
  "dcmmeta_version": 0.6,
  "global": {
    "const": {
      "AccessionNumber": "L5mqz82m",
      "AcquisitionMatrix": [104, 0, 0, 104],
      "AngioFlag": "N",
      "BitsAllocated": 16,
      "BitsStored": 16,
      "BodyPartExamined": "BRAIN",
      "Columns": 936,
      "EchoNumbers": 1,
      "EchoTime": 37.6,
      "EchoTrainLength": 104,
      "FlipAngle": 68.0,
      "HighBit": 15,
      "ImageOrientationPatient": [0.99879098617124, -0.0136687528333, 0.04722002900325, 0.02266571833323, 0.98041761027041, -0.1956209975542],
      "ImagePositionPatient": [-956.97215921212, -940.82504686365, 108.34418066342],
      "ImageType": [
        "ORIGINAL",
        "PRIMARY",
        "M",
        "MB",
        "ND",
        "MOSAIC"
],
      "ImagedNucleus": "1H",
      "ImagingFrequency": 123.196815,
      "InPlanePhaseEncodingDirection": "COL",
      "MRAcquisitionType": "2D",
      "MagneticFieldStrength": 3.0,
      "Manufacturer": "SIEMENS",
      "ManufacturerModelName": "Prisma",
      "Modality": "MR",
      "NumberOfAverages": 1.0,
      "NumberOfPhaseEncodingSteps": 104,
      "PercentPhaseFieldOfView": 100.0,
      "PercentSampling": 100.0,
      "PerformedProcedureStepStartTime": "111458.126000",
      "PhotometricInterpretation": "MONOCHROME2",
      "PixelBandwidth": 2290.0,
      "PixelRepresentation": 0,
      "PixelSpacing": [2.0, 2.0],
      "ProtocolName": "cmrr_mbepi_s6_2mm_66sl_PA_task-prf",
      "RepetitionTime": 1000.0,
      "Rows": 936,
      "SAR": 0.09183454342287,
      "SamplesPerPixel": 1,
      "ScanOptions": "FS",
      "ScanningSequence": "EP",
      "SequenceName": "epfid2d1_104",
      "SequenceVariant": [
        "SK",
        "SS"
],
      "SeriesDescription": "cmrr_mbepi_s6_2mm_66sl_PA_task-prf",
      "SeriesNumber": 8,
      "SeriesTime": "112849.419000",
      "SliceLocation": -36.957362927095,
      "SliceThickness": 2.0,
      "SmallestImagePixelValue": 0,
      "SoftwareVersions": "syngo MR E11",
      "SpacingBetweenSlices": 1.999999945464,
      "SpecificCharacterSet": "ISO_IR 100",
      "StudyID": "1",
      "StudyTime": "111458.052000",
      "TransmitCoilName": "Body",
      "VariableFlipAngleFlag": "N",
      "WindowCenterWidthExplanation": "Algo1",
      "dBdt": 0.0},
    "slices": {}
  },
  "time": {
    "samples": {
      "AcquisitionNumber": [1, 2, 3, 4, 5, 6, 7, 8, 9, 10, 11, 12, 13, 14, 15, 16, 17, 18, 19, 20, 21, 22, 23, 24, 25, 26, 27, 28, 29, 30, 31, 32, 33, 34, 35, 36, 37, 38, 39, 40, 41, 42, 43, 44, 45, 46, 47, 48, 49, 50, 51, 52, 53, 54, 55, 56, 57, 58, 59, 60, 61, 62, 63, 64, 65, 66, 67, 68, 69, 70, 71, 72, 73, 74, 75, 76, 77, 78, 79, 80, 81, 82, 83, 84, 85, 86, 87, 88, 89, 90, 91, 92, 93, 94, 95, 96, 97, 98, 99, 100, 101, 102, 103, 104, 105, 106, 107, 108, 109, 110, 111, 112, 113, 114, 115, 116, 117, 118, 119, 120, 121, 122, 123, 124, 125, 126, 127, 128, 129, 130, 131, 132, 133, 134, 135, 136, 137, 138, 139, 140, 141, 142, 143, 144, 145, 146, 147, 148, 149, 150, 151, 152, 153, 154, 155, 156, 157, 158, 159, 160, 161, 162, 163, 164, 165, 166, 167, 168, 169, 170, 171, 172, 173, 174, 175, 176, 177, 178, 179, 180, 181, 182, 183, 184, 185, 186, 187, 188, 189, 190, 191, 192],
      "AcquisitionTime": ["112731.637500", "112732.637500", "112733.637500", "112734.637500", "112735.637500", "112736.637500", "112737.637500", "112738.637500", "112739.637500", "112740.637500", "112741.637500", "112742.637500", "112743.637500", "112744.637500", "112745.637500", "112746.637500", "112747.637500", "112748.637500", "112749.637500", "112750.637500", "112751.637500", "112752.637500", "112753.637500", "112754.637500", "112755.637500", "112756.637500", "112757.637500", "112758.637500", "112759.637500", "112800.637500", "112801.637500", "112802.637500", "112803.637500", "112804.637500", "112805.637500", "112806.637500", "112807.637500", "112808.637500", "112809.637500", "112810.637500", "112811.637500", "112812.637500", "112813.637500", "112814.637500", "112815.637500", "112816.637500", "112817.637500", "112818.637500", "112819.637500", "112820.637500", "112821.637500", "112822.637500", "112823.637500", "112824.637500", "112825.637500", "112826.637500", "112827.637500", "112828.637500", "112829.637500", "112830.637500", "112831.637500", "112832.637500", "112833.637500", "112834.637500", "112835.637500", "112836.637500", "112837.637500", "112838.637500", "112839.637500", "112840.637500", "112841.637500", "112842.637500", "112843.637500", "112844.637500", "112845.637500", "112846.637500", "112847.637500", "112848.637500", "112849.637500", "112850.637500", "112851.637500", "112852.637500", "112853.637500", "112854.637500", "112855.637500", "112856.637500", "112857.637500", "112858.637500", "112859.637500", "112900.637500", "112901.637500", "112902.637500", "112903.637500", "112904.637500", "112905.637500", "112906.637500", "112907.637500", "112908.637500", "112909.637500", "112910.637500", "112911.637500", "112912.637500", "112913.637500", "112914.637500", "112915.637500", "112916.637500", "112917.637500", "112918.637500", "112919.637500", "112920.637500", "112921.637500", "112922.637500", "112923.637500", "112924.637500", "112925.637500", "112926.637500", "112927.637500", "112928.637500", "112929.637500", "112930.637500", "112931.637500", "112932.637500", "112933.637500", "112934.637500", "112935.637500", "112936.637500", "112937.637500", "112938.637500", "112939.637500", "112940.637500", "112941.637500", "112942.637500", "112943.637500", "112944.637500", "112945.637500", "112946.637500", "112947.637500", "112948.637500", "112949.637500", "112950.637500", "112951.637500", "112952.637500", "112953.637500", "112954.637500", "112955.637500", "112956.637500", "112957.637500", "112958.637500", "112959.637500", "113000.637500", "113001.637500", "113002.637500", "113003.637500", "113004.637500", "113005.637500", "113006.637500", "113007.637500", "113008.637500", "113009.637500", "113010.637500", "113011.637500", "113012.637500", "113013.637500", "113014.637500", "113015.637500", "113016.637500", "113017.637500", "113018.637500", "113019.637500", "113020.637500", "113021.637500", "113022.637500", "113023.637500", "113024.637500", "113025.637500", "113026.637500", "113027.637500", "113028.637500", "113029.637500", "113030.637500", "113031.637500", "113032.637500", "113033.637500", "113034.637500", "113035.637500", "113036.637500", "113037.637500", "113038.637500", "113039.637500", "113040.637500", "113041.637500", "113042.637500"],
      "ContentTime": ["112849.422000", "112849.426000", "112849.429000", "112849.432000", "112849.435000", "112849.438000", "112849.441000", "112849.444000", "112849.447000", "112849.450000", "112849.453000", "112849.456000", "112849.459000", "112849.462000", "112849.465000", "112849.475000", "112849.478000", "112849.481000", "112849.484000", "112849.487000", "112849.490000", "112849.493000", "112849.496000", "112849.499000", "112849.502000", "112849.505000", "112849.508000", "112849.511000", "112849.514000", "112849.517000", "112849.520000", "112909.393000", "112909.396000", "112909.399000", "112909.402000", "112909.405000", "112909.408000", "112909.411000", "112909.414000", "112909.417000", "112909.420000", "112909.423000", "112909.426000", "112909.432000", "112909.435000", "112909.438000", "112909.441000", "112909.444000", "112909.447000", "112909.450000", "112909.453000", "112909.456000", "112909.459000", "112909.462000", "112909.465000", "112909.468000", "112909.471000", "112929.393000", "112929.396000", "112929.399000", "112929.402000", "112929.405000", "112929.408000", "112929.411000", "112929.414000", "112929.417000", "112929.420000", "112929.423000", "112929.426000", "112929.429000", "112929.432000", "112929.435000", "112929.438000", "112929.442000", "112929.445000", "112929.448000", "112929.451000", "112929.460000", "112929.463000", "112929.466000", "112929.469000", "112929.472000", "112929.475000", "112929.478000", "112929.481000", "112929.484000", "112949.394000", "112949.397000", "112949.400000", "112949.403000", "112949.406000", "112949.409000", "112949.412000", "112949.415000", "112949.418000", "112949.421000", "112949.431000", "112949.434000", "112949.438000", "112949.441000", "112949.444000", "112949.447000", "112949.450000", "112949.452000", "112949.455000", "112949.458000", "112949.461000", "112949.464000", "112949.467000", "112949.470000", "112949.473000", "112949.476000", "112949.479000", "112949.482000", "113009.393000", "113009.396000", "113009.399000", "113009.402000", "113009.405000", "113009.408000", "113009.411000", "113009.414000", "113009.417000", "113009.420000", "113009.423000", "113009.426000", "113009.429000", "113009.432000", "113009.436000", "113009.439000", "113009.442000", "113009.445000", "113009.448000", "113009.458000", "113009.461000", "113009.464000", "113009.467000", "113009.470000", "113009.473000", "113009.476000", "113009.479000", "113009.482000", "113029.393000", "113029.396000", "113029.399000", "113029.402000", "113029.405000", "113029.408000", "113029.411000", "113029.414000", "113029.417000", "113029.420000", "113029.423000", "113029.426000", "113029.429000", "113029.432000", "113029.435000", "113029.438000", "113029.441000", "113029.444000", "113029.447000", "113029.450000", "113029.454000", "113029.457000", "113029.460000", "113029.463000", "113029.466000", "113029.469000", "113029.472000", "113029.475000", "113044.311000", "113044.315000", "113044.318000", "113044.331000", "113044.334000", "113044.337000", "113044.340000", "113044.343000", "113044.346000", "113044.349000", "113044.352000", "113044.356000", "113044.359000", "113044.362000", "113044.365000", "113044.368000", "113044.371000", "113044.374000", "113044.377000", "113044.380000", "113044.383000", "113044.386000"],
      "InstanceCreationTime": ["112849.422000", "112849.426000", "112849.429000", "112849.432000", "112849.435000", "112849.438000", "112849.441000", "112849.444000", "112849.447000", "112849.450000", "112849.453000", "112849.456000", "112849.459000", "112849.462000", "112849.465000", "112849.475000", "112849.478000", "112849.481000", "112849.484000", "112849.487000", "112849.490000", "112849.493000", "112849.496000", "112849.499000", "112849.502000", "112849.505000", "112849.508000", "112849.511000", "112849.514000", "112849.517000", "112849.520000", "112909.393000", "112909.396000", "112909.399000", "112909.402000", "112909.405000", "112909.408000", "112909.411000", "112909.414000", "112909.417000", "112909.420000", "112909.423000", "112909.426000", "112909.432000", "112909.435000", "112909.438000", "112909.441000", "112909.444000", "112909.447000", "112909.450000", "112909.453000", "112909.456000", "112909.459000", "112909.462000", "112909.465000", "112909.468000", "112909.471000", "112929.393000", "112929.396000", "112929.399000", "112929.402000", "112929.405000", "112929.408000", "112929.411000", "112929.414000", "112929.417000", "112929.420000", "112929.423000", "112929.426000", "112929.429000", "112929.432000", "112929.435000", "112929.438000", "112929.442000", "112929.445000", "112929.448000", "112929.451000", "112929.460000", "112929.463000", "112929.466000", "112929.469000", "112929.472000", "112929.475000", "112929.478000", "112929.481000", "112929.484000", "112949.394000", "112949.397000", "112949.400000", "112949.403000", "112949.406000", "112949.409000", "112949.412000", "112949.415000", "112949.418000", "112949.421000", "112949.431000", "112949.434000", "112949.438000", "112949.441000", "112949.444000", "112949.447000", "112949.450000", "112949.452000", "112949.455000", "112949.458000", "112949.461000", "112949.464000", "112949.467000", "112949.470000", "112949.473000", "112949.476000", "112949.479000", "112949.482000", "113009.393000", "113009.396000", "113009.399000", "113009.402000", "113009.405000", "113009.408000", "113009.411000", "113009.414000", "113009.417000", "113009.420000", "113009.423000", "113009.426000", "113009.429000", "113009.432000", "113009.436000", "113009.439000", "113009.442000", "113009.445000", "113009.448000", "113009.458000", "113009.461000", "113009.464000", "113009.467000", "113009.470000", "113009.473000", "113009.476000", "113009.479000", "113009.482000", "113029.393000", "113029.396000", "113029.399000", "113029.402000", "113029.405000", "113029.408000", "113029.411000", "113029.414000", "113029.417000", "113029.420000", "113029.423000", "113029.426000", "113029.429000", "113029.432000", "113029.435000", "113029.438000", "113029.441000", "113029.444000", "113029.447000", "113029.450000", "113029.454000", "113029.457000", "113029.460000", "113029.463000", "113029.466000", "113029.469000", "113029.472000", "113029.475000", "113044.311000", "113044.315000", "113044.318000", "113044.331000", "113044.334000", "113044.337000", "113044.340000", "113044.343000", "113044.346000", "113044.349000", "113044.352000", "113044.356000", "113044.359000", "113044.362000", "113044.365000", "113044.368000", "113044.371000", "113044.374000", "113044.377000", "113044.380000", "113044.383000", "113044.386000"],
      "InstanceNumber": [1, 2, 3, 4, 5, 6, 7, 8, 9, 10, 11, 12, 13, 14, 15, 16, 17, 18, 19, 20, 21, 22, 23, 24, 25, 26, 27, 28, 29, 30, 31, 32, 33, 34, 35, 36, 37, 38, 39, 40, 41, 42, 43, 44, 45, 46, 47, 48, 49, 50, 51, 52, 53, 54, 55, 56, 57, 58, 59, 60, 61, 62, 63, 64, 65, 66, 67, 68, 69, 70, 71, 72, 73, 74, 75, 76, 77, 78, 79, 80, 81, 82, 83, 84, 85, 86, 87, 88, 89, 90, 91, 92, 93, 94, 95, 96, 97, 98, 99, 100, 101, 102, 103, 104, 105, 106, 107, 108, 109, 110, 111, 112, 113, 114, 115, 116, 117, 118, 119, 120, 121, 122, 123, 124, 125, 126, 127, 128, 129, 130, 131, 132, 133, 134, 135, 136, 137, 138, 139, 140, 141, 142, 143, 144, 145, 146, 147, 148, 149, 150, 151, 152, 153, 154, 155, 156, 157, 158, 159, 160, 161, 162, 163, 164, 165, 166, 167, 168, 169, 170, 171, 172, 173, 174, 175, 176, 177, 178, 179, 180, 181, 182, 183, 184, 185, 186, 187, 188, 189, 190, 191, 192],
      "LargestImagePixelValue": [59434, 57149, 56153, 55565, 54962, 54397, 54665, 55044, 55200, 55351, 54732, 54878, 54928, 54522, 54462, 54882, 54392, 54406, 54241, 53795, 53739, 53326, 54135, 53591, 54359, 54163, 54059, 53960, 53929, 53641, 54459, 54412, 54170, 53978, 54415, 54718, 54816, 55810, 55269, 55356, 55538, 55954, 55870, 54881, 55028, 54536, 55351, 55264, 55528, 54993, 55127, 55300, 54420, 54246, 54492, 54737, 55459, 54732, 54767, 55333, 55148, 55735, 54977, 55530, 55213, 55309, 55144, 55785, 55489, 55662, 55011, 55781, 55575, 55857, 55639, 55557, 55711, 55651, 55904, 56201, 56085, 55827, 56095, 56259, 55214, 55550, 55910, 55871, 55237, 54682, 55842, 55719, 55551, 55547, 55213, 54928, 54683, 55149, 54716, 54818, 55302, 54423, 54827, 54718, 55351, 54931, 54169, 54608, 54775, 55047, 54901, 54318, 55239, 55986, 55767, 55187, 55560, 55277, 55298, 55195, 55406, 55830, 56034, 54716, 55792, 55505, 55585, 55819, 55562, 55909, 55781, 55857, 55808, 55615, 56169, 55736, 55365, 54884, 55628, 55340, 55494, 54868, 54845, 54590, 55497, 55466, 54491, 54935, 54333, 54989, 54778, 55135, 54722, 54185, 53762, 54398, 54399, 53778, 53828, 54118, 54187, 53634, 53530, 53937, 54023, 53979, 54268, 54025, 53960, 54079, 54268, 54138, 53798, 54444, 54123, 53976, 53680, 53559, 54169, 53947, 53599, 53050, 53814, 53694, 54065, 53841, 53536, 54554, 53973, 53703, 52007, 54771],
      "WindowCenter": [10773.0, 10737.0, 10710.0, 10693.0, 10670.0, 10650.0, 10639.0, 10628.0, 10624.0, 10622.0, 10620.0, 10619.0, 10620.0, 10610.0, 10603.0, 10612.0, 10601.0, 10606.0, 10600.0, 10594.0, 10593.0, 10598.0, 10626.0, 10647.0, 10658.0, 10648.0, 10638.0, 10623.0, 10626.0, 10627.0, 10653.0, 10672.0, 10679.0, 10679.0, 10668.0, 10644.0, 10633.0, 10640.0, 10634.0, 10635.0, 10646.0, 10646.0, 10639.0, 10622.0, 10607.0, 10600.0, 10606.0, 10609.0, 10609.0, 10634.0, 10645.0, 10650.0, 10635.0, 10627.0, 10618.0, 10612.0, 10603.0, 10605.0, 10620.0, 10648.0, 10654.0, 10666.0, 10661.0, 10659.0, 10653.0, 10653.0, 10656.0, 10673.0, 10667.0, 10672.0, 10661.0, 10663.0, 10654.0, 10645.0, 10638.0, 10639.0, 10640.0, 10643.0, 10634.0, 10618.0, 10612.0, 10606.0, 10616.0, 10619.0, 10631.0, 10643.0, 10672.0, 10691.0, 10703.0, 10684.0, 10676.0, 10673.0, 10664.0, 10652.0, 10649.0, 10638.0, 10630.0, 10625.0, 10612.0, 10610.0, 10615.0, 10611.0, 10612.0, 10627.0, 10634.0, 10636.0, 10624.0, 10614.0, 10622.0, 10622.0, 10616.0, 10618.0, 10642.0, 10659.0, 10668.0, 10660.0, 10663.0, 10649.0, 10635.0, 10626.0, 10621.0, 10625.0, 10641.0, 10640.0, 10653.0, 10654.0, 10654.0, 10648.0, 10635.0, 10631.0, 10625.0, 10636.0, 10631.0, 10633.0, 10637.0, 10633.0, 10628.0, 10621.0, 10624.0, 10617.0, 10609.0, 10601.0, 10599.0, 10605.0, 10616.0, 10621.0, 10635.0, 10643.0, 10645.0, 10644.0, 10630.0, 10633.0, 10626.0, 10629.0, 10636.0, 10653.0, 10666.0, 10657.0, 10653.0, 10656.0, 10656.0, 10654.0, 10644.0, 10646.0, 10644.0, 10638.0, 10629.0, 10628.0, 10629.0, 10632.0, 10636.0, 10638.0, 10633.0, 10630.0, 10613.0, 10602.0, 10594.0, 10597.0, 10617.0, 10635.0, 10634.0, 10624.0, 10620.0, 10612.0, 10610.0, 10599.0, 10598.0, 10605.0, 10601.0, 10595.0, 10583.0, 10639.0],
      "WindowWidth": [23345.0, 23227.0, 23152.0, 23097.0, 23030.0, 22979.0, 22949.0, 22926.0, 22912.0, 22905.0, 22904.0, 22901.0, 22900.0, 22880.0, 22863.0, 22877.0, 22854.0, 22865.0, 22853.0, 22839.0, 22834.0, 22852.0, 22922.0, 22975.0, 22999.0, 22981.0, 22955.0, 22916.0, 22919.0, 22928.0, 22992.0, 23040.0, 23065.0, 23064.0, 23031.0, 22967.0, 22937.0, 22949.0, 22938.0, 22940.0, 22962.0, 22962.0, 22941.0, 22902.0, 22870.0, 22851.0, 22862.0, 22869.0, 22873.0, 22935.0, 22964.0, 22972.0, 22936.0, 22919.0, 22896.0, 22878.0, 22856.0, 22863.0, 22901.0, 22971.0, 22989.0, 23020.0, 23008.0, 22999.0, 22982.0, 22982.0, 22994.0, 23034.0, 23026.0, 23039.0, 23014.0, 23012.0, 22987.0, 22965.0, 22950.0, 22950.0, 22953.0, 22956.0, 22933.0, 22894.0, 22881.0, 22869.0, 22891.0, 22902.0, 22932.0, 22963.0, 23035.0, 23083.0, 23120.0, 23075.0, 23048.0, 23033.0, 23007.0, 22978.0, 22970.0, 22946.0, 22928.0, 22916.0, 22888.0, 22882.0, 22890.0, 22882.0, 22883.0, 22919.0, 22938.0, 22943.0, 22913.0, 22888.0, 22906.0, 22910.0, 22897.0, 22901.0, 22956.0, 23000.0, 23022.0, 23008.0, 23014.0, 22980.0, 22945.0, 22921.0, 22908.0, 22919.0, 22955.0, 22954.0, 22983.0, 22985.0, 22988.0, 22973.0, 22942.0, 22931.0, 22918.0, 22941.0, 22931.0, 22937.0, 22947.0, 22940.0, 22927.0, 22909.0, 22914.0, 22902.0, 22881.0, 22855.0, 22851.0, 22866.0, 22892.0, 22904.0, 22937.0, 22958.0, 22968.0, 22962.0, 22928.0, 22931.0, 22919.0, 22928.0, 22945.0, 22989.0, 23022.0, 23005.0, 22998.0, 23006.0, 23005.0, 22993.0, 22971.0, 22974.0, 22966.0, 22949.0, 22927.0, 22924.0, 22927.0, 22937.0, 22947.0, 22956.0, 22940.0, 22931.0, 22888.0, 22856.0, 22834.0, 22845.0, 22893.0, 22943.0, 22946.0, 22920.0, 22909.0, 22888.0, 22883.0, 22862.0, 22861.0, 22880.0, 22871.0, 22854.0, 22820.0, 22943.0]
    },
    "slices": {}
  }
}