{
  "AcquisitionMatrixPE": 104,
  "AcquisitionNumber": 1,
  "AcquisitionTime": "12:04:40.627500",
  "BandwidthPerPixelPhaseEncode": 16.297,
  "BaseResolution": 104,
  "BodyPartExamined": "BRAIN",
  "ConsistencyInfo": "N4_VE11C_LATEST_20160120",
  "ConversionSoftware": "dcm2niix",
  "ConversionSoftwareVersion": "v1.0.20210317",
  "DerivedVendorReportedEchoSpacing": 0.000590009,
  "DeviceSerialNumber": "166018",
  "DwellTime": 2.1e-06,
  "EchoTime": 0.0376,
  "EchoTrainLength": 104,
  "EffectiveEchoSpacing": 0.000590009,
  "FlipAngle": 68,
  "ImageComments": "Unaliased MB6/PE3/LB",
  "ImageOrientationPatientDICOM": [0.998791, -0.0136688, 0.04722, 0.0226657, 0.980418, -0.195621],
  "ImageType": [
    "ORIGINAL",
    "PRIMARY",
    "M",
    "MB",
    "ND",
    "MOSAIC"
],
  "ImagingFrequency": 123.197,
  "InPlanePhaseEncodingDirectionDICOM": "COL",
  "InstitutionAddress": "Washington Place 6,NYC,NYC,US,10003",
  "InstitutionName": "NYU - CBI",
  "InstitutionalDepartmentName": "Department",
  "MRAcquisitionType": "2D",
  "MagneticFieldStrength": 3,
  "Manufacturer": "Siemens",
  "ManufacturersModelName": "Prisma",
  "Modality": "MR",
  "MultibandAccelerationFactor": 6,
  "PartialFourier": 1,
  "PatientPosition": "HFS",
  "PercentPhaseFOV": 100,
  "PercentSampling": 100,
  "PhaseEncodingDirection": "j",
  "PhaseEncodingSteps": 104,
  "PhaseResolution": 1,
  "PixelBandwidth": 2290,
  "ProcedureStepDescription": "Investigators^Winawer",
  "ProtocolName": "cmrr_mbepi_s6_2mm_66sl_PA_task-prf",
  "PulseSequenceDetails": "%CustomerSeq%\\cmrr_mbep2d_bold",
  "ReceiveCoilActiveElements": "HC1-7",
  "ReceiveCoilName": "HeadNeck_64",
  "ReconMatrixPE": 104,
  "RepetitionTime": 1,
  "SAR": 0.0918345,
  "ScanOptions": "FS",
  "ScanningSequence": "EP",
  "SequenceName": "epfid2d1_104",
  "SequenceVariant": "SK\\SS",
  "SeriesDescription": "cmrr_mbepi_s6_2mm_66sl_PA_task-prf",
  "SeriesNumber": 23,
  "ShimSetting": [316, -12633, -8503, 139, 23, -125, 105, 101],
  "SliceThickness": 2,
  "SliceTiming": [0, 0.535, 0.09, 0.625, 0.1775, 0.7125, 0.2675, 0.8025, 0.3575, 0.89, 0.445, 0, 0.535, 0.09, 0.625, 0.1775, 0.7125, 0.2675, 0.8025, 0.3575, 0.89, 0.445, 0, 0.535, 0.09, 0.625, 0.1775, 0.7125, 0.2675, 0.8025, 0.3575, 0.89, 0.445, 0, 0.535, 0.09, 0.625, 0.1775, 0.7125, 0.2675, 0.8025, 0.3575, 0.89, 0.445, 0, 0.535, 0.09, 0.625, 0.1775, 0.7125, 0.2675, 0.8025, 0.3575, 0.89, 0.445, 0, 0.535, 0.09, 0.625, 0.1775, 0.7125, 0.2675, 0.8025, 0.3575, 0.89, 0.445],
  "SoftwareVersions": "syngo MR E11",
  "SpacingBetweenSlices": 2,
  "StationName": "AWP166018",
  "TaskName": "prf",
  "TotalReadoutTime": 0.060771,
  "TxRefAmp": 263.077,
  "VendorReportedEchoSpacing": 0.00059,
  "WipMemBlock": "d0c30371-2d52-4609-ad95-2df4d5c2f496||Sequence: R016 ve11c/master r/8780670; Nov 27 2017 15:05:12 by eja",
  "dcmmeta_affine": [
    [-1.997581958770752, 0.0453314371407032, 0.08724290132522583, 102.45104217529297],
    [0.027337506413459778, 1.9608352184295654, -0.39290952682495117, -65.47602844238281],
    [0.09444005787372589, 0.39124199748039246, 1.959084153175354, -55.4233512878418],
    [0.0, 0.0, 0.0, 1.0]
],
  "dcmmeta_reorient_transform": [
    [0.0, -1.0, 0.0, 103.0],
    [1.0, 0.0, 0.0, 0.0],
    [0.0, 0.0, 1.0, 0.0],
    [0.0, 0.0, 0.0, 1.0]
],
  "dcmmeta_shape": [104, 104, 66, 192],
  "dcmmeta_slice_dim": 2,
  "dcmmeta_version": 0.6,
  "global": {
    "const": {
      "AccessionNumber": "L5mqz82m",
      "AcquisitionMatrix": [104, 0, 0, 104],
      "AngioFlag": "N",
      "BitsAllocated": 16,
      "BitsStored": 16,
      "BodyPartExamined": "BRAIN",
      "Columns": 936,
      "EchoNumbers": 1,
      "EchoTime": 37.6,
      "EchoTrainLength": 104,
      "FlipAngle": 68.0,
      "HighBit": 15,
      "ImageOrientationPatient": [0.99879098617124, -0.0136687528333, 0.04722002900325, 0.02266571833323, 0.98041761027041, -0.1956209975542],
      "ImagePositionPatient": [-956.97215921212, -940.82504686365, 108.34418066342],
      "ImageType": [
        "ORIGINAL",
        "PRIMARY",
        "M",
        "MB",
        "ND",
        "MOSAIC"
],
      "ImagedNucleus": "1H",
      "ImagingFrequency": 123.196825,
      "InPlanePhaseEncodingDirection": "COL",
      "MRAcquisitionType": "2D",
      "MagneticFieldStrength": 3.0,
      "Manufacturer": "SIEMENS",
      "ManufacturerModelName": "Prisma",
      "Modality": "MR",
      "NumberOfAverages": 1.0,
      "NumberOfPhaseEncodingSteps": 104,
      "PercentPhaseFieldOfView": 100.0,
      "PercentSampling": 100.0,
      "PerformedProcedureStepStartTime": "111458.126000",
      "PhotometricInterpretation": "MONOCHROME2",
      "PixelBandwidth": 2290.0,
      "PixelRepresentation": 0,
      "PixelSpacing": [2.0, 2.0],
      "ProtocolName": "cmrr_mbepi_s6_2mm_66sl_PA_task-prf",
      "RepetitionTime": 1000.0,
      "Rows": 936,
      "SAR": 0.09183454342287,
      "SamplesPerPixel": 1,
      "ScanOptions": "FS",
      "ScanningSequence": "EP",
      "SequenceName": "epfid2d1_104",
      "SequenceVariant": [
        "SK",
        "SS"
],
      "SeriesDescription": "cmrr_mbepi_s6_2mm_66sl_PA_task-prf",
      "SeriesNumber": 23,
      "SeriesTime": "120549.355000",
      "SliceLocation": -36.957362927095,
      "SliceThickness": 2.0,
      "SmallestImagePixelValue": 0,
      "SoftwareVersions": "syngo MR E11",
      "SpacingBetweenSlices": 1.999999945464,
      "SpecificCharacterSet": "ISO_IR 100",
      "StudyID": "1",
      "StudyTime": "111458.052000",
      "TransmitCoilName": "Body",
      "VariableFlipAngleFlag": "N",
      "WindowCenterWidthExplanation": "Algo1",
      "dBdt": 0.0},
    "slices": {}
  },
  "time": {
    "samples": {
      "AcquisitionNumber": [1, 2, 3, 4, 5, 6, 7, 8, 9, 10, 11, 12, 13, 14, 15, 16, 17, 18, 19, 20, 21, 22, 23, 24, 25, 26, 27, 28, 29, 30, 31, 32, 33, 34, 35, 36, 37, 38, 39, 40, 41, 42, 43, 44, 45, 46, 47, 48, 49, 50, 51, 52, 53, 54, 55, 56, 57, 58, 59, 60, 61, 62, 63, 64, 65, 66, 67, 68, 69, 70, 71, 72, 73, 74, 75, 76, 77, 78, 79, 80, 81, 82, 83, 84, 85, 86, 87, 88, 89, 90, 91, 92, 93, 94, 95, 96, 97, 98, 99, 100, 101, 102, 103, 104, 105, 106, 107, 108, 109, 110, 111, 112, 113, 114, 115, 116, 117, 118, 119, 120, 121, 122, 123, 124, 125, 126, 127, 128, 129, 130, 131, 132, 133, 134, 135, 136, 137, 138, 139, 140, 141, 142, 143, 144, 145, 146, 147, 148, 149, 150, 151, 152, 153, 154, 155, 156, 157, 158, 159, 160, 161, 162, 163, 164, 165, 166, 167, 168, 169, 170, 171, 172, 173, 174, 175, 176, 177, 178, 179, 180, 181, 182, 183, 184, 185, 186, 187, 188, 189, 190, 191, 192],
      "AcquisitionTime": ["120440.627500", "120441.627500", "120442.627500", "120443.627500", "120444.627500", "120445.627500", "120446.627500", "120447.627500", "120448.627500", "120449.627500", "120450.627500", "120451.627500", "120452.627500", "120453.627500", "120454.627500", "120455.627500", "120456.627500", "120457.627500", "120458.627500", "120459.627500", "120500.627500", "120501.627500", "120502.627500", "120503.627500", "120504.627500", "120505.627500", "120506.627500", "120507.627500", "120508.627500", "120509.627500", "120510.627500", "120511.627500", "120512.627500", "120513.627500", "120514.627500", "120515.627500", "120516.627500", "120517.627500", "120518.627500", "120519.627500", "120520.627500", "120521.627500", "120522.627500", "120523.627500", "120524.627500", "120525.627500", "120526.627500", "120527.627500", "120528.627500", "120529.627500", "120530.627500", "120531.627500", "120532.627500", "120533.627500", "120534.627500", "120535.627500", "120536.627500", "120537.627500", "120538.627500", "120539.627500", "120540.627500", "120541.627500", "120542.627500", "120543.627500", "120544.627500", "120545.627500", "120546.627500", "120547.627500", "120548.627500", "120549.627500", "120550.627500", "120551.627500", "120552.627500", "120553.627500", "120554.627500", "120555.627500", "120556.627500", "120557.627500", "120558.627500", "120559.627500", "120600.627500", "120601.627500", "120602.627500", "120603.627500", "120604.627500", "120605.627500", "120606.627500", "120607.627500", "120608.627500", "120609.627500", "120610.627500", "120611.627500", "120612.627500", "120613.627500", "120614.627500", "120615.627500", "120616.627500", "120617.627500", "120618.627500", "120619.627500", "120620.627500", "120621.627500", "120622.627500", "120623.627500", "120624.627500", "120625.627500", "120626.627500", "120627.627500", "120628.627500", "120629.627500", "120630.627500", "120631.627500", "120632.627500", "120633.627500", "120634.627500", "120635.627500", "120636.627500", "120637.627500", "120638.627500", "120639.627500", "120640.627500", "120641.627500", "120642.627500", "120643.627500", "120644.627500", "120645.627500", "120646.627500", "120647.627500", "120648.627500", "120649.627500", "120650.627500", "120651.627500", "120652.627500", "120653.627500", "120654.627500", "120655.627500", "120656.627500", "120657.627500", "120658.627500", "120659.627500", "120700.627500", "120701.627500", "120702.627500", "120703.627500", "120704.627500", "120705.627500", "120706.627500", "120707.627500", "120708.627500", "120709.627500", "120710.627500", "120711.627500", "120712.627500", "120713.627500", "120714.627500", "120715.627500", "120716.627500", "120717.627500", "120718.627500", "120719.627500", "120720.627500", "120721.627500", "120722.627500", "120723.627500", "120724.627500", "120725.627500", "120726.627500", "120727.627500", "120728.627500", "120729.627500", "120730.627500", "120731.627500", "120732.627500", "120733.627500", "120734.627500", "120735.627500", "120736.627500", "120737.627500", "120738.627500", "120739.627500", "120740.627500", "120741.627500", "120742.627500", "120743.627500", "120744.627500", "120745.627500", "120746.627500", "120747.627500", "120748.627500", "120749.627500", "120750.627500", "120751.627500"],
      "ContentTime": ["120549.358000", "120549.381000", "120549.393000", "120549.396000", "120549.405000", "120549.408000", "120549.411000", "120549.414000", "120549.421000", "120549.428000", "120549.431000", "120549.434000", "120549.437000", "120549.440000", "120549.443000", "120549.446000", "120549.449000", "120549.452000", "120549.455000", "120549.458000", "120549.461000", "120549.468000", "120549.471000", "120549.489000", "120549.496000", "120549.500000", "120549.503000", "120609.319000", "120609.322000", "120609.325000", "120609.328000", "120609.331000", "120609.339000", "120609.342000", "120609.345000", "120609.348000", "120609.351000", "120609.354000", "120609.362000", "120609.365000", "120609.368000", "120609.371000", "120609.374000", "120609.377000", "120609.381000", "120609.384000", "120609.387000", "120609.390000", "120609.393000", "120609.396000", "120609.399000", "120609.402000", "120609.405000", "120609.408000", "120609.411000", "120609.414000", "120629.319000", "120629.322000", "120629.325000", "120629.328000", "120629.331000", "120629.334000", "120629.337000", "120629.341000", "120629.344000", "120629.347000", "120629.350000", "120629.353000", "120629.356000", "120629.370000", "120629.373000", "120629.376000", "120629.379000", "120629.382000", "120629.385000", "120629.388000", "120629.391000", "120629.394000", "120629.397000", "120629.400000", "120629.403000", "120629.406000", "120629.409000", "120629.412000", "120649.320000", "120649.323000", "120649.326000", "120649.330000", "120649.333000", "120649.336000", "120649.339000", "120649.342000", "120649.345000", "120649.348000", "120649.353000", "120649.357000", "120649.360000", "120649.363000", "120649.366000", "120649.369000", "120649.372000", "120649.377000", "120649.380000", "120649.383000", "120649.388000", "120649.391000", "120649.394000", "120649.397000", "120649.400000", "120649.403000", "120649.406000", "120649.409000", "120709.319000", "120709.322000", "120709.325000", "120709.328000", "120709.331000", "120709.335000", "120709.338000", "120709.340000", "120709.344000", "120709.347000", "120709.350000", "120709.353000", "120709.356000", "120709.359000", "120709.362000", "120709.365000", "120709.368000", "120709.371000", "120709.374000", "120709.377000", "120709.380000", "120709.383000", "120709.386000", "120709.389000", "120709.392000", "120709.395000", "120709.398000", "120709.401000", "120709.404000", "120729.319000", "120729.322000", "120729.325000", "120729.328000", "120729.331000", "120729.335000", "120729.338000", "120729.341000", "120729.344000", "120729.347000", "120729.350000", "120729.353000", "120729.356000", "120729.359000", "120729.362000", "120729.365000", "120729.368000", "120729.371000", "120729.374000", "120729.377000", "120729.380000", "120729.383000", "120729.386000", "120729.389000", "120729.392000", "120729.395000", "120749.319000", "120749.322000", "120749.325000", "120749.328000", "120749.331000", "120749.335000", "120749.338000", "120749.341000", "120749.344000", "120749.347000", "120749.350000", "120749.353000", "120749.356000", "120749.359000", "120749.362000", "120749.365000", "120749.368000", "120749.371000", "120749.374000", "120749.380000", "120753.382000", "120753.385000", "120753.389000", "120753.392000", "120753.395000"],
      "InstanceCreationTime": ["120549.358000", "120549.381000", "120549.393000", "120549.396000", "120549.405000", "120549.408000", "120549.411000", "120549.414000", "120549.421000", "120549.428000", "120549.431000", "120549.434000", "120549.437000", "120549.440000", "120549.443000", "120549.446000", "120549.449000", "120549.452000", "120549.455000", "120549.458000", "120549.461000", "120549.468000", "120549.471000", "120549.489000", "120549.496000", "120549.500000", "120549.503000", "120609.319000", "120609.322000", "120609.325000", "120609.328000", "120609.331000", "120609.339000", "120609.342000", "120609.345000", "120609.348000", "120609.351000", "120609.354000", "120609.362000", "120609.365000", "120609.368000", "120609.371000", "120609.374000", "120609.377000", "120609.381000", "120609.384000", "120609.387000", "120609.390000", "120609.393000", "120609.396000", "120609.399000", "120609.402000", "120609.405000", "120609.408000", "120609.411000", "120609.414000", "120629.319000", "120629.322000", "120629.325000", "120629.328000", "120629.331000", "120629.334000", "120629.337000", "120629.341000", "120629.344000", "120629.347000", "120629.350000", "120629.353000", "120629.356000", "120629.370000", "120629.373000", "120629.376000", "120629.379000", "120629.382000", "120629.385000", "120629.388000", "120629.391000", "120629.394000", "120629.397000", "120629.400000", "120629.403000", "120629.406000", "120629.409000", "120629.412000", "120649.320000", "120649.323000", "120649.326000", "120649.330000", "120649.333000", "120649.336000", "120649.339000", "120649.342000", "120649.345000", "120649.348000", "120649.353000", "120649.357000", "120649.360000", "120649.363000", "120649.366000", "120649.369000", "120649.372000", "120649.377000", "120649.380000", "120649.383000", "120649.388000", "120649.391000", "120649.394000", "120649.397000", "120649.400000", "120649.403000", "120649.406000", "120649.409000", "120709.319000", "120709.322000", "120709.325000", "120709.328000", "120709.331000", "120709.335000", "120709.338000", "120709.340000", "120709.344000", "120709.347000", "120709.350000", "120709.353000", "120709.356000", "120709.359000", "120709.362000", "120709.365000", "120709.368000", "120709.371000", "120709.374000", "120709.377000", "120709.380000", "120709.383000", "120709.386000", "120709.389000", "120709.392000", "120709.395000", "120709.398000", "120709.401000", "120709.404000", "120729.319000", "120729.322000", "120729.325000", "120729.328000", "120729.331000", "120729.335000", "120729.338000", "120729.341000", "120729.344000", "120729.347000", "120729.350000", "120729.353000", "120729.356000", "120729.359000", "120729.362000", "120729.365000", "120729.368000", "120729.371000", "120729.374000", "120729.377000", "120729.380000", "120729.383000", "120729.386000", "120729.389000", "120729.392000", "120729.395000", "120749.319000", "120749.322000", "120749.325000", "120749.328000", "120749.331000", "120749.335000", "120749.338000", "120749.341000", "120749.344000", "120749.347000", "120749.350000", "120749.353000", "120749.356000", "120749.359000", "120749.362000", "120749.365000", "120749.368000", "120749.371000", "120749.374000", "120749.380000", "120753.382000", "120753.385000", "120753.389000", "120753.392000", "120753.395000"],
      "InstanceNumber": [1, 2, 3, 4, 5, 6, 7, 8, 9, 10, 11, 12, 13, 14, 15, 16, 17, 18, 19, 20, 21, 22, 23, 24, 25, 26, 27, 28, 29, 30, 31, 32, 33, 34, 35, 36, 37, 38, 39, 40, 41, 42, 43, 44, 45, 46, 47, 48, 49, 50, 51, 52, 53, 54, 55, 56, 57, 58, 59, 60, 61, 62, 63, 64, 65, 66, 67, 68, 69, 70, 71, 72, 73, 74, 75, 76, 77, 78, 79, 80, 81, 82, 83, 84, 85, 86, 87, 88, 89, 90, 91, 92, 93, 94, 95, 96, 97, 98, 99, 100, 101, 102, 103, 104, 105, 106, 107, 108, 109, 110, 111, 112, 113, 114, 115, 116, 117, 118, 119, 120, 121, 122, 123, 124, 125, 126, 127, 128, 129, 130, 131, 132, 133, 134, 135, 136, 137, 138, 139, 140, 141, 142, 143, 144, 145, 146, 147, 148, 149, 150, 151, 152, 153, 154, 155, 156, 157, 158, 159, 160, 161, 162, 163, 164, 165, 166, 167, 168, 169, 170, 171, 172, 173, 174, 175, 176, 177, 178, 179, 180, 181, 182, 183, 184, 185, 186, 187, 188, 189, 190, 191, 192],
      "LargestImagePixelValue": [56387, 54012, 52371, 52141, 51530, 51855, 51790, 51665, 51588, 51780, 50999, 51144, 51368, 51938, 51792, 51844, 51301, 51854, 51426, 51258, 51462, 51498, 51209, 51210, 51752, 51181, 51245, 51487, 51583, 51880, 51764, 52345, 51948, 52170, 51642, 51089, 50922, 51318, 50904, 50784, 50496, 49615, 50428, 51202, 50896, 51311, 50975, 50339, 50577, 51596, 50740, 51776, 51753, 51584, 52171, 52379, 52451, 51947, 51666, 51496, 51312, 51750, 51692, 52048, 51826, 51747, 52268, 52325, 51707, 51964, 51445, 52071, 52150, 52056, 51859, 51867, 51946, 52554, 52404, 52124, 52344, 53076, 51864, 51664, 51103, 52173, 51788, 52060, 52215, 52722, 52294, 52742, 52253, 52571, 51750, 52360, 52335, 52369, 52756, 52446, 52248, 52537, 51431, 52250, 51986, 51883, 51652, 51258, 52629, 52497, 52618, 52101, 51645, 51807, 51378, 51288, 51416, 51660, 51074, 50468, 51917, 52082, 52111, 51676, 51177, 51679, 51240, 51095, 51106, 51488, 50582, 51383, 51078, 50990, 49631, 50272, 50935, 50117, 50084, 50398, 50389, 49818, 50336, 50898, 50226, 50331, 50615, 50578, 50376, 49994, 49908, 49893, 50379, 50324, 50921, 50474, 50251, 50200, 50414, 51419, 50515, 50155, 50484, 50541, 50899, 52098, 51604, 50928, 50436, 50704, 50593, 51189, 50909, 50689, 50754, 51009, 50485, 50448, 50385, 52206, 50896, 51069, 51045, 51031, 51177, 50357, 51326, 50675, 50912, 50505, 50847, 51579],
      "WindowCenter": [10606.0, 10538.0, 10498.0, 10480.0, 10470.0, 10491.0, 10500.0, 10493.0, 10484.0, 10470.0, 10460.0, 10459.0, 10465.0, 10472.0, 10479.0, 10489.0, 10486.0, 10485.0, 10483.0, 10484.0, 10479.0, 10473.0, 10469.0, 10468.0, 10473.0, 10460.0, 10457.0, 10462.0, 10465.0, 10488.0, 10504.0, 10512.0, 10491.0, 10468.0, 10450.0, 10436.0, 10427.0, 10431.0, 10433.0, 10452.0, 10438.0, 10443.0, 10458.0, 10473.0, 10468.0, 10466.0, 10454.0, 10440.0, 10431.0, 10441.0, 10446.0, 10471.0, 10487.0, 10486.0, 10485.0, 10482.0, 10478.0, 10469.0, 10460.0, 10458.0, 10464.0, 10464.0, 10472.0, 10492.0, 10488.0, 10482.0, 10479.0, 10477.0, 10467.0, 10465.0, 10453.0, 10470.0, 10479.0, 10488.0, 10482.0, 10473.0, 10469.0, 10462.0, 10461.0, 10476.0, 10484.0, 10488.0, 10463.0, 10441.0, 10431.0, 10442.0, 10451.0, 10474.0, 10492.0, 10499.0, 10489.0, 10487.0, 10474.0, 10464.0, 10448.0, 10450.0, 10455.0, 10452.0, 10462.0, 10472.0, 10479.0, 10484.0, 10466.0, 10458.0, 10449.0, 10443.0, 10449.0, 10459.0, 10487.0, 10502.0, 10498.0, 10482.0, 10462.0, 10461.0, 10457.0, 10444.0, 10435.0, 10433.0, 10439.0, 10430.0, 10454.0, 10462.0, 10463.0, 10458.0, 10457.0, 10466.0, 10456.0, 10453.0, 10455.0, 10446.0, 10441.0, 10443.0, 10429.0, 10427.0, 10402.0, 10425.0, 10445.0, 10452.0, 10458.0, 10451.0, 10439.0, 10433.0, 10430.0, 10428.0, 10424.0, 10432.0, 10450.0, 10454.0, 10456.0, 10462.0, 10458.0, 10455.0, 10451.0, 10437.0, 10439.0, 10438.0, 10442.0, 10451.0, 10466.0, 10489.0, 10484.0, 10480.0, 10479.0, 10472.0, 10474.0, 10476.0, 10471.0, 10473.0, 10461.0, 10460.0, 10452.0, 10465.0, 10476.0, 10478.0, 10495.0, 10491.0, 10484.0, 10474.0, 10459.0, 10464.0, 10456.0, 10451.0, 10459.0, 10469.0, 10481.0, 10466.0, 10462.0, 10448.0, 10439.0, 10438.0, 10443.0, 10447.0],
      "WindowWidth": [22918.0, 22728.0, 22614.0, 22563.0, 22536.0, 22581.0, 22605.0, 22586.0, 22563.0, 22527.0, 22502.0, 22498.0, 22511.0, 22530.0, 22548.0, 22573.0, 22570.0, 22566.0, 22558.0, 22560.0, 22549.0, 22541.0, 22531.0, 22525.0, 22534.0, 22507.0, 22500.0, 22507.0, 22518.0, 22572.0, 22615.0, 22629.0, 22582.0, 22525.0, 22475.0, 22441.0, 22421.0, 22427.0, 22434.0, 22475.0, 22447.0, 22461.0, 22495.0, 22523.0, 22509.0, 22506.0, 22484.0, 22454.0, 22431.0, 22451.0, 22469.0, 22525.0, 22567.0, 22572.0, 22572.0, 22563.0, 22549.0, 22530.0, 22512.0, 22503.0, 22512.0, 22513.0, 22532.0, 22578.0, 22572.0, 22557.0, 22548.0, 22543.0, 22522.0, 22517.0, 22495.0, 22533.0, 22550.0, 22573.0, 22561.0, 22537.0, 22524.0, 22503.0, 22502.0, 22537.0, 22554.0, 22561.0, 22504.0, 22455.0, 22428.0, 22454.0, 22478.0, 22534.0, 22578.0, 22597.0, 22577.0, 22567.0, 22536.0, 22509.0, 22476.0, 22479.0, 22488.0, 22485.0, 22513.0, 22536.0, 22553.0, 22559.0, 22524.0, 22496.0, 22474.0, 22460.0, 22476.0, 22503.0, 22569.0, 22603.0, 22596.0, 22558.0, 22512.0, 22501.0, 22490.0, 22463.0, 22441.0, 22435.0, 22450.0, 22435.0, 22486.0, 22504.0, 22507.0, 22500.0, 22496.0, 22514.0, 22494.0, 22488.0, 22487.0, 22461.0, 22445.0, 22444.0, 22410.0, 22406.0, 22358.0, 22409.0, 22455.0, 22470.0, 22481.0, 22465.0, 22442.0, 22431.0, 22425.0, 22419.0, 22416.0, 22439.0, 22478.0, 22487.0, 22493.0, 22506.0, 22495.0, 22484.0, 22472.0, 22438.0, 22440.0, 22438.0, 22452.0, 22476.0, 22514.0, 22562.0, 22559.0, 22553.0, 22552.0, 22535.0, 22536.0, 22545.0, 22533.0, 22538.0, 22509.0, 22505.0, 22489.0, 22511.0, 22535.0, 22540.0, 22583.0, 22580.0, 22560.0, 22535.0, 22499.0, 22503.0, 22487.0, 22480.0, 22498.0, 22522.0, 22549.0, 22523.0, 22509.0, 22474.0, 22451.0, 22450.0, 22459.0, 22467.0]
    },
    "slices": {}
  }
}