{
  "AcquisitionMatrixPE": 104,
  "AcquisitionNumber": 1,
  "AcquisitionTime": "10:02:48.380000",
  "BandwidthPerPixelPhaseEncode": 16.297,
  "BaseResolution": 104,
  "BodyPartExamined": "BRAIN",
  "ConsistencyInfo": "N4_VE11C_LATEST_20160120",
  "ConversionSoftware": "dcm2niix",
  "ConversionSoftwareVersion": "v1.0.20210317",
  "DerivedVendorReportedEchoSpacing": 0.000590009,
  "DeviceSerialNumber": "166018",
  "DwellTime": 2.1e-06,
  "EchoTime": 0.0376,
  "EchoTrainLength": 104,
  "EffectiveEchoSpacing": 0.000590009,
  "FlipAngle": 68,
  "ImageComments": "Unaliased MB6/PE3/LB",
  "ImageOrientationPatientDICOM": [0.998797, -0.0489328, 0.00316731, 0.0488493, 0.987311, -0.151097],
  "ImageType": [
    "ORIGINAL",
    "PRIMARY",
    "M",
    "MB",
    "ND",
    "MOSAIC"
],
  "ImagingFrequency": 123.197,
  "InPlanePhaseEncodingDirectionDICOM": "COL",
  "InstitutionAddress": "Washington Place 6,NYC,NYC,US,10003",
  "InstitutionName": "NYU - CBI",
  "InstitutionalDepartmentName": "Department",
  "MRAcquisitionType": "2D",
  "MagneticFieldStrength": 3,
  "Manufacturer": "Siemens",
  "ManufacturersModelName": "Prisma",
  "Modality": "MR",
  "MultibandAccelerationFactor": 6,
  "PartialFourier": 1,
  "PatientPosition": "HFS",
  "PercentPhaseFOV": 100,
  "PercentSampling": 100,
  "PhaseEncodingDirection": "j",
  "PhaseEncodingSteps": 104,
  "PhaseResolution": 1,
  "PixelBandwidth": 2290,
  "ProcedureStepDescription": "Investigators^Winawer",
  "ProtocolName": "cmrr_mbepi_s6_2mm_66sl_PA_task-bar1",
  "PulseSequenceDetails": "%CustomerSeq%\\cmrr_mbep2d_bold",
  "ReceiveCoilActiveElements": "HC1-7",
  "ReceiveCoilName": "HeadNeck_64",
  "ReconMatrixPE": 104,
  "RepetitionTime": 1,
  "SAR": 0.0835456,
  "ScanOptions": "FS",
  "ScanningSequence": "EP",
  "SequenceName": "epfid2d1_104",
  "SequenceVariant": "SK\\SS",
  "SeriesDescription": "cmrr_mbepi_s6_2mm_66sl_PA_task-bar1",
  "SeriesNumber": 8,
  "ShimSetting": [269, -12675, -8475, 292, -63, -139, -184, 51],
  "SliceThickness": 2,
  "SliceTiming": [0, 0.535, 0.09, 0.625, 0.1775, 0.7125, 0.2675, 0.8025, 0.3575, 0.89, 0.445, 0, 0.535, 0.09, 0.625, 0.1775, 0.7125, 0.2675, 0.8025, 0.3575, 0.89, 0.445, 0, 0.535, 0.09, 0.625, 0.1775, 0.7125, 0.2675, 0.8025, 0.3575, 0.89, 0.445, 0, 0.535, 0.09, 0.625, 0.1775, 0.7125, 0.2675, 0.8025, 0.3575, 0.89, 0.445, 0, 0.535, 0.09, 0.625, 0.1775, 0.7125, 0.2675, 0.8025, 0.3575, 0.89, 0.445, 0, 0.535, 0.09, 0.625, 0.1775, 0.7125, 0.2675, 0.8025, 0.3575, 0.89, 0.445],
  "SoftwareVersions": "syngo MR E11",
  "SpacingBetweenSlices": 2,
  "StationName": "AWP166018",
  "TaskName": "bar1",
  "TotalReadoutTime": 0.060771,
  "TxRefAmp": 211.063,
  "VendorReportedEchoSpacing": 0.00059,
  "WipMemBlock": "23f23ee8-7286-471e-b8ae-55f061dbe5e1||Sequence: R016 ve11c/master r/8780670; Nov 27 2017 15:05:12 by eja",
  "dcmmeta_affine": [
    [-1.9975941181182861, 0.09769852459430695, -0.008532923646271229, 101.85900115966797],
    [0.09786564856767654, 1.9746226072311401, -0.3021390736103058, -77.12189483642578],
    [0.006334618199616671, 0.30219313502311707, 1.9770278930664062, -48.13188934326172],
    [0.0, 0.0, 0.0, 1.0]
],
  "dcmmeta_reorient_transform": [
    [0.0, -1.0, 0.0, 103.0],
    [1.0, 0.0, 0.0, 0.0],
    [0.0, 0.0, 1.0, 0.0],
    [0.0, 0.0, 0.0, 1.0]
],
  "dcmmeta_shape": [104, 104, 66, 300],
  "dcmmeta_slice_dim": 2,
  "dcmmeta_version": 0.6,
  "global": {
    "const": {
      "AccessionNumber": "LekLmswf",
      "AcquisitionMatrix": [104, 0, 0, 104],
      "AngioFlag": "N",
      "BitsAllocated": 16,
      "BitsStored": 16,
      "BodyPartExamined": "BRAIN",
      "Columns": 936,
      "EchoNumbers": 1,
      "EchoTime": 37.6,
      "EchoTrainLength": 104,
      "FlipAngle": 68.0,
      "HighBit": 15,
      "ImageOrientationPatient": [0.99879704993033, -0.0489328233817, 0.00316730901195, 0.04884926153802, 0.98731128598273, -0.1510965724903],
      "ImagePositionPatient": [-983.56368289739, -906.99511353792, 106.07115035695],
      "ImageType": [
        "ORIGINAL",
        "PRIMARY",
        "M",
        "MB",
        "ND",
        "MOSAIC"
],
      "ImagedNucleus": "1H",
      "ImagingFrequency": 123.196814,
      "InPlanePhaseEncodingDirection": "COL",
      "MRAcquisitionType": "2D",
      "MagneticFieldStrength": 3.0,
      "Manufacturer": "SIEMENS",
      "ManufacturerModelName": "Prisma",
      "Modality": "MR",
      "NumberOfAverages": 1.0,
      "NumberOfPhaseEncodingSteps": 104,
      "PercentPhaseFieldOfView": 100.0,
      "PercentSampling": 100.0,
      "PerformedProcedureStepStartTime": "094851.153000",
      "PhotometricInterpretation": "MONOCHROME2",
      "PixelBandwidth": 2290.0,
      "PixelRepresentation": 0,
      "PixelSpacing": [2.0, 2.0],
      "ProtocolName": "cmrr_mbepi_s6_2mm_66sl_PA_task-bar1",
      "RepetitionTime": 1000.0,
      "Rows": 936,
      "SAR": 0.08354559146894,
      "SamplesPerPixel": 1,
      "ScanOptions": "FS",
      "ScanningSequence": "EP",
      "SequenceName": "epfid2d1_104",
      "SequenceVariant": [
        "SK",
        "SS"
],
      "SeriesDescription": "cmrr_mbepi_s6_2mm_66sl_PA_task-bar1",
      "SeriesNumber": 8,
      "SeriesTime": "100405.134000",
      "SliceLocation": -36.362854052414,
      "SliceThickness": 2.0,
      "SmallestImagePixelValue": 0,
      "SoftwareVersions": "syngo MR E11",
      "SpacingBetweenSlices": 2.0000000284228,
      "SpecificCharacterSet": "ISO_IR 100",
      "StudyID": "1",
      "StudyTime": "094851.095000",
      "TransmitCoilName": "Body",
      "VariableFlipAngleFlag": "N",
      "WindowCenterWidthExplanation": "Algo1",
      "dBdt": 0.0},
    "slices": {}
  },
  "time": {
    "samples": {
      "AcquisitionNumber": [1, 2, 3, 4, 5, 6, 7, 8, 9, 10, 11, 12, 13, 14, 15, 16, 17, 18, 19, 20, 21, 22, 23, 24, 25, 26, 27, 28, 29, 30, 31, 32, 33, 34, 35, 36, 37, 38, 39, 40, 41, 42, 43, 44, 45, 46, 47, 48, 49, 50, 51, 52, 53, 54, 55, 56, 57, 58, 59, 60, 61, 62, 63, 64, 65, 66, 67, 68, 69, 70, 71, 72, 73, 74, 75, 76, 77, 78, 79, 80, 81, 82, 83, 84, 85, 86, 87, 88, 89, 90, 91, 92, 93, 94, 95, 96, 97, 98, 99, 100, 101, 102, 103, 104, 105, 106, 107, 108, 109, 110, 111, 112, 113, 114, 115, 116, 117, 118, 119, 120, 121, 122, 123, 124, 125, 126, 127, 128, 129, 130, 131, 132, 133, 134, 135, 136, 137, 138, 139, 140, 141, 142, 143, 144, 145, 146, 147, 148, 149, 150, 151, 152, 153, 154, 155, 156, 157, 158, 159, 160, 161, 162, 163, 164, 165, 166, 167, 168, 169, 170, 171, 172, 173, 174, 175, 176, 177, 178, 179, 180, 181, 182, 183, 184, 185, 186, 187, 188, 189, 190, 191, 192, 193, 194, 195, 196, 197, 198, 199, 200, 201, 202, 203, 204, 205, 206, 207, 208, 209, 210, 211, 212, 213, 214, 215, 216, 217, 218, 219, 220, 221, 222, 223, 224, 225, 226, 227, 228, 229, 230, 231, 232, 233, 234, 235, 236, 237, 238, 239, 240, 241, 242, 243, 244, 245, 246, 247, 248, 249, 250, 251, 252, 253, 254, 255, 256, 257, 258, 259, 260, 261, 262, 263, 264, 265, 266, 267, 268, 269, 270, 271, 272, 273, 274, 275, 276, 277, 278, 279, 280, 281, 282, 283, 284, 285, 286, 287, 288, 289, 290, 291, 292, 293, 294, 295, 296, 297, 298, 299, 300],
      "AcquisitionTime": ["100248.380000", "100249.380000", "100250.380000", "100251.380000", "100252.380000", "100253.380000", "100254.380000", "100255.380000", "100256.380000", "100257.380000", "100258.380000", "100259.380000", "100300.380000", "100301.380000", "100302.380000", "100303.380000", "100304.380000", "100305.380000", "100306.380000", "100307.380000", "100308.380000", "100309.380000", "100310.380000", "100311.380000", "100312.380000", "100313.380000", "100314.380000", "100315.380000", "100316.380000", "100317.380000", "100318.380000", "100319.380000", "100320.380000", "100321.380000", "100322.380000", "100323.380000", "100324.380000", "100325.380000", "100326.380000", "100327.380000", "100328.380000", "100329.380000", "100330.380000", "100331.380000", "100332.380000", "100333.380000", "100334.380000", "100335.380000", "100336.380000", "100337.380000", "100338.380000", "100339.380000", "100340.380000", "100341.380000", "100342.380000", "100343.380000", "100344.380000", "100345.380000", "100346.380000", "100347.380000", "100348.380000", "100349.380000", "100350.380000", "100351.380000", "100352.380000", "100353.380000", "100354.380000", "100355.380000", "100356.380000", "100357.380000", "100358.380000", "100359.380000", "100400.380000", "100401.380000", "100402.380000", "100403.380000", "100404.380000", "100405.380000", "100406.380000", "100407.380000", "100408.380000", "100409.380000", "100410.380000", "100411.380000", "100412.380000", "100413.380000", "100414.380000", "100415.380000", "100416.380000", "100417.380000", "100418.380000", "100419.380000", "100420.380000", "100421.380000", "100422.380000", "100423.380000", "100424.380000", "100425.380000", "100426.380000", "100427.380000", "100428.380000", "100429.380000", "100430.380000", "100431.380000", "100432.380000", "100433.380000", "100434.380000", "100435.380000", "100436.380000", "100437.380000", "100438.380000", "100439.380000", "100440.380000", "100441.380000", "100442.380000", "100443.380000", "100444.380000", "100445.380000", "100446.380000", "100447.380000", "100448.380000", "100449.380000", "100450.380000", "100451.380000", "100452.380000", "100453.380000", "100454.380000", "100455.380000", "100456.380000", "100457.380000", "100458.380000", "100459.380000", "100500.380000", "100501.380000", "100502.380000", "100503.380000", "100504.380000", "100505.380000", "100506.380000", "100507.380000", "100508.380000", "100509.380000", "100510.380000", "100511.380000", "100512.380000", "100513.380000", "100514.380000", "100515.380000", "100516.380000", "100517.380000", "100518.380000", "100519.380000", "100520.380000", "100521.380000", "100522.380000", "100523.380000", "100524.380000", "100525.380000", "100526.380000", "100527.380000", "100528.380000", "100529.380000", "100530.380000", "100531.380000", "100532.380000", "100533.380000", "100534.380000", "100535.380000", "100536.380000", "100537.380000", "100538.380000", "100539.380000", "100540.380000", "100541.380000", "100542.380000", "100543.380000", "100544.380000", "100545.380000", "100546.380000", "100547.380000", "100548.380000", "100549.380000", "100550.380000", "100551.380000", "100552.380000", "100553.380000", "100554.380000", "100555.380000", "100556.380000", "100557.380000", "100558.380000", "100559.380000", "100600.380000", "100601.380000", "100602.380000", "100603.380000", "100604.380000", "100605.380000", "100606.380000", "100607.380000", "100608.380000", "100609.380000", "100610.380000", "100611.380000", "100612.380000", "100613.380000", "100614.380000", "100615.380000", "100616.380000", "100617.380000", "100618.380000", "100619.380000", "100620.380000", "100621.380000", "100622.380000", "100623.380000", "100624.380000", "100625.380000", "100626.380000", "100627.380000", "100628.380000", "100629.380000", "100630.380000", "100631.380000", "100632.380000", "100633.380000", "100634.380000", "100635.380000", "100636.380000", "100637.380000", "100638.380000", "100639.380000", "100640.380000", "100641.380000", "100642.380000", "100643.380000", "100644.380000", "100645.380000", "100646.380000", "100647.380000", "100648.380000", "100649.380000", "100650.380000", "100651.380000", "100652.380000", "100653.380000", "100654.380000", "100655.380000", "100656.380000", "100657.380000", "100658.380000", "100659.380000", "100700.380000", "100701.380000", "100702.380000", "100703.380000", "100704.380000", "100705.380000", "100706.380000", "100707.380000", "100708.380000", "100709.380000", "100710.380000", "100711.380000", "100712.380000", "100713.380000", "100714.380000", "100715.380000", "100716.380000", "100717.380000", "100718.380000", "100719.380000", "100720.380000", "100721.380000", "100722.380000", "100723.380000", "100724.380000", "100725.380000", "100726.380000", "100727.380000", "100728.380000", "100729.380000", "100730.380000", "100731.380000", "100732.380000", "100733.380000", "100734.380000", "100735.380000", "100736.380000", "100737.380000", "100738.380000", "100739.380000", "100740.380000", "100741.380000", "100742.380000", "100743.380000", "100744.380000", "100745.380000", "100746.380000", "100747.380000"],
      "ContentTime": ["100405.136000", "100405.140000", "100405.150000", "100405.153000", "100405.156000", "100405.159000", "100405.162000", "100405.165000", "100405.168000", "100405.171000", "100405.174000", "100405.178000", "100405.181000", "100405.184000", "100405.187000", "100405.190000", "100405.193000", "100405.196000", "100405.199000", "100405.202000", "100405.205000", "100405.216000", "100405.219000", "100405.222000", "100405.225000", "100405.228000", "100405.231000", "100405.234000", "100405.237000", "100425.095000", "100425.098000", "100425.101000", "100425.104000", "100425.107000", "100425.110000", "100425.113000", "100425.120000", "100425.123000", "100425.126000", "100425.129000", "100425.132000", "100425.135000", "100425.138000", "100425.141000", "100425.144000", "100425.147000", "100425.150000", "100425.153000", "100425.156000", "100425.159000", "100425.162000", "100425.165000", "100425.168000", "100425.171000", "100425.174000", "100425.177000", "100425.180000", "100425.183000", "100445.096000", "100445.099000", "100445.102000", "100445.105000", "100445.108000", "100445.111000", "100445.114000", "100445.117000", "100445.120000", "100445.123000", "100445.126000", "100445.129000", "100445.132000", "100445.135000", "100445.138000", "100445.141000", "100445.144000", "100445.147000", "100445.150000", "100445.153000", "100445.156000", "100445.160000", "100445.163000", "100445.166000", "100445.169000", "100445.172000", "100445.175000", "100445.178000", "100505.096000", "100505.099000", "100505.102000", "100505.105000", "100505.108000", "100505.111000", "100505.114000", "100505.117000", "100505.120000", "100505.123000", "100505.126000", "100505.129000", "100505.132000", "100505.135000", "100505.138000", "100505.142000", "100505.145000", "100505.148000", "100505.151000", "100505.154000", "100505.157000", "100505.160000", "100505.163000", "100505.166000", "100505.169000", "100505.185000", "100505.188000", "100505.191000", "100525.095000", "100525.098000", "100525.101000", "100525.104000", "100525.107000", "100525.113000", "100525.116000", "100525.120000", "100525.123000", "100525.126000", "100525.129000", "100525.132000", "100525.135000", "100525.138000", "100525.141000", "100525.144000", "100525.147000", "100525.150000", "100525.153000", "100525.156000", "100525.159000", "100525.162000", "100525.165000", "100525.168000", "100525.171000", "100525.174000", "100525.177000", "100525.180000", "100545.095000", "100545.098000", "100545.101000", "100545.104000", "100545.107000", "100545.110000", "100545.113000", "100545.116000", "100545.119000", "100545.122000", "100545.126000", "100545.129000", "100545.132000", "100545.135000", "100545.138000", "100545.141000", "100545.144000", "100545.147000", "100545.150000", "100545.153000", "100545.156000", "100545.159000", "100545.162000", "100545.165000", "100545.168000", "100545.171000", "100545.175000", "100545.178000", "100605.095000", "100605.098000", "100605.101000", "100605.104000", "100605.107000", "100605.110000", "100605.113000", "100605.116000", "100605.119000", "100605.122000", "100605.126000", "100605.129000", "100605.132000", "100605.135000", "100605.138000", "100605.141000", "100605.144000", "100605.147000", "100605.150000", "100605.153000", "100605.156000", "100605.159000", "100605.162000", "100605.165000", "100605.168000", "100605.171000", "100625.095000", "100625.098000", "100625.101000", "100625.104000", "100625.107000", "100625.110000", "100625.113000", "100625.117000", "100625.120000", "100625.134000", "100625.137000", "100625.140000", "100625.143000", "100625.146000", "100625.149000", "100625.152000", "100625.155000", "100625.158000", "100625.161000", "100625.164000", "100645.095000", "100645.098000", "100645.101000", "100645.104000", "100645.107000", "100645.110000", "100645.113000", "100645.116000", "100645.119000", "100645.122000", "100645.125000", "100645.129000", "100645.132000", "100645.135000", "100645.138000", "100645.141000", "100645.144000", "100645.147000", "100645.150000", "100645.153000", "100705.096000", "100705.099000", "100705.102000", "100705.105000", "100705.108000", "100705.111000", "100705.114000", "100705.117000", "100705.121000", "100705.124000", "100705.127000", "100705.130000", "100705.133000", "100705.136000", "100705.139000", "100705.142000", "100705.145000", "100705.148000", "100705.151000", "100705.154000", "100725.096000", "100725.099000", "100725.102000", "100725.105000", "100725.108000", "100725.111000", "100725.114000", "100725.117000", "100725.121000", "100725.124000", "100725.134000", "100725.137000", "100725.140000", "100725.143000", "100725.146000", "100725.149000", "100725.152000", "100725.155000", "100725.158000", "100725.161000", "100745.095000", "100745.098000", "100745.101000", "100745.104000", "100745.107000", "100745.110000", "100745.113000", "100745.116000", "100745.119000", "100745.123000", "100745.126000", "100745.129000", "100745.132000", "100745.135000", "100745.138000", "100745.141000", "100745.144000", "100745.147000", "100745.150000", "100745.153000", "100748.952000", "100748.955000", "100748.958000", "100748.961000"],
      "InstanceCreationTime": ["100405.136000", "100405.140000", "100405.150000", "100405.153000", "100405.156000", "100405.159000", "100405.162000", "100405.165000", "100405.168000", "100405.171000", "100405.174000", "100405.178000", "100405.181000", "100405.184000", "100405.187000", "100405.190000", "100405.193000", "100405.196000", "100405.199000", "100405.202000", "100405.205000", "100405.216000", "100405.219000", "100405.222000", "100405.225000", "100405.228000", "100405.231000", "100405.234000", "100405.237000", "100425.095000", "100425.098000", "100425.101000", "100425.104000", "100425.107000", "100425.110000", "100425.113000", "100425.120000", "100425.123000", "100425.126000", "100425.129000", "100425.132000", "100425.135000", "100425.138000", "100425.141000", "100425.144000", "100425.147000", "100425.150000", "100425.153000", "100425.156000", "100425.159000", "100425.162000", "100425.165000", "100425.168000", "100425.171000", "100425.174000", "100425.177000", "100425.180000", "100425.183000", "100445.096000", "100445.099000", "100445.102000", "100445.105000", "100445.108000", "100445.111000", "100445.114000", "100445.117000", "100445.120000", "100445.123000", "100445.126000", "100445.129000", "100445.132000", "100445.135000", "100445.138000", "100445.141000", "100445.144000", "100445.147000", "100445.150000", "100445.153000", "100445.156000", "100445.160000", "100445.163000", "100445.166000", "100445.169000", "100445.172000", "100445.175000", "100445.178000", "100505.096000", "100505.099000", "100505.102000", "100505.105000", "100505.108000", "100505.111000", "100505.114000", "100505.117000", "100505.120000", "100505.123000", "100505.126000", "100505.129000", "100505.132000", "100505.135000", "100505.138000", "100505.142000", "100505.145000", "100505.148000", "100505.151000", "100505.154000", "100505.157000", "100505.160000", "100505.163000", "100505.166000", "100505.169000", "100505.185000", "100505.188000", "100505.191000", "100525.095000", "100525.098000", "100525.101000", "100525.104000", "100525.107000", "100525.113000", "100525.116000", "100525.120000", "100525.123000", "100525.126000", "100525.129000", "100525.132000", "100525.135000", "100525.138000", "100525.141000", "100525.144000", "100525.147000", "100525.150000", "100525.153000", "100525.156000", "100525.159000", "100525.162000", "100525.165000", "100525.168000", "100525.171000", "100525.174000", "100525.177000", "100525.180000", "100545.095000", "100545.098000", "100545.101000", "100545.104000", "100545.107000", "100545.110000", "100545.113000", "100545.116000", "100545.119000", "100545.122000", "100545.126000", "100545.129000", "100545.132000", "100545.135000", "100545.138000", "100545.141000", "100545.144000", "100545.147000", "100545.150000", "100545.153000", "100545.156000", "100545.159000", "100545.162000", "100545.165000", "100545.168000", "100545.171000", "100545.175000", "100545.178000", "100605.095000", "100605.098000", "100605.101000", "100605.104000", "100605.107000", "100605.110000", "100605.113000", "100605.116000", "100605.119000", "100605.122000", "100605.126000", "100605.129000", "100605.132000", "100605.135000", "100605.138000", "100605.141000", "100605.144000", "100605.147000", "100605.150000", "100605.153000", "100605.156000", "100605.159000", "100605.162000", "100605.165000", "100605.168000", "100605.171000", "100625.095000", "100625.098000", "100625.101000", "100625.104000", "100625.107000", "100625.110000", "100625.113000", "100625.117000", "100625.120000", "100625.134000", "100625.137000", "100625.140000", "100625.143000", "100625.146000", "100625.149000", "100625.152000", "100625.155000", "100625.158000", "100625.161000", "100625.164000", "100645.095000", "100645.098000", "100645.101000", "100645.104000", "100645.107000", "100645.110000", "100645.113000", "100645.116000", "100645.119000", "100645.122000", "100645.125000", "100645.129000", "100645.132000", "100645.135000", "100645.138000", "100645.141000", "100645.144000", "100645.147000", "100645.150000", "100645.153000", "100705.096000", "100705.099000", "100705.102000", "100705.105000", "100705.108000", "100705.111000", "100705.114000", "100705.117000", "100705.121000", "100705.124000", "100705.127000", "100705.130000", "100705.133000", "100705.136000", "100705.139000", "100705.142000", "100705.145000", "100705.148000", "100705.151000", "100705.154000", "100725.096000", "100725.099000", "100725.102000", "100725.105000", "100725.108000", "100725.111000", "100725.114000", "100725.117000", "100725.121000", "100725.124000", "100725.134000", "100725.137000", "100725.140000", "100725.143000", "100725.146000", "100725.149000", "100725.152000", "100725.155000", "100725.158000", "100725.161000", "100745.095000", "100745.098000", "100745.101000", "100745.104000", "100745.107000", "100745.110000", "100745.113000", "100745.116000", "100745.119000", "100745.123000", "100745.126000", "100745.129000", "100745.132000", "100745.135000", "100745.138000", "100745.141000", "100745.144000", "100745.147000", "100745.150000", "100745.153000", "100748.952000", "100748.955000", "100748.958000", "100748.961000"],
      "InstanceNumber": [1, 2, 3, 4, 5, 6, 7, 8, 9, 10, 11, 12, 13, 14, 15, 16, 17, 18, 19, 20, 21, 22, 23, 24, 25, 26, 27, 28, 29, 30, 31, 32, 33, 34, 35, 36, 37, 38, 39, 40, 41, 42, 43, 44, 45, 46, 47, 48, 49, 50, 51, 52, 53, 54, 55, 56, 57, 58, 59, 60, 61, 62, 63, 64, 65, 66, 67, 68, 69, 70, 71, 72, 73, 74, 75, 76, 77, 78, 79, 80, 81, 82, 83, 84, 85, 86, 87, 88, 89, 90, 91, 92, 93, 94, 95, 96, 97, 98, 99, 100, 101, 102, 103, 104, 105, 106, 107, 108, 109, 110, 111, 112, 113, 114, 115, 116, 117, 118, 119, 120, 121, 122, 123, 124, 125, 126, 127, 128, 129, 130, 131, 132, 133, 134, 135, 136, 137, 138, 139, 140, 141, 142, 143, 144, 145, 146, 147, 148, 149, 150, 151, 152, 153, 154, 155, 156, 157, 158, 159, 160, 161, 162, 163, 164, 165, 166, 167, 168, 169, 170, 171, 172, 173, 174, 175, 176, 177, 178, 179, 180, 181, 182, 183, 184, 185, 186, 187, 188, 189, 190, 191, 192, 193, 194, 195, 196, 197, 198, 199, 200, 201, 202, 203, 204, 205, 206, 207, 208, 209, 210, 211, 212, 213, 214, 215, 216, 217, 218, 219, 220, 221, 222, 223, 224, 225, 226, 227, 228, 229, 230, 231, 232, 233, 234, 235, 236, 237, 238, 239, 240, 241, 242, 243, 244, 245, 246, 247, 248, 249, 250, 251, 252, 253, 254, 255, 256, 257, 258, 259, 260, 261, 262, 263, 264, 265, 266, 267, 268, 269, 270, 271, 272, 273, 274, 275, 276, 277, 278, 279, 280, 281, 282, 283, 284, 285, 286, 287, 288, 289, 290, 291, 292, 293, 294, 295, 296, 297, 298, 299, 300],
      "LargestImagePixelValue": [48144, 47574, 48380, 45965, 45845, 46416, 47039, 46571, 45863, 46734, 46385, 46505, 46457, 45737, 45376, 46908, 45079, 46461, 47770, 45564, 46433, 47005, 45428, 47093, 46057, 46754, 47713, 46200, 47328, 46897, 45991, 46731, 46767, 45444, 46962, 46476, 46317, 47210, 46337, 46437, 47871, 46523, 46304, 45476, 45542, 46824, 44994, 47109, 47259, 46240, 47199, 47736, 45959, 46567, 47739, 46649, 47078, 47692, 46516, 47586, 47248, 45201, 46031, 46698, 45264, 47202, 47308, 46996, 47801, 46971, 46884, 47773, 46089, 46385, 47421, 46834, 45810, 47167, 46800, 45466, 47215, 45941, 46142, 47356, 46377, 46642, 47292, 45202, 46595, 47880, 45657, 47329, 47404, 45625, 47382, 47005, 45658, 47744, 46284, 45119, 47477, 46436, 45712, 47754, 45500, 47258, 48375, 46893, 47454, 48140, 46079, 46500, 47564, 45818, 46125, 47673, 45278, 46190, 47948, 46242, 47493, 48086, 46470, 47824, 47383, 45876, 47397, 45708, 46385, 47116, 45792, 46794, 46898, 45041, 46588, 45271, 44754, 47006, 46166, 46960, 48584, 46667, 46769, 47898, 46162, 45591, 46927, 45919, 46119, 47020, 45583, 45293, 47370, 45822, 46444, 46403, 46368, 46922, 46295, 46742, 46236, 45595, 47648, 46225, 46485, 47044, 46167, 47597, 47766, 47103, 47721, 47133, 45951, 47392, 47670, 46491, 47878, 47145, 46615, 48053, 47155, 46104, 47533, 46654, 46183, 47529, 46345, 46657, 47816, 46212, 46377, 47374, 45898, 46323, 48073, 45675, 46434, 47651, 45688, 46944, 47649, 46209, 47238, 47421, 45679, 47671, 47252, 46274, 47480, 47500, 46556, 48004, 47443, 46146, 47111, 47659, 45300, 46456, 47257, 45523, 48097, 46769, 46957, 48477, 46730, 47063, 47735, 45970, 47667, 46889, 46147, 47846, 45986, 46691, 47513, 46060, 47463, 47151, 46333, 48581, 47992, 46831, 48065, 47120, 45874, 47753, 46460, 46282, 47942, 45802, 47509, 48224, 46944, 47638, 47470, 46049, 47319, 47463, 46074, 47724, 47572, 46626, 48561, 47815, 46907, 47858, 47896, 46996, 46855, 48401, 46339, 46915, 48254, 46241, 47049, 48924, 47297, 47720, 48881, 47536, 46917, 48108, 46832, 45644, 47197, 46966, 46460, 48040, 47061, 47176, 48384, 47561, 46933, 47896, 46827, 47015, 48193, 47064, 47751, 47848],
      "WindowCenter": [10549.0, 10523.0, 10521.0, 10502.0, 10503.0, 10510.0, 10509.0, 10505.0, 10495.0, 10504.0, 10500.0, 10498.0, 10498.0, 10495.0, 10496.0, 10515.0, 10505.0, 10513.0, 10520.0, 10502.0, 10507.0, 10512.0, 10504.0, 10519.0, 10516.0, 10521.0, 10530.0, 10515.0, 10516.0, 10511.0, 10499.0, 10502.0, 10503.0, 10495.0, 10515.0, 10517.0, 10519.0, 10528.0, 10520.0, 10514.0, 10520.0, 10505.0, 10498.0, 10493.0, 10490.0, 10509.0, 10499.0, 10517.0, 10522.0, 10513.0, 10511.0, 10520.0, 10508.0, 10512.0, 10520.0, 10508.0, 10505.0, 10514.0, 10501.0, 10506.0, 10507.0, 10491.0, 10500.0, 10510.0, 10503.0, 10521.0, 10518.0, 10522.0, 10522.0, 10520.0, 10518.0, 10523.0, 10505.0, 10507.0, 10509.0, 10500.0, 10495.0, 10504.0, 10505.0, 10497.0, 10510.0, 10501.0, 10501.0, 10515.0, 10505.0, 10505.0, 10508.0, 10490.0, 10498.0, 10513.0, 10503.0, 10516.0, 10516.0, 10503.0, 10510.0, 10506.0, 10497.0, 10513.0, 10506.0, 10498.0, 10510.0, 10506.0, 10502.0, 10521.0, 10511.0, 10525.0, 10529.0, 10514.0, 10511.0, 10512.0, 10488.0, 10487.0, 10500.0, 10487.0, 10493.0, 10508.0, 10492.0, 10506.0, 10516.0, 10508.0, 10513.0, 10522.0, 10516.0, 10524.0, 10519.0, 10500.0, 10512.0, 10498.0, 10502.0, 10511.0, 10497.0, 10506.0, 10505.0, 10486.0, 10494.0, 10487.0, 10483.0, 10512.0, 10513.0, 10523.0, 10531.0, 10517.0, 10510.0, 10515.0, 10492.0, 10488.0, 10500.0, 10487.0, 10490.0, 10499.0, 10485.0, 10487.0, 10500.0, 10493.0, 10507.0, 10503.0, 10502.0, 10507.0, 10495.0, 10494.0, 10496.0, 10486.0, 10503.0, 10497.0, 10501.0, 10514.0, 10518.0, 10526.0, 10530.0, 10521.0, 10519.0, 10516.0, 10511.0, 10520.0, 10524.0, 10516.0, 10529.0, 10520.0, 10514.0, 10519.0, 10512.0, 10503.0, 10511.0, 10503.0, 10504.0, 10518.0, 10509.0, 10510.0, 10514.0, 10504.0, 10504.0, 10512.0, 10499.0, 10504.0, 10517.0, 10500.0, 10505.0, 10519.0, 10506.0, 10513.0, 10518.0, 10504.0, 10506.0, 10506.0, 10498.0, 10510.0, 10512.0, 10511.0, 10514.0, 10520.0, 10512.0, 10519.0, 10514.0, 10500.0, 10500.0, 10499.0, 10481.0, 10489.0, 10498.0, 10488.0, 10505.0, 10503.0, 10502.0, 10510.0, 10498.0, 10501.0, 10512.0, 10495.0, 10506.0, 10503.0, 10494.0, 10505.0, 10492.0, 10494.0, 10499.0, 10497.0, 10506.0, 10509.0, 10511.0, 10517.0, 10505.0, 10490.0, 10490.0, 10485.0, 10471.0, 10486.0, 10488.0, 10490.0, 10504.0, 10487.0, 10496.0, 10504.0, 10493.0, 10492.0, 10491.0, 10484.0, 10499.0, 10506.0, 10497.0, 10507.0, 10508.0, 10504.0, 10517.0, 10508.0, 10503.0, 10511.0, 10506.0, 10501.0, 10498.0, 10515.0, 10498.0, 10503.0, 10517.0, 10511.0, 10521.0, 10535.0, 10529.0, 10529.0, 10527.0, 10516.0, 10510.0, 10508.0, 10503.0, 10495.0, 10503.0, 10509.0, 10506.0, 10519.0, 10510.0, 10504.0, 10507.0, 10502.0, 10496.0, 10506.0, 10504.0, 10510.0, 10523.0, 10509.0, 10507.0, 10512.0],
