{
  "AcquisitionMatrixPE": 104,
  "AcquisitionNumber": 1,
  "AcquisitionTime": "10:52:5.817500",
  "BandwidthPerPixelPhaseEncode": 16.297,
  "BaseResolution": 104,
  "BodyPartExamined": "BRAIN",
  "ConsistencyInfo": "N4_VE11C_LATEST_20160120",
  "ConversionSoftware": "dcm2niix",
  "ConversionSoftwareVersion": "v1.0.20210317",
  "DerivedVendorReportedEchoSpacing": 0.000590009,
  "DeviceSerialNumber": "166018",
  "DwellTime": 2.1e-06,
  "EchoTime": 0.0376,
  "EchoTrainLength": 104,
  "EffectiveEchoSpacing": 0.000590009,
  "FlipAngle": 68,
  "ImageComments": "Unaliased MB6/PE3/LB",
  "ImageOrientationPatientDICOM": [0.995386, 0.0949062, -0.0141483, -0.0958447, 0.976307, -0.194008],
  "ImageType": [
    "ORIGINAL",
    "PRIMARY",
    "M",
    "MB",
    "ND",
    "MOSAIC"
],
  "ImagingFrequency": 123.197,
  "InPlanePhaseEncodingDirectionDICOM": "COL",
  "InstitutionAddress": "Washington Place 6,NYC,NYC,US,10003",
  "InstitutionName": "NYU - CBI",
  "InstitutionalDepartmentName": "Department",
  "MRAcquisitionType": "2D",
  "MagneticFieldStrength": 3,
  "Manufacturer": "Siemens",
  "ManufacturersModelName": "Prisma",
  "Modality": "MR",
  "MultibandAccelerationFactor": 6,
  "PartialFourier": 1,
  "PatientPosition": "HFS",
  "PercentPhaseFOV": 100,
  "PercentSampling": 100,
  "PhaseEncodingDirection": "j",
  "PhaseEncodingSteps": 104,
  "PhaseResolution": 1,
  "PixelBandwidth": 2290,
  "ProcedureStepDescription": "Investigators^Winawer",
  "ProtocolName": "cmrr_mbepi_s6_2mm_66sl_PA_task-bar2",
  "PulseSequenceDetails": "%CustomerSeq%\\cmrr_mbep2d_bold",
  "ReceiveCoilActiveElements": "HC1-7",
  "ReceiveCoilName": "HeadNeck_64",
  "ReconMatrixPE": 104,
  "RepetitionTime": 1,
  "SAR": 0.0707998,
  "ScanOptions": "FS",
  "ScanningSequence": "EP",
  "SequenceName": "epfid2d1_104",
  "SequenceVariant": "SK\\SS",
  "SeriesDescription": "cmrr_mbepi_s6_2mm_66sl_PA_task-bar2",
  "SeriesNumber": 12,
  "ShimSetting": [304, -12656, -8494, 138, 34, -48, 11, 20],
  "SliceThickness": 2,
  "SliceTiming": [0, 0.535, 0.09, 0.625, 0.18, 0.715, 0.2675, 0.8025, 0.3575, 0.8925, 0.4475, 0, 0.535, 0.09, 0.625, 0.18, 0.715, 0.2675, 0.8025, 0.3575, 0.8925, 0.4475, 0, 0.535, 0.09, 0.625, 0.18, 0.715, 0.2675, 0.8025, 0.3575, 0.8925, 0.4475, 0, 0.535, 0.09, 0.625, 0.18, 0.715, 0.2675, 0.8025, 0.3575, 0.8925, 0.4475, 0, 0.535, 0.09, 0.625, 0.18, 0.715, 0.2675, 0.8025, 0.3575, 0.8925, 0.4475, 0, 0.535, 0.09, 0.625, 0.18, 0.715, 0.2675, 0.8025, 0.3575, 0.8925, 0.4475],
  "SoftwareVersions": "syngo MR E11",
  "SpacingBetweenSlices": 2,
  "StationName": "AWP166018",
  "TaskName": "bar2",
  "TotalReadoutTime": 0.060771,
  "TxRefAmp": 216.547,
  "VendorReportedEchoSpacing": 0.00059,
  "WipMemBlock": "5676c984-72e2-41c6-bb49-c1a41ca6d77c||Sequence: R016 ve11c/master r/8780670; Nov 27 2017 15:05:12 by eja",
  "dcmmeta_affine": [
    [-1.9907712936401367, -0.19168949127197266, 0.00919897761195898, 117.69992065429688],
    [-0.18981249630451202, 1.9526134729385376, -0.38893699645996094, -62.00932312011719],
    [-0.028296541422605515, 0.3880153298377991, 1.9617959260940552, -53.57741165161133],
    [0.0, 0.0, 0.0, 1.0]
],
  "dcmmeta_reorient_transform": [
    [0.0, -1.0, 0.0, 103.0],
    [1.0, 0.0, 0.0, 0.0],
    [0.0, 0.0, 1.0, 0.0],
    [0.0, 0.0, 0.0, 1.0]
],
  "dcmmeta_shape": [104, 104, 66, 300],
  "dcmmeta_slice_dim": 2,
  "dcmmeta_version": 0.6,
  "global": {
    "const": {
      "AccessionNumber": "Lf06gi6L",
      "AcquisitionMatrix": [104, 0, 0, 104],
      "AngioFlag": "N",
      "BitsAllocated": 16,
      "BitsStored": 16,
      "BodyPartExamined": "BRAIN",
      "Columns": 936,
      "EchoNumbers": 1,
      "EchoTime": 37.6,
      "EchoTrainLength": 104,
      "FlipAngle": 68.0,
      "HighBit": 15,
      "ImageOrientationPatient": [0.99538566889889, 0.0949062515469, -0.0141482708495, -0.0958447434891, 0.97630671908341, -0.1940076684518],
      "ImagePositionPatient": [-846.37395169896, -1030.359051066, 159.57391127336],
      "ImageType": [
        "ORIGINAL",
        "PRIMARY",
        "M",
        "MB",
        "ND",
        "MOSAIC"
],
      "ImagedNucleus": "1H",
      "ImagingFrequency": 123.196801,
      "InPlanePhaseEncodingDirection": "COL",
      "MRAcquisitionType": "2D",
      "MagneticFieldStrength": 3.0,
      "Manufacturer": "SIEMENS",
      "ManufacturerModelName": "Prisma",
      "Modality": "MR",
      "NumberOfAverages": 1.0,
      "NumberOfPhaseEncodingSteps": 104,
      "PercentPhaseFieldOfView": 100.0,
      "PercentSampling": 100.0,
      "PerformedProcedureStepStartTime": "103135.366000",
      "PhotometricInterpretation": "MONOCHROME2",
      "PixelBandwidth": 2290.0,
      "PixelRepresentation": 0,
      "PixelSpacing": [2.0, 2.0],
      "ProtocolName": "cmrr_mbepi_s6_2mm_66sl_PA_task-bar2",
      "RepetitionTime": 1000.0,
      "Rows": 936,
      "SAR": 0.07079980579539,
      "SamplesPerPixel": 1,
      "ScanOptions": "FS",
      "ScanningSequence": "EP",
      "SequenceName": "epfid2d1_104",
      "SequenceVariant": [
        "SK",
        "SS"
],
      "SeriesDescription": "cmrr_mbepi_s6_2mm_66sl_PA_task-bar2",
      "SeriesNumber": 12,
      "SeriesTime": "105321.051000",
      "SliceLocation": -39.953754088975,
      "SliceThickness": 2.0,
      "SmallestImagePixelValue": 0,
      "SoftwareVersions": "syngo MR E11",
      "SpacingBetweenSlices": 2.0000000125215,
      "SpecificCharacterSet": "ISO_IR 100",
      "StudyID": "1",
      "StudyTime": "103135.295000",
      "TransmitCoilName": "Body",
      "VariableFlipAngleFlag": "N",
      "WindowCenterWidthExplanation": "Algo1",
      "dBdt": 0.0},
    "slices": {}
  },
  "time": {
    "samples": {
      "AcquisitionNumber": [1, 2, 3, 4, 5, 6, 7, 8, 9, 10, 11, 12, 13, 14, 15, 16, 17, 18, 19, 20, 21, 22, 23, 24, 25, 26, 27, 28, 29, 30, 31, 32, 33, 34, 35, 36, 37, 38, 39, 40, 41, 42, 43, 44, 45, 46, 47, 48, 49, 50, 51, 52, 53, 54, 55, 56, 57, 58, 59, 60, 61, 62, 63, 64, 65, 66, 67, 68, 69, 70, 71, 72, 73, 74, 75, 76, 77, 78, 79, 80, 81, 82, 83, 84, 85, 86, 87, 88, 89, 90, 91, 92, 93, 94, 95, 96, 97, 98, 99, 100, 101, 102, 103, 104, 105, 106, 107, 108, 109, 110, 111, 112, 113, 114, 115, 116, 117, 118, 119, 120, 121, 122, 123, 124, 125, 126, 127, 128, 129, 130, 131, 132, 133, 134, 135, 136, 137, 138, 139, 140, 141, 142, 143, 144, 145, 146, 147, 148, 149, 150, 151, 152, 153, 154, 155, 156, 157, 158, 159, 160, 161, 162, 163, 164, 165, 166, 167, 168, 169, 170, 171, 172, 173, 174, 175, 176, 177, 178, 179, 180, 181, 182, 183, 184, 185, 186, 187, 188, 189, 190, 191, 192, 193, 194, 195, 196, 197, 198, 199, 200, 201, 202, 203, 204, 205, 206, 207, 208, 209, 210, 211, 212, 213, 214, 215, 216, 217, 218, 219, 220, 221, 222, 223, 224, 225, 226, 227, 228, 229, 230, 231, 232, 233, 234, 235, 236, 237, 238, 239, 240, 241, 242, 243, 244, 245, 246, 247, 248, 249, 250, 251, 252, 253, 254, 255, 256, 257, 258, 259, 260, 261, 262, 263, 264, 265, 266, 267, 268, 269, 270, 271, 272, 273, 274, 275, 276, 277, 278, 279, 280, 281, 282, 283, 284, 285, 286, 287, 288, 289, 290, 291, 292, 293, 294, 295, 296, 297, 298, 299, 300],
      "AcquisitionTime": ["105205.817500", "105206.817500", "105207.817500", "105208.817500", "105209.817500", "105210.817500", "105211.817500", "105212.817500", "105213.817500", "105214.817500", "105215.817500", "105216.817500", "105217.817500", "105218.817500", "105219.817500", "105220.817500", "105221.817500", "105222.817500", "105223.817500", "105224.817500", "105225.817500", "105226.817500", "105227.817500", "105228.817500", "105229.817500", "105230.817500", "105231.817500", "105232.817500", "105233.817500", "105234.817500", "105235.817500", "105236.817500", "105237.817500", "105238.817500", "105239.817500", "105240.817500", "105241.817500", "105242.817500", "105243.817500", "105244.817500", "105245.817500", "105246.817500", "105247.817500", "105248.817500", "105249.817500", "105250.817500", "105251.817500", "105252.817500", "105253.817500", "105254.817500", "105255.817500", "105256.817500", "105257.817500", "105258.817500", "105259.817500", "105300.817500", "105301.817500", "105302.817500", "105303.817500", "105304.817500", "105305.817500", "105306.817500", "105307.817500", "105308.817500", "105309.817500", "105310.817500", "105311.817500", "105312.817500", "105313.817500", "105314.817500", "105315.817500", "105316.817500", "105317.817500", "105318.817500", "105319.817500", "105320.817500", "105321.817500", "105322.817500", "105323.817500", "105324.817500", "105325.817500", "105326.817500", "105327.817500", "105328.817500", "105329.817500", "105330.817500", "105331.817500", "105332.817500", "105333.817500", "105334.817500", "105335.817500", "105336.817500", "105337.817500", "105338.817500", "105339.817500", "105340.817500", "105341.817500", "105342.817500", "105343.817500", "105344.817500", "105345.817500", "105346.817500", "105347.817500", "105348.817500", "105349.817500", "105350.817500", "105351.817500", "105352.817500", "105353.817500", "105354.817500", "105355.817500", "105356.817500", "105357.817500", "105358.817500", "105359.817500", "105400.817500", "105401.817500", "105402.817500", "105403.817500", "105404.817500", "105405.817500", "105406.817500", "105407.817500", "105408.817500", "105409.817500", "105410.817500", "105411.817500", "105412.817500", "105413.817500", "105414.817500", "105415.817500", "105416.817500", "105417.817500", "105418.817500", "105419.817500", "105420.817500", "105421.817500", "105422.817500", "105423.817500", "105424.817500", "105425.817500", "105426.817500", "105427.817500", "105428.817500", "105429.817500", "105430.817500", "105431.817500", "105432.817500", "105433.817500", "105434.817500", "105435.817500", "105436.817500", "105437.817500", "105438.817500", "105439.817500", "105440.817500", "105441.817500", "105442.817500", "105443.817500", "105444.817500", "105445.817500", "105446.817500", "105447.817500", "105448.817500", "105449.817500", "105450.817500", "105451.817500", "105452.817500", "105453.817500", "105454.817500", "105455.817500", "105456.817500", "105457.817500", "105458.817500", "105459.817500", "105500.817500", "105501.817500", "105502.817500", "105503.817500", "105504.817500", "105505.817500", "105506.817500", "105507.817500", "105508.817500", "105509.817500", "105510.817500", "105511.817500", "105512.817500", "105513.817500", "105514.817500", "105515.817500", "105516.817500", "105517.817500", "105518.817500", "105519.817500", "105520.817500", "105521.817500", "105522.817500", "105523.817500", "105524.817500", "105525.817500", "105526.817500", "105527.817500", "105528.817500", "105529.817500", "105530.817500", "105531.817500", "105532.817500", "105533.817500", "105534.817500", "105535.817500", "105536.817500", "105537.817500", "105538.817500", "105539.817500", "105540.817500", "105541.817500", "105542.817500", "105543.817500", "105544.817500", "105545.817500", "105546.817500", "105547.817500", "105548.817500", "105549.817500", "105550.817500", "105551.817500", "105552.817500", "105553.817500", "105554.817500", "105555.817500", "105556.817500", "105557.817500", "105558.817500", "105559.817500", "105600.817500", "105601.817500", "105602.817500", "105603.817500", "105604.817500", "105605.817500", "105606.817500", "105607.817500", "105608.817500", "105609.817500", "105610.817500", "105611.817500", "105612.817500", "105613.817500", "105614.817500", "105615.817500", "105616.817500", "105617.817500", "105618.817500", "105619.817500", "105620.817500", "105621.817500", "105622.817500", "105623.817500", "105624.817500", "105625.817500", "105626.817500", "105627.817500", "105628.817500", "105629.817500", "105630.817500", "105631.817500", "105632.817500", "105633.817500", "105634.817500", "105635.817500", "105636.817500", "105637.817500", "105638.817500", "105639.817500", "105640.817500", "105641.817500", "105642.817500", "105643.817500", "105644.817500", "105645.817500", "105646.817500", "105647.817500", "105648.817500", "105649.817500", "105650.817500", "105651.817500", "105652.817500", "105653.817500", "105654.817500", "105655.817500", "105656.817500", "105657.817500", "105658.817500", "105659.817500", "105700.817500", "105701.817500", "105702.817500", "105703.817500", "105704.817500"],
      "ContentTime": ["105321.054000", "105321.057000", "105321.060000", "105321.063000", "105321.067000", "105321.070000", "105321.075000", "105321.078000", "105321.086000", "105321.089000", "105321.092000", "105321.095000", "105321.098000", "105321.101000", "105321.104000", "105321.108000", "105321.111000", "105321.114000", "105321.117000", "105321.120000", "105321.123000", "105321.126000", "105321.129000", "105321.132000", "105321.135000", "105321.138000", "105321.142000", "105321.145000", "105321.148000", "105321.151000", "105321.154000", "105321.157000", "105321.171000", "105321.174000", "105321.177000", "105321.190000", "105341.009000", "105341.012000", "105341.016000", "105341.019000", "105341.022000", "105341.025000", "105341.028000", "105341.031000", "105341.034000", "105341.037000", "105341.049000", "105341.052000", "105341.055000", "105341.058000", "105341.061000", "105341.064000", "105341.067000", "105341.070000", "105341.073000", "105341.076000", "105341.084000", "105341.087000", "105341.090000", "105341.093000", "105341.096000", "105341.100000", "105341.103000", "105341.106000", "105401.009000", "105401.012000", "105401.015000", "105401.019000", "105401.022000", "105401.025000", "105401.028000", "105401.031000", "105401.034000", "105401.037000", "105401.040000", "105401.044000", "105401.047000", "105401.050000", "105401.053000", "105401.056000", "105401.059000", "105401.062000", "105401.065000", "105401.068000", "105401.071000", "105401.074000", "105401.077000", "105401.081000", "105401.093000", "105401.096000", "105401.099000", "105401.102000", "105401.105000", "105421.008000", "105421.011000", "105421.015000", "105421.018000", "105421.021000", "105421.024000", "105421.027000", "105421.030000", "105421.033000", "105421.036000", "105421.039000", "105421.042000", "105421.045000", "105421.048000", "105421.052000", "105421.055000", "105421.058000", "105421.061000", "105421.064000", "105421.067000", "105421.070000", "105421.073000", "105421.076000", "105421.079000", "105421.082000", "105421.086000", "105421.089000", "105421.092000", "105441.008000", "105441.011000", "105441.015000", "105441.018000", "105441.021000", "105441.024000", "105441.027000", "105441.030000", "105441.033000", "105441.036000", "105441.039000", "105441.042000", "105441.045000", "105441.048000", "105441.052000", "105441.055000", "105441.058000", "105441.061000", "105441.064000", "105441.067000", "105441.070000", "105441.073000", "105441.076000", "105441.079000", "105441.083000", "105441.086000", "105441.089000", "105441.092000", "105501.008000", "105501.011000", "105501.014000", "105501.017000", "105501.021000", "105501.024000", "105501.027000", "105501.030000", "105501.033000", "105501.036000", "105501.039000", "105501.043000", "105501.046000", "105501.049000", "105501.052000", "105501.055000", "105501.058000", "105501.062000", "105501.065000", "105501.068000", "105501.071000", "105501.074000", "105501.077000", "105501.080000", "105501.084000", "105521.008000", "105521.011000", "105521.014000", "105521.018000", "105521.021000", "105521.024000", "105521.027000", "105521.030000", "105521.033000", "105521.036000", "105521.039000", "105521.043000", "105521.046000", "105521.049000", "105521.052000", "105521.055000", "105521.058000", "105521.061000", "105521.064000", "105521.068000", "105541.008000", "105541.011000", "105541.014000", "105541.018000", "105541.021000", "105541.024000", "105541.027000", "105541.030000", "105541.033000", "105541.036000", "105541.039000", "105541.043000", "105541.046000", "105541.049000", "105541.052000", "105541.061000", "105541.064000", "105541.067000", "105541.070000", "105541.073000", "105601.009000", "105601.012000", "105601.015000", "105601.029000", "105601.033000", "105601.036000", "105601.039000", "105601.042000", "105601.045000", "105601.048000", "105601.051000", "105601.054000", "105601.057000", "105601.062000", "105601.065000", "105601.068000", "105601.071000", "105601.074000", "105601.077000", "105601.080000", "105621.009000", "105621.012000", "105621.015000", "105621.019000", "105621.022000", "105621.025000", "105621.028000", "105621.031000", "105621.034000", "105621.038000", "105621.041000", "105621.044000", "105621.047000", "105621.050000", "105621.053000", "105621.056000", "105621.059000", "105621.062000", "105621.066000", "105621.069000", "105641.008000", "105641.011000", "105641.014000", "105641.018000", "105641.021000", "105641.024000", "105641.027000", "105641.030000", "105641.033000", "105641.036000", "105641.039000", "105641.043000", "105641.046000", "105641.049000", "105641.052000", "105641.055000", "105641.058000", "105641.061000", "105641.064000", "105641.068000", "105701.008000", "105701.011000", "105701.014000", "105701.018000", "105701.021000", "105701.024000", "105701.027000", "105701.030000", "105701.033000", "105701.036000", "105701.039000", "105701.043000", "105701.046000", "105701.049000", "105701.052000", "105701.055000", "105701.058000", "105701.061000", "105701.065000", "105701.068000", "105706.640000", "105706.644000", "105706.647000", "105706.655000", "105706.658000", "105706.661000"],
      "InstanceCreationTime": ["105321.054000", "105321.057000", "105321.060000", "105321.063000", "105321.067000", "105321.070000", "105321.075000", "105321.078000", "105321.086000", "105321.089000", "105321.092000", "105321.095000", "105321.098000", "105321.101000", "105321.104000", "105321.108000", "105321.111000", "105321.114000", "105321.117000", "105321.120000", "105321.123000", "105321.126000", "105321.129000", "105321.132000", "105321.135000", "105321.138000", "105321.142000", "105321.145000", "105321.148000", "105321.151000", "105321.154000", "105321.157000", "105321.171000", "105321.174000", "105321.177000", "105321.190000", "105341.009000", "105341.012000", "105341.016000", "105341.019000", "105341.022000", "105341.025000", "105341.028000", "105341.031000", "105341.034000", "105341.037000", "105341.049000", "105341.052000", "105341.055000", "105341.058000", "105341.061000", "105341.064000", "105341.067000", "105341.070000", "105341.073000", "105341.076000", "105341.084000", "105341.087000", "105341.090000", "105341.093000", "105341.096000", "105341.100000", "105341.103000", "105341.106000", "105401.009000", "105401.012000", "105401.015000", "105401.019000", "105401.022000", "105401.025000", "105401.028000", "105401.031000", "105401.034000", "105401.037000", "105401.040000", "105401.044000", "105401.047000", "105401.050000", "105401.053000", "105401.056000", "105401.059000", "105401.062000", "105401.065000", "105401.068000", "105401.071000", "105401.074000", "105401.077000", "105401.081000", "105401.093000", "105401.096000", "105401.099000", "105401.102000", "105401.105000", "105421.008000", "105421.011000", "105421.015000", "105421.018000", "105421.021000", "105421.024000", "105421.027000", "105421.030000", "105421.033000", "105421.036000", "105421.039000", "105421.042000", "105421.045000", "105421.048000", "105421.052000", "105421.055000", "105421.058000", "105421.061000", "105421.064000", "105421.067000", "105421.070000", "105421.073000", "105421.076000", "105421.079000", "105421.082000", "105421.086000", "105421.089000", "105421.092000", "105441.008000", "105441.011000", "105441.015000", "105441.018000", "105441.021000", "105441.024000", "105441.027000", "105441.030000", "105441.033000", "105441.036000", "105441.039000", "105441.042000", "105441.045000", "105441.048000", "105441.052000", "105441.055000", "105441.058000", "105441.061000", "105441.064000", "105441.067000", "105441.070000", "105441.073000", "105441.076000", "105441.079000", "105441.083000", "105441.086000", "105441.089000", "105441.092000", "105501.008000", "105501.011000", "105501.014000", "105501.017000", "105501.021000", "105501.024000", "105501.027000", "105501.030000", "105501.033000", "105501.036000", "105501.039000", "105501.043000", "105501.046000", "105501.049000", "105501.052000", "105501.055000", "105501.058000", "105501.062000", "105501.065000", "105501.068000", "105501.071000", "105501.074000", "105501.077000", "105501.080000", "105501.084000", "105521.008000", "105521.011000", "105521.014000", "105521.018000", "105521.021000", "105521.024000", "105521.027000", "105521.030000", "105521.033000", "105521.036000", "105521.039000", "105521.043000", "105521.046000", "105521.049000", "105521.052000", "105521.055000", "105521.058000", "105521.061000", "105521.064000", "105521.068000", "105541.008000", "105541.011000", "105541.014000", "105541.018000", "105541.021000", "105541.024000", "105541.027000", "105541.030000", "105541.033000", "105541.036000", "105541.039000", "105541.043000", "105541.046000", "105541.049000", "105541.052000", "105541.061000", "105541.064000", "105541.067000", "105541.070000", "105541.073000", "105601.009000", "105601.012000", "105601.015000", "105601.029000", "105601.033000", "105601.036000", "105601.039000", "105601.042000", "105601.045000", "105601.048000", "105601.051000", "105601.054000", "105601.057000", "105601.062000", "105601.065000", "105601.068000", "105601.071000", "105601.074000", "105601.077000", "105601.080000", "105621.009000", "105621.012000", "105621.015000", "105621.019000", "105621.022000", "105621.025000", "105621.028000", "105621.031000", "105621.034000", "105621.038000", "105621.041000", "105621.044000", "105621.047000", "105621.050000", "105621.053000", "105621.056000", "105621.059000", "105621.062000", "105621.066000", "105621.069000", "105641.008000", "105641.011000", "105641.014000", "105641.018000", "105641.021000", "105641.024000", "105641.027000", "105641.030000", "105641.033000", "105641.036000", "105641.039000", "105641.043000", "105641.046000", "105641.049000", "105641.052000", "105641.055000", "105641.058000", "105641.061000", "105641.064000", "105641.068000", "105701.008000", "105701.011000", "105701.014000", "105701.018000", "105701.021000", "105701.024000", "105701.027000", "105701.030000", "105701.033000", "105701.036000", "105701.039000", "105701.043000", "105701.046000", "105701.049000", "105701.052000", "105701.055000", "105701.058000", "105701.061000", "105701.065000", "105701.068000", "105706.640000", "105706.644000", "105706.647000", "105706.655000", "105706.658000", "105706.661000"],
      "InstanceNumber": [1, 2, 3, 4, 5, 6, 7, 8, 9, 10, 11, 12, 13, 14, 15, 16, 17, 18, 19, 20, 21, 22, 23, 24, 25, 26, 27, 28, 29, 30, 31, 32, 33, 34, 35, 36, 37, 38, 39, 40, 41, 42, 43, 44, 45, 46, 47, 48, 49, 50, 51, 52, 53, 54, 55, 56, 57, 58, 59, 60, 61, 62, 63, 64, 65, 66, 67, 68, 69, 70, 71, 72, 73, 74, 75, 76, 77, 78, 79, 80, 81, 82, 83, 84, 85, 86, 87, 88, 89, 90, 91, 92, 93, 94, 95, 96, 97, 98, 99, 100, 101, 102, 103, 104, 105, 106, 107, 108, 109, 110, 111, 112, 113, 114, 115, 116, 117, 118, 119, 120, 121, 122, 123, 124, 125, 126, 127, 128, 129, 130, 131, 132, 133, 134, 135, 136, 137, 138, 139, 140, 141, 142, 143, 144, 145, 146, 147, 148, 149, 150, 151, 152, 153, 154, 155, 156, 157, 158, 159, 160, 161, 162, 163, 164, 165, 166, 167, 168, 169, 170, 171, 172, 173, 174, 175, 176, 177, 178, 179, 180, 181, 182, 183, 184, 185, 186, 187, 188, 189, 190, 191, 192, 193, 194, 195, 196, 197, 198, 199, 200, 201, 202, 203, 204, 205, 206, 207, 208, 209, 210, 211, 212, 213, 214, 215, 216, 217, 218, 219, 220, 221, 222, 223, 224, 225, 226, 227, 228, 229, 230, 231, 232, 233, 234, 235, 236, 237, 238, 239, 240, 241, 242, 243, 244, 245, 246, 247, 248, 249, 250, 251, 252, 253, 254, 255, 256, 257, 258, 259, 260, 261, 262, 263, 264, 265, 266, 267, 268, 269, 270, 271, 272, 273, 274, 275, 276, 277, 278, 279, 280, 281, 282, 283, 284, 285, 286, 287, 288, 289, 290, 291, 292, 293, 294, 295, 296, 297, 298, 299, 300],
      "LargestImagePixelValue": [28916, 28679, 27960, 27602, 27843, 27507, 27429, 29864, 27322, 27504, 27136, 26932, 27140, 28774, 27180, 27223, 28299, 27232, 27563, 28938, 27425, 28619, 27312, 27225, 27286, 27158, 26564, 26914, 26777, 28165, 26956, 27148, 28180, 27442, 26728, 28544, 27978, 26956, 29159, 27749, 27197, 27252, 26782, 27976, 26720, 26890, 26958, 26862, 29458, 27819, 26586, 27199, 26568, 26727, 27218, 27154, 26679, 26893, 27029, 28117, 27264, 26784, 28598, 26900, 26634, 28446, 26612, 26940, 27166, 26454, 27857, 26439, 26735, 26355, 26355, 26727, 26601, 26569, 26798, 27092, 27252, 26549, 26975, 27646, 26638, 28711, 26769, 26744, 28183, 26708, 26852, 27883, 27031, 26442, 28186, 27512, 26753, 26620, 28044, 26723, 26560, 28222, 27677, 26180, 26717, 28970, 26789, 26703, 28175, 26670, 26541, 26595, 26556, 26849, 26621, 28359, 27063, 26673, 28246, 27201, 26663, 28553, 28272, 26767, 26546, 28685, 27542, 28815, 28629, 28325, 28998, 27917, 28562, 26900, 26769, 28784, 26914, 26810, 29310, 27001, 26749, 29624, 27688, 26718, 27840, 27178, 26812, 27056, 28510, 27050, 27011, 26564, 27344, 28669, 28020, 26994, 28091, 27655, 28452, 29575, 28846, 29718, 28723, 29873, 28289, 27924, 27502, 27226, 27306, 27867, 28143, 27725, 29475, 28906, 31040, 28820, 27926, 28245, 27445, 28033, 27558, 27438, 28120, 27907, 30039, 27668, 28114, 29334, 27131, 27597, 27510, 27498, 27516, 27438, 29884, 27842, 27529, 29311, 28114, 27622, 28394, 27965, 28935, 28500, 27875, 29424, 27857, 28440, 28568, 27755, 28054, 27570, 28686, 27687, 27615, 28429, 27839, 29546, 28853, 30905, 27386, 28983, 28373, 28807, 28048, 28046, 30458, 27900, 28401, 27763, 28978, 28563, 28170, 28015, 28215, 28727, 27903, 28291, 28088, 28259, 28961, 28300, 29958, 28896, 27930, 28897, 28596, 28562, 28037, 28931, 28658, 28341, 28826, 28663, 28353, 28631, 28562, 27781, 28719, 28341, 27797, 29838, 28888, 27994, 27999, 29045, 28212, 28310, 28240, 28080, 28392, 27668, 29090, 28374, 27858, 28065, 28348, 28599, 28077, 28369, 28084, 27730, 28386, 28230, 27699, 28480, 32119, 28188, 28171, 28339, 28217, 28441, 28660, 28241, 29138, 28665, 28028, 28515, 28690, 28536],
      "WindowCenter": [9099.0, 9079.0, 9067.0, 9062.0, 9067.0, 9072.0, 9079.0, 9115.0, 9076.0, 9081.0, 9083.0, 9069.0, 9065.0, 9088.0, 9064.0, 9063.0, 9077.0, 9063.0, 9062.0, 9086.0, 9062.0, 9087.0, 9065.0, 9056.0, 9064.0, 9067.0, 9044.0, 9051.0, 9050.0, 9067.0, 9049.0, 9047.0, 9068.0, 9056.0, 9049.0, 9088.0, 9077.0, 9058.0, 9103.0, 9087.0, 9073.0, 9074.0, 9060.0, 9061.0, 9040.0, 9041.0, 9046.0, 9037.0, 9080.0, 9050.0, 9038.0, 9053.0, 9043.0, 9054.0, 9047.0, 9063.0, 9044.0, 9066.0, 9068.0, 9094.0, 9083.0, 9070.0, 9100.0, 9068.0, 9054.0, 9092.0, 9063.0, 9062.0, 9078.0, 9065.0, 9091.0, 9063.0, 9060.0, 9047.0, 9042.0, 9043.0, 9028.0, 9028.0, 9034.0, 9040.0, 9040.0, 9027.0, 9034.0, 9047.0, 9036.0, 9079.0, 9044.0, 9051.0, 9076.0, 9047.0, 9051.0, 9063.0, 9052.0, 9046.0, 9069.0, 9057.0, 9052.0, 9037.0, 9068.0, 9051.0, 9039.0, 9069.0, 9056.0, 9030.0, 9035.0, 9077.0, 9041.0, 9035.0, 9065.0, 9036.0, 9036.0, 9044.0, 9044.0, 9049.0, 9034.0, 9073.0, 9048.0, 9032.0, 9065.0, 9046.0, 9035.0, 9070.0, 9058.0, 9040.0, 9032.0, 9069.0, 9052.0, 9078.0, 9080.0, 9083.0, 9102.0, 9077.0, 9090.0, 9059.0, 9050.0, 9080.0, 9048.0, 9040.0, 9082.0, 9048.0, 9047.0, 9089.0, 9057.0, 9026.0, 9050.0, 9045.0, 9038.0, 9046.0, 9077.0, 9054.0, 9048.0, 9043.0, 9056.0, 9086.0, 9075.0, 9056.0, 9064.0, 9061.0, 9069.0, 9060.0, 9052.0, 9080.0, 9062.0, 9066.0, 9040.0, 9026.0, 9013.0, 8997.0, 8979.0, 8984.0, 8989.0, 8992.0, 9032.0, 9021.0, 9065.0, 9030.0, 9026.0, 9037.0, 9039.0, 9046.0, 9051.0, 9050.0, 9064.0, 9066.0, 9103.0, 9063.0, 9073.0, 9100.0, 9057.0, 9062.0, 9062.0, 9059.0, 9053.0, 9051.0, 9081.0, 9050.0, 9042.0, 9078.0, 9055.0, 9040.0, 9053.0, 9047.0, 9060.0, 9045.0, 9048.0, 9072.0, 9041.0, 9060.0, 9069.0, 9057.0, 9071.0, 9066.0, 9075.0, 9055.0, 9048.0, 9051.0, 9038.0, 9069.0, 9057.0, 9095.0, 9039.0, 9063.0, 9052.0, 9058.0, 9046.0, 9054.0, 9094.0, 9055.0, 9061.0, 9049.0, 9071.0, 9063.0, 9055.0, 9053.0, 9053.0, 9061.0, 9046.0, 9045.0, 9045.0, 9036.0, 9054.0, 9035.0, 9064.0, 9056.0, 9037.0, 9047.0, 9042.0, 9047.0, 9035.0, 9041.0, 9039.0, 9033.0, 9039.0, 9038.0, 9040.0, 9046.0, 9048.0, 9046.0, 9064.0, 9059.0, 9048.0, 9078.0, 9066.0, 9039.0, 9031.0, 9055.0, 9035.0, 9035.0, 9043.0, 9045.0, 9059.0, 9042.0, 9072.0, 9061.0, 9056.0, 9056.0, 9062.0, 9060.0, 9048.0, 9060.0, 9045.0, 9031.0, 9042.0, 9034.0, 9021.0, 9033.0, 9087.0, 9035.0, 9034.0, 9040.0, 9036.0, 9041.0, 9050.0, 9044.0, 9054.0, 9048.0, 9036.0, 9035.0, 9049.0, 9042.0],
