{
  "AcquisitionMatrixPE": 104,
  "AcquisitionNumber": 1,
  "AcquisitionTime": "15:15:18.525000",
  "BandwidthPerPixelPhaseEncode": 16.297,
  "BaseResolution": 104,
  "BodyPartExamined": "BRAIN",
  "ConsistencyInfo": "N4_VE11C_LATEST_20160120",
  "ConversionSoftware": "dcm2niix",
  "ConversionSoftwareVersion": "v1.0.20190902",
  "DerivedVendorReportedEchoSpacing": 0.000590009,
  "DeviceSerialNumber": "166018",
  "DwellTime": 2.1e-06,
  "EchoTime": 0.0376,
  "EchoTrainLength": 104,
  "EffectiveEchoSpacing": 0.000590009,
  "FlipAngle": 68,
  "ImageComments": "Unaliased_MB6_PE3_LB",
  "ImageOrientationPatientDICOM": [0.999456, 0.0136858, 0.0300029, -0.0146539, 0.999371, 0.0322866],
  "ImageType": [
    "ORIGINAL",
    "PRIMARY",
    "M",
    "MB",
    "ND",
    "MOSAIC"
],
  "ImagingFrequency": 123.197,
  "InPlanePhaseEncodingDirectionDICOM": "COL",
  "InstitutionAddress": "Washington_Place_6_NYC_NYC_US_10003",
  "InstitutionName": "NYU_-_CBI",
  "InstitutionalDepartmentName": "Department",
  "MRAcquisitionType": "2D",
  "MagneticFieldStrength": 3,
  "Manufacturer": "Siemens",
  "ManufacturersModelName": "Prisma",
  "Modality": "MR",
  "MultibandAccelerationFactor": 6,
  "PartialFourier": 1,
  "PatientPosition": "HFS",
  "PercentPhaseFOV": 100,
  "PhaseEncodingDirection": "j",
  "PhaseEncodingSteps": 104,
  "PhaseResolution": 1,
  "PixelBandwidth": 2290,
  "ProcedureStepDescription": "Investigators_Carrasco",
  "ProtocolName": "cmrr_mbepi_s6_2mm_66sl_PA_task-prf",
  "PulseSequenceDetails": "%CustomerSeq%_cmrr_mbep2d_bold",
  "ReceiveCoilActiveElements": "HC1-7",
  "ReceiveCoilName": "HeadNeck_64",
  "ReconMatrixPE": 104,
  "RepetitionTime": 1,
  "SAR": 0.0654235,
  "ScanOptions": "FS",
  "ScanningSequence": "EP",
  "SequenceName": "epfid2d1_104",
  "SequenceVariant": "SK_SS",
  "SeriesDescription": "cmrr_mbepi_s6_2mm_66sl_PA_task-prf",
  "SeriesNumber": 24,
  "ShimSetting": [294, -12610, -8514, 230, -30, -244, -26, 95],
  "SliceThickness": 2,
  "SliceTiming": [0, 0.535, 0.09, 0.625, 0.1775, 0.7125, 0.2675, 0.8025, 0.3575, 0.89, 0.445, 0, 0.535, 0.09, 0.625, 0.1775, 0.7125, 0.2675, 0.8025, 0.3575, 0.89, 0.445, 0, 0.535, 0.09, 0.625, 0.1775, 0.7125, 0.2675, 0.8025, 0.3575, 0.89, 0.445, 0, 0.535, 0.09, 0.625, 0.1775, 0.7125, 0.2675, 0.8025, 0.3575, 0.89, 0.445, 0, 0.535, 0.09, 0.625, 0.1775, 0.7125, 0.2675, 0.8025, 0.3575, 0.89, 0.445, 0, 0.535, 0.09, 0.625, 0.1775, 0.7125, 0.2675, 0.8025, 0.3575, 0.89, 0.445],
  "SoftwareVersions": "syngo_MR_E11",
  "SpacingBetweenSlices": 2,
  "StationName": "AWP166018",
  "TaskName": "prf",
  "TotalReadoutTime": 0.060771,
  "TxRefAmp": 203.365,
  "VendorReportedEchoSpacing": 0.00059,
  "WipMemBlock": "19114003-e36e-4142-b512-6779af250db1||Sequence: R016 ve11c/master r/8780670; Nov 27 2017 15:05:12 by eja",
  "dcmmeta_affine": [
    [-1.9989122152328491, -0.02930774912238121, 0.05908424034714699, 105.98870086669922],
    [-0.027371641248464584, 1.9987424612045288, 0.06541735678911209, -80.68510437011719],
    [0.060005709528923035, -0.06457316130399704, 1.998056411743164, -35.83408737182617],
    [0.0, 0.0, 0.0, 1.0]
],
  "dcmmeta_reorient_transform": [
    [0.0, -1.0, 0.0, 103.0],
    [1.0, 0.0, 0.0, 0.0],
    [0.0, 0.0, 1.0, 0.0],
    [0.0, 0.0, 0.0, 1.0]
],
  "dcmmeta_shape": [104, 104, 66, 192],
  "dcmmeta_slice_dim": 2,
  "dcmmeta_version": 0.6,
  "global": {
    "const": {
      "AccessionNumber": "L7e3ta5t",
      "AcquisitionMatrix": [104, 0, 0, 104],
      "AngioFlag": "N",
      "BitsAllocated": 16,
      "BitsStored": 16,
      "BodyPartExamined": "BRAIN",
      "Columns": 936,
      "EchoNumbers": 1,
      "EchoTime": 37.6,
      "EchoTrainLength": 104,
      "FlipAngle": 68.0,
      "HighBit": 15,
      "ImageOrientationPatient": [0.99945611562398, 0.01368582080421, 0.03000285404343, -0.0146538750018, 0.99937122270149, 0.03228657900072],
      "ImagePositionPatient": [-922.32547021377, -968.04883107583, -94.309932186996],
      "ImageType": [
        "ORIGINAL",
        "PRIMARY",
        "M",
        "MB",
        "ND",
        "MOSAIC"
],
      "ImagedNucleus": "1H",
      "ImagingFrequency": 123.196891,
      "InPlanePhaseEncodingDirection": "COL",
      "MRAcquisitionType": "2D",
      "MagneticFieldStrength": 3.0,
      "Manufacturer": "SIEMENS",
      "ManufacturerModelName": "Prisma",
      "Modality": "MR",
      "NumberOfAverages": 1.0,
      "NumberOfPhaseEncodingSteps": 104,
      "PercentPhaseFieldOfView": 100.0,
      "PercentSampling": 100.0,
      "PerformedProcedureStepStartTime": "142637.779000",
      "PhotometricInterpretation": "MONOCHROME2",
      "PixelBandwidth": 2290.0,
      "PixelRepresentation": 0,
      "PixelSpacing": [2.0, 2.0],
      "ProtocolName": "cmrr_mbepi_s6_2mm_66sl_PA_task-prf",
      "RepetitionTime": 1000.0,
      "Rows": 936,
      "SAR": 0.0654235015583,
      "SamplesPerPixel": 1,
      "ScanOptions": "FS",
      "ScanningSequence": "EP",
      "SequenceName": "epfid2d1_104",
      "SequenceVariant": [
        "SK",
        "SS"
],
      "SeriesDescription": "cmrr_mbepi_s6_2mm_66sl_PA_task-prf",
      "SeriesNumber": 24,
      "SeriesTime": "151632.478000",
      "SliceLocation": -35.307237966455,
      "SliceThickness": 2.0,
      "SmallestImagePixelValue": 0,
      "SoftwareVersions": "syngo MR E11",
      "SpacingBetweenSlices": 1.9999999793291,
      "SpecificCharacterSet": "ISO_IR 100",
      "StudyID": "1",
      "StudyTime": "142637.711000",
      "TransmitCoilName": "Body",
      "VariableFlipAngleFlag": "N",
      "WindowCenterWidthExplanation": "Algo1",
      "dBdt": 0.0},
    "slices": {}
  },
  "time": {
    "samples": {
      "AcquisitionNumber": [1, 2, 3, 4, 5, 6, 7, 8, 9, 10, 11, 12, 13, 14, 15, 16, 17, 18, 19, 20, 21, 22, 23, 24, 25, 26, 27, 28, 29, 30, 31, 32, 33, 34, 35, 36, 37, 38, 39, 40, 41, 42, 43, 44, 45, 46, 47, 48, 49, 50, 51, 52, 53, 54, 55, 56, 57, 58, 59, 60, 61, 62, 63, 64, 65, 66, 67, 68, 69, 70, 71, 72, 73, 74, 75, 76, 77, 78, 79, 80, 81, 82, 83, 84, 85, 86, 87, 88, 89, 90, 91, 92, 93, 94, 95, 96, 97, 98, 99, 100, 101, 102, 103, 104, 105, 106, 107, 108, 109, 110, 111, 112, 113, 114, 115, 116, 117, 118, 119, 120, 121, 122, 123, 124, 125, 126, 127, 128, 129, 130, 131, 132, 133, 134, 135, 136, 137, 138, 139, 140, 141, 142, 143, 144, 145, 146, 147, 148, 149, 150, 151, 152, 153, 154, 155, 156, 157, 158, 159, 160, 161, 162, 163, 164, 165, 166, 167, 168, 169, 170, 171, 172, 173, 174, 175, 176, 177, 178, 179, 180, 181, 182, 183, 184, 185, 186, 187, 188, 189, 190, 191, 192],
      "AcquisitionTime": ["151518.525000", "151519.525000", "151520.525000", "151521.525000", "151522.525000", "151523.525000", "151524.525000", "151525.525000", "151526.525000", "151527.525000", "151528.525000", "151529.525000", "151530.525000", "151531.525000", "151532.525000", "151533.525000", "151534.525000", "151535.525000", "151536.525000", "151537.525000", "151538.525000", "151539.525000", "151540.525000", "151541.525000", "151542.525000", "151543.525000", "151544.525000", "151545.525000", "151546.525000", "151547.525000", "151548.525000", "151549.525000", "151550.525000", "151551.525000", "151552.525000", "151553.525000", "151554.525000", "151555.525000", "151556.525000", "151557.525000", "151558.525000", "151559.525000", "151600.525000", "151601.525000", "151602.525000", "151603.525000", "151604.525000", "151605.525000", "151606.525000", "151607.525000", "151608.525000", "151609.525000", "151610.525000", "151611.525000", "151612.525000", "151613.525000", "151614.525000", "151615.525000", "151616.525000", "151617.525000", "151618.525000", "151619.525000", "151620.525000", "151621.525000", "151622.525000", "151623.525000", "151624.525000", "151625.525000", "151626.525000", "151627.525000", "151628.525000", "151629.525000", "151630.525000", "151631.525000", "151632.525000", "151633.525000", "151634.525000", "151635.525000", "151636.525000", "151637.525000", "151638.525000", "151639.525000", "151640.525000", "151641.525000", "151642.525000", "151643.525000", "151644.525000", "151645.525000", "151646.525000", "151647.525000", "151648.525000", "151649.525000", "151650.525000", "151651.525000", "151652.525000", "151653.525000", "151654.525000", "151655.525000", "151656.525000", "151657.525000", "151658.525000", "151659.525000", "151700.525000", "151701.525000", "151702.525000", "151703.525000", "151704.525000", "151705.525000", "151706.525000", "151707.525000", "151708.525000", "151709.525000", "151710.525000", "151711.525000", "151712.525000", "151713.525000", "151714.525000", "151715.525000", "151716.525000", "151717.525000", "151718.525000", "151719.525000", "151720.525000", "151721.525000", "151722.525000", "151723.525000", "151724.525000", "151725.525000", "151726.525000", "151727.525000", "151728.525000", "151729.525000", "151730.525000", "151731.525000", "151732.525000", "151733.525000", "151734.525000", "151735.525000", "151736.525000", "151737.525000", "151738.525000", "151739.525000", "151740.525000", "151741.525000", "151742.525000", "151743.525000", "151744.525000", "151745.525000", "151746.525000", "151747.525000", "151748.525000", "151749.525000", "151750.525000", "151751.525000", "151752.525000", "151753.525000", "151754.525000", "151755.525000", "151756.525000", "151757.525000", "151758.525000", "151759.525000", "151800.525000", "151801.525000", "151802.525000", "151803.525000", "151804.525000", "151805.525000", "151806.525000", "151807.525000", "151808.525000", "151809.525000", "151810.525000", "151811.525000", "151812.525000", "151813.525000", "151814.525000", "151815.525000", "151816.525000", "151817.525000", "151818.525000", "151819.525000", "151820.525000", "151821.525000", "151822.525000", "151823.525000", "151824.525000", "151825.525000", "151826.525000", "151827.525000", "151828.525000", "151829.525000"],
      "ContentTime": ["151632.481000", "151632.484000", "151632.487000", "151632.490000", "151632.493000", "151632.496000", "151632.499000", "151632.502000", "151632.505000", "151632.508000", "151632.511000", "151632.521000", "151632.524000", "151632.527000", "151632.530000", "151632.533000", "151632.536000", "151632.540000", "151632.544000", "151632.549000", "151632.552000", "151632.555000", "151632.558000", "151632.562000", "151632.565000", "151632.582000", "151632.585000", "151632.588000", "151632.591000", "151632.594000", "151632.596000", "151632.599000", "151632.602000", "151632.605000", "151652.451000", "151652.454000", "151652.463000", "151652.466000", "151652.469000", "151652.472000", "151652.475000", "151652.478000", "151652.481000", "151652.484000", "151652.487000", "151652.490000", "151652.493000", "151652.496000", "151652.499000", "151652.502000", "151652.505000", "151652.508000", "151652.511000", "151652.514000", "151652.517000", "151652.520000", "151652.523000", "151652.526000", "151652.528000", "151652.532000", "151652.534000", "151652.537000", "151652.540000", "151712.452000", "151712.455000", "151712.463000", "151712.466000", "151712.469000", "151712.472000", "151712.475000", "151712.478000", "151712.481000", "151712.484000", "151712.487000", "151712.490000", "151712.493000", "151712.496000", "151712.499000", "151712.502000", "151712.505000", "151712.508000", "151712.511000", "151712.514000", "151712.517000", "151712.520000", "151712.523000", "151712.526000", "151712.529000", "151712.532000", "151712.535000", "151712.537000", "151732.452000", "151732.455000", "151732.467000", "151732.470000", "151732.477000", "151732.480000", "151732.483000", "151732.486000", "151732.491000", "151732.495000", "151732.499000", "151732.502000", "151732.505000", "151732.508000", "151732.511000", "151732.514000", "151732.517000", "151732.520000", "151732.524000", "151732.526000", "151732.529000", "151732.532000", "151732.535000", "151732.538000", "151732.541000", "151732.544000", "151732.547000", "151732.550000", "151752.451000", "151752.454000", "151752.457000", "151752.460000", "151752.475000", "151752.478000", "151752.481000", "151752.484000", "151752.487000", "151752.490000", "151752.493000", "151752.496000", "151752.499000", "151752.502000", "151752.505000", "151752.508000", "151752.511000", "151752.514000", "151752.517000", "151752.520000", "151752.522000", "151752.525000", "151752.528000", "151752.531000", "151752.535000", "151752.538000", "151752.541000", "151752.544000", "151752.547000", "151812.451000", "151812.454000", "151812.457000", "151812.460000", "151812.463000", "151812.466000", "151812.469000", "151812.472000", "151812.475000", "151812.478000", "151812.481000", "151812.484000", "151812.487000", "151812.491000", "151812.493000", "151812.496000", "151812.509000", "151812.512000", "151812.515000", "151812.518000", "151812.521000", "151812.524000", "151812.527000", "151812.530000", "151831.613000", "151831.617000", "151831.620000", "151831.623000", "151831.626000", "151831.630000", "151831.633000", "151831.636000", "151831.639000", "151831.642000", "151831.645000", "151831.648000", "151831.651000", "151831.654000", "151831.657000", "151831.660000", "151831.663000", "151831.666000", "151831.669000", "151831.672000"],
      "InstanceCreationTime": ["151632.481000", "151632.484000", "151632.487000", "151632.490000", "151632.493000", "151632.496000", "151632.499000", "151632.502000", "151632.505000", "151632.508000", "151632.511000", "151632.521000", "151632.524000", "151632.527000", "151632.530000", "151632.533000", "151632.536000", "151632.540000", "151632.544000", "151632.549000", "151632.552000", "151632.555000", "151632.558000", "151632.562000", "151632.565000", "151632.582000", "151632.585000", "151632.588000", "151632.591000", "151632.594000", "151632.596000", "151632.599000", "151632.602000", "151632.605000", "151652.451000", "151652.454000", "151652.463000", "151652.466000", "151652.469000", "151652.472000", "151652.475000", "151652.478000", "151652.481000", "151652.484000", "151652.487000", "151652.490000", "151652.493000", "151652.496000", "151652.499000", "151652.502000", "151652.505000", "151652.508000", "151652.511000", "151652.514000", "151652.517000", "151652.520000", "151652.523000", "151652.526000", "151652.528000", "151652.532000", "151652.534000", "151652.537000", "151652.540000", "151712.452000", "151712.455000", "151712.463000", "151712.466000", "151712.469000", "151712.472000", "151712.475000", "151712.478000", "151712.481000", "151712.484000", "151712.487000", "151712.490000", "151712.493000", "151712.496000", "151712.499000", "151712.502000", "151712.505000", "151712.508000", "151712.511000", "151712.514000", "151712.517000", "151712.520000", "151712.523000", "151712.526000", "151712.529000", "151712.532000", "151712.535000", "151712.537000", "151732.452000", "151732.455000", "151732.467000", "151732.470000", "151732.477000", "151732.480000", "151732.483000", "151732.486000", "151732.491000", "151732.495000", "151732.499000", "151732.502000", "151732.505000", "151732.508000", "151732.511000", "151732.514000", "151732.517000", "151732.520000", "151732.524000", "151732.526000", "151732.529000", "151732.532000", "151732.535000", "151732.538000", "151732.541000", "151732.544000", "151732.547000", "151732.550000", "151752.451000", "151752.454000", "151752.457000", "151752.460000", "151752.475000", "151752.478000", "151752.481000", "151752.484000", "151752.487000", "151752.490000", "151752.493000", "151752.496000", "151752.499000", "151752.502000", "151752.505000", "151752.508000", "151752.511000", "151752.514000", "151752.517000", "151752.520000", "151752.522000", "151752.525000", "151752.528000", "151752.531000", "151752.535000", "151752.538000", "151752.541000", "151752.544000", "151752.547000", "151812.451000", "151812.454000", "151812.457000", "151812.460000", "151812.463000", "151812.466000", "151812.469000", "151812.472000", "151812.475000", "151812.478000", "151812.481000", "151812.484000", "151812.487000", "151812.491000", "151812.493000", "151812.496000", "151812.509000", "151812.512000", "151812.515000", "151812.518000", "151812.521000", "151812.524000", "151812.527000", "151812.530000", "151831.613000", "151831.617000", "151831.620000", "151831.623000", "151831.626000", "151831.630000", "151831.633000", "151831.636000", "151831.639000", "151831.642000", "151831.645000", "151831.648000", "151831.651000", "151831.654000", "151831.657000", "151831.660000", "151831.663000", "151831.666000", "151831.669000", "151831.672000"],
      "InstanceNumber": [1, 2, 3, 4, 5, 6, 7, 8, 9, 10, 11, 12, 13, 14, 15, 16, 17, 18, 19, 20, 21, 22, 23, 24, 25, 26, 27, 28, 29, 30, 31, 32, 33, 34, 35, 36, 37, 38, 39, 40, 41, 42, 43, 44, 45, 46, 47, 48, 49, 50, 51, 52, 53, 54, 55, 56, 57, 58, 59, 60, 61, 62, 63, 64, 65, 66, 67, 68, 69, 70, 71, 72, 73, 74, 75, 76, 77, 78, 79, 80, 81, 82, 83, 84, 85, 86, 87, 88, 89, 90, 91, 92, 93, 94, 95, 96, 97, 98, 99, 100, 101, 102, 103, 104, 105, 106, 107, 108, 109, 110, 111, 112, 113, 114, 115, 116, 117, 118, 119, 120, 121, 122, 123, 124, 125, 126, 127, 128, 129, 130, 131, 132, 133, 134, 135, 136, 137, 138, 139, 140, 141, 142, 143, 144, 145, 146, 147, 148, 149, 150, 151, 152, 153, 154, 155, 156, 157, 158, 159, 160, 161, 162, 163, 164, 165, 166, 167, 168, 169, 170, 171, 172, 173, 174, 175, 176, 177, 178, 179, 180, 181, 182, 183, 184, 185, 186, 187, 188, 189, 190, 191, 192],
      "LargestImagePixelValue": [38650, 38056, 36890, 37033, 36601, 36467, 36359, 35836, 35688, 36134, 35446, 35626, 35834, 35755, 35643, 35378, 35488, 35801, 35526, 35902, 35975, 35084, 35434, 35755, 35620, 35135, 35614, 35938, 35447, 35485, 36064, 35522, 35468, 35637, 35390, 35591, 36085, 36087, 35851, 35729, 35771, 35204, 35367, 35860, 35222, 35181, 35579, 35326, 35755, 35430, 35493, 35252, 35979, 35557, 35191, 35798, 35295, 35670, 35540, 35891, 35602, 36083, 35872, 35713, 35388, 35881, 35534, 35607, 35807, 35347, 35356, 35925, 35671, 35749, 35762, 35475, 35516, 35609, 35230, 35583, 36060, 35908, 35294, 35354, 35456, 35651, 35837, 35883, 35500, 35653, 35780, 35838, 35432, 35813, 36020, 35624, 35677, 35885, 35399, 35509, 35548, 36265, 35898, 35629, 35719, 35798, 35194, 35652, 34853, 35154, 34613, 35058, 35120, 35168, 35393, 35465, 34726, 35319, 35614, 34998, 35543, 35428, 35422, 35513, 35481, 36058, 35863, 35578, 35834, 35148, 35523, 35751, 35468, 35197, 35760, 35228, 35740, 35361, 35446, 35413, 34905, 34537, 34684, 34832, 35404, 34634, 35219, 34907, 35476, 34834, 34711, 35417, 35360, 34983, 34968, 35338, 35126, 35503, 35195, 34946, 35045, 34900, 35005, 35216, 35291, 34972, 34943, 34736, 35258, 34965, 35395, 35176, 35060, 35186, 34692, 35218, 34692, 35138, 35266, 35108, 34906, 34726, 34633, 34353, 34558, 34883, 35317, 34882, 34891, 35291, 35096, 34595],
      "WindowCenter": [9807.0, 9788.0, 9767.0, 9778.0, 9774.0, 9768.0, 9772.0, 9754.0, 9729.0, 9717.0, 9709.0, 9711.0, 9725.0, 9733.0, 9735.0, 9736.0, 9729.0, 9729.0, 9714.0, 9713.0, 9711.0, 9698.0, 9704.0, 9708.0, 9705.0, 9705.0, 9711.0, 9710.0, 9712.0, 9705.0, 9714.0, 9705.0, 9711.0, 9705.0, 9710.0, 9702.0, 9712.0, 9704.0, 9716.0, 9726.0, 9732.0, 9736.0, 9738.0, 9730.0, 9707.0, 9699.0, 9689.0, 9688.0, 9685.0, 9696.0, 9709.0, 9721.0, 9729.0, 9719.0, 9712.0, 9710.0, 9705.0, 9708.0, 9709.0, 9711.0, 9719.0, 9724.0, 9726.0, 9732.0, 9721.0, 9718.0, 9703.0, 9701.0, 9701.0, 9695.0, 9696.0, 9702.0, 9712.0, 9718.0, 9727.0, 9713.0, 9710.0, 9715.0, 9714.0, 9729.0, 9737.0, 9727.0, 9724.0, 9729.0, 9731.0, 9728.0, 9737.0, 9734.0, 9728.0, 9727.0, 9726.0, 9726.0, 9719.0, 9728.0, 9734.0, 9737.0, 9731.0, 9737.0, 9723.0, 9730.0, 9730.0, 9737.0, 9730.0, 9723.0, 9736.0, 9746.0, 9733.0, 9723.0, 9708.0, 9706.0, 9691.0, 9699.0, 9705.0, 9704.0, 9711.0, 9710.0, 9706.0, 9714.0, 9725.0, 9717.0, 9728.0, 9728.0, 9736.0, 9744.0, 9755.0, 9761.0, 9746.0, 9732.0, 9723.0, 9708.0, 9715.0, 9728.0, 9731.0, 9741.0, 9755.0, 9757.0, 9744.0, 9748.0, 9734.0, 9723.0, 9703.0, 9694.0, 9690.0, 9684.0, 9685.0, 9682.0, 9697.0, 9700.0, 9710.0, 9707.0, 9718.0, 9733.0, 9735.0, 9738.0, 9735.0, 9727.0, 9704.0, 9699.0, 9698.0, 9699.0, 9716.0, 9719.0, 9719.0, 9727.0, 9716.0, 9711.0, 9709.0, 9710.0, 9709.0, 9702.0, 9715.0, 9723.0, 9732.0, 9733.0, 9730.0, 9749.0, 9730.0, 9739.0, 9727.0, 9718.0, 9710.0, 9713.0, 9705.0, 9703.0, 9702.0, 9702.0, 9691.0, 9676.0, 9673.0, 9674.0, 9674.0, 9683.0],
      "WindowWidth": [20855.0, 20804.0, 20753.0, 20774.0, 20766.0, 20748.0, 20753.0, 20721.0, 20659.0, 20628.0, 20612.0, 20619.0, 20649.0, 20668.0, 20674.0, 20678.0, 20659.0, 20659.0, 20625.0, 20624.0, 20614.0, 20586.0, 20600.0, 20604.0, 20602.0, 20603.0, 20616.0, 20610.0, 20620.0, 20604.0, 20618.0, 20604.0, 20619.0, 20604.0, 20612.0, 20595.0, 20613.0, 20594.0, 20627.0, 20650.0, 20665.0, 20680.0, 20688.0, 20661.0, 20609.0, 20589.0, 20564.0, 20563.0, 20555.0, 20583.0, 20611.0, 20642.0, 20661.0, 20635.0, 20620.0, 20613.0, 20606.0, 20607.0, 20613.0, 20617.0, 20641.0, 20645.0, 20649.0, 20665.0, 20640.0, 20629.0, 20595.0, 20591.0, 20591.0, 20580.0, 20585.0, 20597.0, 20622.0, 20632.0, 20655.0, 20623.0, 20620.0, 20630.0, 20628.0, 20658.0, 20672.0, 20653.0, 20651.0, 20662.0, 20667.0, 20659.0, 20677.0, 20669.0, 20656.0, 20656.0, 20649.0, 20649.0, 20633.0, 20659.0, 20670.0, 20680.0, 20665.0, 20679.0, 20644.0, 20664.0, 20662.0, 20676.0, 20665.0, 20651.0, 20677.0, 20704.0, 20672.0, 20649.0, 20614.0, 20606.0, 20576.0, 20592.0, 20603.0, 20604.0, 20620.0, 20614.0, 20608.0, 20624.0, 20644.0, 20633.0, 20655.0, 20657.0, 20674.0, 20694.0, 20720.0, 20733.0, 20698.0, 20666.0, 20644.0, 20610.0, 20624.0, 20657.0, 20663.0, 20690.0, 20719.0, 20727.0, 20692.0, 20701.0, 20674.0, 20644.0, 20603.0, 20581.0, 20571.0, 20556.0, 20553.0, 20550.0, 20582.0, 20593.0, 20609.0, 20613.0, 20640.0, 20668.0, 20675.0, 20689.0, 20677.0, 20655.0, 20608.0, 20586.0, 20588.0, 20589.0, 20635.0, 20641.0, 20640.0, 20660.0, 20632.0, 20620.0, 20612.0, 20622.0, 20614.0, 20600.0, 20626.0, 20645.0, 20666.0, 20669.0, 20667.0, 20710.0, 20668.0, 20685.0, 20656.0, 20635.0, 20618.0, 20626.0, 20611.0, 20610.0, 20603.0, 20603.0, 20569.0, 20539.0, 20528.0, 20533.0, 20529.0, 20555.0]
    },
    "slices": {}
  },
  "NumberOfVolumes": 192
}