{
  "AcquisitionMatrixPE": 104,
  "AcquisitionNumber": 1,
  "AcquisitionTime": "15:07:0.497500",
  "BandwidthPerPixelPhaseEncode": 16.297,
  "BaseResolution": 104,
  "BodyPartExamined": "BRAIN",
  "ConsistencyInfo": "N4_VE11C_LATEST_20160120",
  "ConversionSoftware": "dcm2niix",
  "ConversionSoftwareVersion": "v1.0.20190902",
  "DerivedVendorReportedEchoSpacing": 0.000590009,
  "DeviceSerialNumber": "166018",
  "DwellTime": 2.1e-06,
  "EchoTime": 0.0376,
  "EchoTrainLength": 104,
  "EffectiveEchoSpacing": 0.000590009,
  "FlipAngle": 68,
  "ImageComments": "Unaliased_MB6_PE3_LB",
  "ImageOrientationPatientDICOM": [0.999456, 0.0136858, 0.0300029, -0.0146539, 0.999371, 0.0322866],
  "ImageType": [
    "ORIGINAL",
    "PRIMARY",
    "M",
    "MB",
    "ND",
    "MOSAIC"
],
  "ImagingFrequency": 123.197,
  "InPlanePhaseEncodingDirectionDICOM": "COL",
  "InstitutionAddress": "Washington_Place_6_NYC_NYC_US_10003",
  "InstitutionName": "NYU_-_CBI",
  "InstitutionalDepartmentName": "Department",
  "MRAcquisitionType": "2D",
  "MagneticFieldStrength": 3,
  "Manufacturer": "Siemens",
  "ManufacturersModelName": "Prisma",
  "Modality": "MR",
  "MultibandAccelerationFactor": 6,
  "PartialFourier": 1,
  "PatientPosition": "HFS",
  "PercentPhaseFOV": 100,
  "PhaseEncodingDirection": "j",
  "PhaseEncodingSteps": 104,
  "PhaseResolution": 1,
  "PixelBandwidth": 2290,
  "ProcedureStepDescription": "Investigators_Carrasco",
  "ProtocolName": "cmrr_mbepi_s6_2mm_66sl_PA_task-prf",
  "PulseSequenceDetails": "%CustomerSeq%_cmrr_mbep2d_bold",
  "ReceiveCoilActiveElements": "HC1-7",
  "ReceiveCoilName": "HeadNeck_64",
  "ReconMatrixPE": 104,
  "RepetitionTime": 1,
  "SAR": 0.0654235,
  "ScanOptions": "FS",
  "ScanningSequence": "EP",
  "SequenceName": "epfid2d1_104",
  "SequenceVariant": "SK_SS",
  "SeriesDescription": "cmrr_mbepi_s6_2mm_66sl_PA_task-prf",
  "SeriesNumber": 20,
  "ShimSetting": [294, -12610, -8514, 230, -30, -244, -26, 95],
  "SliceThickness": 2,
  "SliceTiming": [0, 0.535, 0.09, 0.625, 0.1775, 0.7125, 0.2675, 0.8025, 0.3575, 0.89, 0.445, 0, 0.535, 0.09, 0.625, 0.1775, 0.7125, 0.2675, 0.8025, 0.3575, 0.89, 0.445, 0, 0.535, 0.09, 0.625, 0.1775, 0.7125, 0.2675, 0.8025, 0.3575, 0.89, 0.445, 0, 0.535, 0.09, 0.625, 0.1775, 0.7125, 0.2675, 0.8025, 0.3575, 0.89, 0.445, 0, 0.535, 0.09, 0.625, 0.1775, 0.7125, 0.2675, 0.8025, 0.3575, 0.89, 0.445, 0, 0.535, 0.09, 0.625, 0.1775, 0.7125, 0.2675, 0.8025, 0.3575, 0.89, 0.445],
  "SoftwareVersions": "syngo_MR_E11",
  "SpacingBetweenSlices": 2,
  "StationName": "AWP166018",
  "TaskName": "prf",
  "TotalReadoutTime": 0.060771,
  "TxRefAmp": 203.365,
  "VendorReportedEchoSpacing": 0.00059,
  "WipMemBlock": "19114003-e36e-4142-b512-6779af250db1||Sequence: R016 ve11c/master r/8780670; Nov 27 2017 15:05:12 by eja",
  "dcmmeta_affine": [
    [-1.9989122152328491, -0.02930774912238121, 0.05908424034714699, 105.98870086669922],
    [-0.027371641248464584, 1.9987424612045288, 0.06541735678911209, -80.68510437011719],
    [0.060005709528923035, -0.06457316130399704, 1.998056411743164, -35.83408737182617],
    [0.0, 0.0, 0.0, 1.0]
],
  "dcmmeta_reorient_transform": [
    [0.0, -1.0, 0.0, 103.0],
    [1.0, 0.0, 0.0, 0.0],
    [0.0, 0.0, 1.0, 0.0],
    [0.0, 0.0, 0.0, 1.0]
],
  "dcmmeta_shape": [104, 104, 66, 192],
  "dcmmeta_slice_dim": 2,
  "dcmmeta_version": 0.6,
  "global": {
    "const": {
      "AccessionNumber": "L7e3ta5t",
      "AcquisitionMatrix": [104, 0, 0, 104],
      "AngioFlag": "N",
      "BitsAllocated": 16,
      "BitsStored": 16,
      "BodyPartExamined": "BRAIN",
      "Columns": 936,
      "EchoNumbers": 1,
      "EchoTime": 37.6,
      "EchoTrainLength": 104,
      "FlipAngle": 68.0,
      "HighBit": 15,
      "ImageOrientationPatient": [0.99945611562398, 0.01368582080421, 0.03000285404343, -0.0146538750018, 0.99937122270149, 0.03228657900072],
      "ImagePositionPatient": [-922.32547021377, -968.04883107583, -94.309932186996],
      "ImageType": [
        "ORIGINAL",
        "PRIMARY",
        "M",
        "MB",
        "ND",
        "MOSAIC"
],
      "ImagedNucleus": "1H",
      "ImagingFrequency": 123.196891,
      "InPlanePhaseEncodingDirection": "COL",
      "MRAcquisitionType": "2D",
      "MagneticFieldStrength": 3.0,
      "Manufacturer": "SIEMENS",
      "ManufacturerModelName": "Prisma",
      "Modality": "MR",
      "NumberOfAverages": 1.0,
      "NumberOfPhaseEncodingSteps": 104,
      "PercentPhaseFieldOfView": 100.0,
      "PercentSampling": 100.0,
      "PerformedProcedureStepStartTime": "142637.779000",
      "PhotometricInterpretation": "MONOCHROME2",
      "PixelBandwidth": 2290.0,
      "PixelRepresentation": 0,
      "PixelSpacing": [2.0, 2.0],
      "ProtocolName": "cmrr_mbepi_s6_2mm_66sl_PA_task-prf",
      "RepetitionTime": 1000.0,
      "Rows": 936,
      "SAR": 0.0654235015583,
      "SamplesPerPixel": 1,
      "ScanOptions": "FS",
      "ScanningSequence": "EP",
      "SequenceName": "epfid2d1_104",
      "SequenceVariant": [
        "SK",
        "SS"
],
      "SeriesDescription": "cmrr_mbepi_s6_2mm_66sl_PA_task-prf",
      "SeriesNumber": 20,
      "SeriesTime": "150812.560000",
      "SliceLocation": -35.307237966455,
      "SliceThickness": 2.0,
      "SmallestImagePixelValue": 0,
      "SoftwareVersions": "syngo MR E11",
      "SpacingBetweenSlices": 1.9999999793291,
      "SpecificCharacterSet": "ISO_IR 100",
      "StudyID": "1",
      "StudyTime": "142637.711000",
      "TransmitCoilName": "Body",
      "VariableFlipAngleFlag": "N",
      "WindowCenterWidthExplanation": "Algo1",
      "dBdt": 0.0},
    "slices": {}
  },
  "time": {
    "samples": {
      "AcquisitionNumber": [1, 2, 3, 4, 5, 6, 7, 8, 9, 10, 11, 12, 13, 14, 15, 16, 17, 18, 19, 20, 21, 22, 23, 24, 25, 26, 27, 28, 29, 30, 31, 32, 33, 34, 35, 36, 37, 38, 39, 40, 41, 42, 43, 44, 45, 46, 47, 48, 49, 50, 51, 52, 53, 54, 55, 56, 57, 58, 59, 60, 61, 62, 63, 64, 65, 66, 67, 68, 69, 70, 71, 72, 73, 74, 75, 76, 77, 78, 79, 80, 81, 82, 83, 84, 85, 86, 87, 88, 89, 90, 91, 92, 93, 94, 95, 96, 97, 98, 99, 100, 101, 102, 103, 104, 105, 106, 107, 108, 109, 110, 111, 112, 113, 114, 115, 116, 117, 118, 119, 120, 121, 122, 123, 124, 125, 126, 127, 128, 129, 130, 131, 132, 133, 134, 135, 136, 137, 138, 139, 140, 141, 142, 143, 144, 145, 146, 147, 148, 149, 150, 151, 152, 153, 154, 155, 156, 157, 158, 159, 160, 161, 162, 163, 164, 165, 166, 167, 168, 169, 170, 171, 172, 173, 174, 175, 176, 177, 178, 179, 180, 181, 182, 183, 184, 185, 186, 187, 188, 189, 190, 191, 192],
      "AcquisitionTime": ["150700.497500", "150701.497500", "150702.497500", "150703.497500", "150704.497500", "150705.497500", "150706.497500", "150707.497500", "150708.497500", "150709.497500", "150710.497500", "150711.497500", "150712.497500", "150713.497500", "150714.497500", "150715.497500", "150716.497500", "150717.497500", "150718.497500", "150719.497500", "150720.497500", "150721.497500", "150722.497500", "150723.497500", "150724.497500", "150725.497500", "150726.497500", "150727.497500", "150728.497500", "150729.497500", "150730.497500", "150731.497500", "150732.497500", "150733.497500", "150734.497500", "150735.497500", "150736.497500", "150737.497500", "150738.497500", "150739.497500", "150740.497500", "150741.497500", "150742.497500", "150743.497500", "150744.497500", "150745.497500", "150746.497500", "150747.497500", "150748.497500", "150749.497500", "150750.497500", "150751.497500", "150752.497500", "150753.497500", "150754.497500", "150755.497500", "150756.497500", "150757.497500", "150758.497500", "150759.497500", "150800.497500", "150801.497500", "150802.497500", "150803.497500", "150804.497500", "150805.497500", "150806.497500", "150807.497500", "150808.497500", "150809.497500", "150810.497500", "150811.497500", "150812.497500", "150813.497500", "150814.497500", "150815.497500", "150816.497500", "150817.497500", "150818.497500", "150819.497500", "150820.497500", "150821.497500", "150822.497500", "150823.497500", "150824.497500", "150825.497500", "150826.497500", "150827.497500", "150828.497500", "150829.497500", "150830.497500", "150831.497500", "150832.497500", "150833.497500", "150834.497500", "150835.497500", "150836.497500", "150837.497500", "150838.497500", "150839.497500", "150840.497500", "150841.497500", "150842.497500", "150843.497500", "150844.497500", "150845.497500", "150846.497500", "150847.497500", "150848.497500", "150849.497500", "150850.497500", "150851.497500", "150852.497500", "150853.497500", "150854.497500", "150855.497500", "150856.497500", "150857.497500", "150858.497500", "150859.497500", "150900.497500", "150901.497500", "150902.497500", "150903.497500", "150904.497500", "150905.497500", "150906.497500", "150907.497500", "150908.497500", "150909.497500", "150910.497500", "150911.497500", "150912.497500", "150913.497500", "150914.497500", "150915.497500", "150916.497500", "150917.497500", "150918.497500", "150919.497500", "150920.497500", "150921.497500", "150922.497500", "150923.497500", "150924.497500", "150925.497500", "150926.497500", "150927.497500", "150928.497500", "150929.497500", "150930.497500", "150931.497500", "150932.497500", "150933.497500", "150934.497500", "150935.497500", "150936.497500", "150937.497500", "150938.497500", "150939.497500", "150940.497500", "150941.497500", "150942.497500", "150943.497500", "150944.497500", "150945.497500", "150946.497500", "150947.497500", "150948.497500", "150949.497500", "150950.497500", "150951.497500", "150952.497500", "150953.497500", "150954.497500", "150955.497500", "150956.497500", "150957.497500", "150958.497500", "150959.497500", "151000.497500", "151001.497500", "151002.497500", "151003.497500", "151004.497500", "151005.497500", "151006.497500", "151007.497500", "151008.497500", "151009.497500", "151010.497500", "151011.497500"],
      "ContentTime": ["150812.563000", "150812.573000", "150812.576000", "150812.579000", "150812.582000", "150812.586000", "150812.589000", "150812.592000", "150812.595000", "150812.598000", "150812.601000", "150812.604000", "150812.607000", "150812.610000", "150812.613000", "150812.616000", "150812.619000", "150812.622000", "150812.625000", "150812.628000", "150812.664000", "150812.667000", "150812.670000", "150812.673000", "150812.676000", "150812.678000", "150812.682000", "150812.684000", "150812.687000", "150832.525000", "150832.528000", "150832.531000", "150832.534000", "150832.537000", "150832.540000", "150832.543000", "150832.546000", "150832.549000", "150832.552000", "150832.555000", "150832.558000", "150832.561000", "150832.564000", "150832.567000", "150832.570000", "150832.573000", "150832.576000", "150832.579000", "150832.582000", "150832.585000", "150832.588000", "150832.591000", "150832.594000", "150832.597000", "150832.600000", "150832.603000", "150832.606000", "150832.609000", "150852.524000", "150852.527000", "150852.530000", "150852.534000", "150852.537000", "150852.540000", "150852.543000", "150852.546000", "150852.549000", "150852.552000", "150852.555000", "150852.558000", "150852.561000", "150852.564000", "150852.567000", "150852.570000", "150852.573000", "150852.576000", "150852.579000", "150852.582000", "150852.585000", "150852.588000", "150852.591000", "150852.594000", "150852.597000", "150852.600000", "150852.603000", "150852.606000", "150912.524000", "150912.527000", "150912.530000", "150912.533000", "150912.536000", "150912.539000", "150912.549000", "150912.552000", "150912.555000", "150912.558000", "150912.561000", "150912.564000", "150912.567000", "150912.570000", "150912.573000", "150912.576000", "150912.579000", "150912.582000", "150912.585000", "150912.588000", "150912.591000", "150912.594000", "150912.597000", "150912.600000", "150912.603000", "150912.606000", "150912.609000", "150912.612000", "150912.615000", "150932.524000", "150932.527000", "150932.530000", "150932.533000", "150932.536000", "150932.539000", "150932.542000", "150932.545000", "150932.556000", "150932.559000", "150932.562000", "150932.565000", "150932.568000", "150932.571000", "150932.574000", "150932.577000", "150932.580000", "150932.583000", "150932.586000", "150932.589000", "150932.606000", "150932.609000", "150932.621000", "150932.624000", "150932.627000", "150932.630000", "150932.633000", "150932.636000", "150952.524000", "150952.527000", "150952.530000", "150952.533000", "150952.536000", "150952.539000", "150952.542000", "150952.545000", "150952.548000", "150952.551000", "150952.554000", "150952.557000", "150952.560000", "150952.563000", "150952.566000", "150952.569000", "150952.572000", "150952.575000", "150952.578000", "150952.581000", "150952.584000", "150952.587000", "150952.590000", "150952.593000", "150952.596000", "150952.599000", "150952.602000", "150952.605000", "151012.525000", "151012.528000", "151012.531000", "151012.534000", "151012.537000", "151012.540000", "151012.543000", "151012.546000", "151012.549000", "151012.552000", "151012.555000", "151012.558000", "151012.561000", "151012.564000", "151012.567000", "151012.571000", "151012.574000", "151012.577000", "151012.580000", "151012.582000", "151013.528000"],
      "InstanceCreationTime": ["150812.563000", "150812.573000", "150812.576000", "150812.579000", "150812.582000", "150812.586000", "150812.589000", "150812.592000", "150812.595000", "150812.598000", "150812.601000", "150812.604000", "150812.607000", "150812.610000", "150812.613000", "150812.616000", "150812.619000", "150812.622000", "150812.625000", "150812.628000", "150812.664000", "150812.667000", "150812.670000", "150812.673000", "150812.676000", "150812.678000", "150812.682000", "150812.684000", "150812.687000", "150832.525000", "150832.528000", "150832.531000", "150832.534000", "150832.537000", "150832.540000", "150832.543000", "150832.546000", "150832.549000", "150832.552000", "150832.555000", "150832.558000", "150832.561000", "150832.564000", "150832.567000", "150832.570000", "150832.573000", "150832.576000", "150832.579000", "150832.582000", "150832.585000", "150832.588000", "150832.591000", "150832.594000", "150832.597000", "150832.600000", "150832.603000", "150832.606000", "150832.609000", "150852.524000", "150852.527000", "150852.530000", "150852.534000", "150852.537000", "150852.540000", "150852.543000", "150852.546000", "150852.549000", "150852.552000", "150852.555000", "150852.558000", "150852.561000", "150852.564000", "150852.567000", "150852.570000", "150852.573000", "150852.576000", "150852.579000", "150852.582000", "150852.585000", "150852.588000", "150852.591000", "150852.594000", "150852.597000", "150852.600000", "150852.603000", "150852.606000", "150912.524000", "150912.527000", "150912.530000", "150912.533000", "150912.536000", "150912.539000", "150912.549000", "150912.552000", "150912.555000", "150912.558000", "150912.561000", "150912.564000", "150912.567000", "150912.570000", "150912.573000", "150912.576000", "150912.579000", "150912.582000", "150912.585000", "150912.588000", "150912.591000", "150912.594000", "150912.597000", "150912.600000", "150912.603000", "150912.606000", "150912.609000", "150912.612000", "150912.615000", "150932.524000", "150932.527000", "150932.530000", "150932.533000", "150932.536000", "150932.539000", "150932.542000", "150932.545000", "150932.556000", "150932.559000", "150932.562000", "150932.565000", "150932.568000", "150932.571000", "150932.574000", "150932.577000", "150932.580000", "150932.583000", "150932.586000", "150932.589000", "150932.606000", "150932.609000", "150932.621000", "150932.624000", "150932.627000", "150932.630000", "150932.633000", "150932.636000", "150952.524000", "150952.527000", "150952.530000", "150952.533000", "150952.536000", "150952.539000", "150952.542000", "150952.545000", "150952.548000", "150952.551000", "150952.554000", "150952.557000", "150952.560000", "150952.563000", "150952.566000", "150952.569000", "150952.572000", "150952.575000", "150952.578000", "150952.581000", "150952.584000", "150952.587000", "150952.590000", "150952.593000", "150952.596000", "150952.599000", "150952.602000", "150952.605000", "151012.525000", "151012.528000", "151012.531000", "151012.534000", "151012.537000", "151012.540000", "151012.543000", "151012.546000", "151012.549000", "151012.552000", "151012.555000", "151012.558000", "151012.561000", "151012.564000", "151012.567000", "151012.571000", "151012.574000", "151012.577000", "151012.580000", "151012.582000", "151013.528000"],
      "InstanceNumber": [1, 2, 3, 4, 5, 6, 7, 8, 9, 10, 11, 12, 13, 14, 15, 16, 17, 18, 19, 20, 21, 22, 23, 24, 25, 26, 27, 28, 29, 30, 31, 32, 33, 34, 35, 36, 37, 38, 39, 40, 41, 42, 43, 44, 45, 46, 47, 48, 49, 50, 51, 52, 53, 54, 55, 56, 57, 58, 59, 60, 61, 62, 63, 64, 65, 66, 67, 68, 69, 70, 71, 72, 73, 74, 75, 76, 77, 78, 79, 80, 81, 82, 83, 84, 85, 86, 87, 88, 89, 90, 91, 92, 93, 94, 95, 96, 97, 98, 99, 100, 101, 102, 103, 104, 105, 106, 107, 108, 109, 110, 111, 112, 113, 114, 115, 116, 117, 118, 119, 120, 121, 122, 123, 124, 125, 126, 127, 128, 129, 130, 131, 132, 133, 134, 135, 136, 137, 138, 139, 140, 141, 142, 143, 144, 145, 146, 147, 148, 149, 150, 151, 152, 153, 154, 155, 156, 157, 158, 159, 160, 161, 162, 163, 164, 165, 166, 167, 168, 169, 170, 171, 172, 173, 174, 175, 176, 177, 178, 179, 180, 181, 182, 183, 184, 185, 186, 187, 188, 189, 190, 191, 192],
      "LargestImagePixelValue": [35811, 35282, 34768, 34296, 33795, 33858, 33715, 33393, 33658, 33572, 33381, 33663, 33281, 33479, 33502, 33254, 33242, 33390, 33220, 33187, 33417, 33903, 33424, 33507, 33353, 33521, 33545, 33616, 33717, 33092, 33323, 33343, 33262, 33185, 33516, 33668, 33349, 33359, 33449, 33548, 33538, 33304, 33646, 33587, 33652, 33405, 33761, 33562, 33171, 33241, 33191, 33368, 33919, 33625, 33331, 33532, 33136, 33078, 33336, 33320, 32944, 33220, 33765, 33424, 33592, 33535, 33361, 33374, 33290, 33424, 33360, 33630, 33819, 33498, 33421, 33358, 33517, 33304, 33450, 33131, 33479, 33204, 33282, 33469, 33535, 33607, 33248, 33133, 33224, 33769, 33327, 33801, 33100, 33499, 33350, 33413, 33455, 33673, 33456, 33521, 33265, 33653, 33509, 33437, 33386, 33189, 33541, 33455, 33421, 33787, 33492, 33887, 33441, 33827, 33586, 33499, 33497, 33422, 33376, 33529, 33304, 33236, 33390, 33144, 32978, 33090, 33358, 33623, 33241, 33534, 33401, 33644, 33645, 33745, 33387, 33372, 33175, 33391, 33809, 33353, 33150, 33373, 33446, 33528, 33499, 33370, 33059, 33315, 33667, 33277, 33645, 33405, 33577, 33379, 33564, 33528, 33307, 33287, 33261, 33199, 33480, 33347, 33389, 33490, 32866, 32954, 33159, 33217, 32954, 33401, 33154, 33238, 33141, 33033, 33038, 33308, 33295, 33421, 33675, 33284, 33366, 33320, 32858, 33233, 33232, 33196, 33121, 33392, 33253, 33311, 33329, 33195],
      "WindowCenter": [9795.0, 9759.0, 9744.0, 9728.0, 9730.0, 9728.0, 9722.0, 9723.0, 9721.0, 9715.0, 9707.0, 9714.0, 9706.0, 9709.0, 9712.0, 9724.0, 9744.0, 9744.0, 9734.0, 9721.0, 9715.0, 9720.0, 9716.0, 9720.0, 9713.0, 9711.0, 9720.0, 9729.0, 9729.0, 9725.0, 9736.0, 9734.0, 9724.0, 9733.0, 9723.0, 9721.0, 9729.0, 9722.0, 9721.0, 9718.0, 9735.0, 9721.0, 9705.0, 9694.0, 9687.0, 9686.0, 9698.0, 9694.0, 9695.0, 9697.0, 9704.0, 9719.0, 9749.0, 9732.0, 9734.0, 9736.0, 9730.0, 9718.0, 9714.0, 9711.0, 9698.0, 9704.0, 9707.0, 9710.0, 9723.0, 9733.0, 9730.0, 9721.0, 9720.0, 9721.0, 9707.0, 9705.0, 9706.0, 9702.0, 9701.0, 9696.0, 9700.0, 9701.0, 9709.0, 9704.0, 9704.0, 9693.0, 9693.0, 9698.0, 9700.0, 9708.0, 9718.0, 9727.0, 9728.0, 9731.0, 9720.0, 9711.0, 9705.0, 9723.0, 9713.0, 9711.0, 9711.0, 9710.0, 9709.0, 9701.0, 9707.0, 9719.0, 9737.0, 9723.0, 9715.0, 9713.0, 9695.0, 9683.0, 9676.0, 9690.0, 9690.0, 9697.0, 9695.0, 9708.0, 9717.0, 9713.0, 9703.0, 9695.0, 9689.0, 9699.0, 9696.0, 9705.0, 9698.0, 9691.0, 9697.0, 9685.0, 9695.0, 9692.0, 9688.0, 9701.0, 9687.0, 9692.0, 9692.0, 9693.0, 9697.0, 9695.0, 9696.0, 9687.0, 9686.0, 9679.0, 9679.0, 9678.0, 9670.0, 9675.0, 9675.0, 9679.0, 9687.0, 9701.0, 9716.0, 9717.0, 9713.0, 9713.0, 9713.0, 9717.0, 9713.0, 9706.0, 9706.0, 9704.0, 9714.0, 9714.0, 9728.0, 9739.0, 9745.0, 9742.0, 9727.0, 9724.0, 9722.0, 9708.0, 9697.0, 9696.0, 9696.0, 9706.0, 9707.0, 9705.0, 9707.0, 9713.0, 9720.0, 9722.0, 9712.0, 9705.0, 9721.0, 9706.0, 9699.0, 9697.0, 9688.0, 9697.0, 9687.0, 9671.0, 9669.0, 9670.0, 9676.0, 9677.0],
      "WindowWidth": [20846.0, 20748.0, 20708.0, 20671.0, 20676.0, 20673.0, 20658.0, 20664.0, 20659.0, 20643.0, 20627.0, 20640.0, 20623.0, 20630.0, 20633.0, 20665.0, 20716.0, 20717.0, 20693.0, 20663.0, 20646.0, 20654.0, 20649.0, 20658.0, 20641.0, 20637.0, 20656.0, 20678.0, 20677.0, 20674.0, 20697.0, 20690.0, 20667.0, 20688.0, 20660.0, 20655.0, 20678.0, 20660.0, 20657.0, 20649.0, 20692.0, 20661.0, 20623.0, 20594.0, 20576.0, 20574.0, 20599.0, 20594.0, 20598.0, 20601.0, 20620.0, 20652.0, 20723.0, 20684.0, 20695.0, 20693.0, 20682.0, 20658.0, 20642.0, 20634.0, 20603.0, 20614.0, 20616.0, 20629.0, 20656.0, 20680.0, 20679.0, 20659.0, 20656.0, 20660.0, 20625.0, 20622.0, 20614.0, 20610.0, 20609.0, 20596.0, 20602.0, 20611.0, 20624.0, 20616.0, 20612.0, 20589.0, 20589.0, 20598.0, 20604.0, 20624.0, 20652.0, 20669.0, 20673.0, 20676.0, 20652.0, 20630.0, 20618.0, 20658.0, 20635.0, 20632.0, 20631.0, 20628.0, 20620.0, 20606.0, 20620.0, 20651.0, 20692.0, 20664.0, 20644.0, 20637.0, 20590.0, 20560.0, 20547.0, 20577.0, 20579.0, 20593.0, 20595.0, 20623.0, 20646.0, 20637.0, 20610.0, 20592.0, 20582.0, 20599.0, 20596.0, 20619.0, 20605.0, 20589.0, 20600.0, 20577.0, 20596.0, 20583.0, 20579.0, 20608.0, 20576.0, 20586.0, 20588.0, 20587.0, 20601.0, 20597.0, 20602.0, 20577.0, 20570.0, 20556.0, 20554.0, 20550.0, 20533.0, 20545.0, 20545.0, 20556.0, 20574.0, 20606.0, 20637.0, 20644.0, 20638.0, 20635.0, 20633.0, 20649.0, 20636.0, 20619.0, 20617.0, 20615.0, 20638.0, 20639.0, 20668.0, 20697.0, 20711.0, 20711.0, 20673.0, 20666.0, 20657.0, 20625.0, 20601.0, 20595.0, 20594.0, 20619.0, 20623.0, 20619.0, 20629.0, 20639.0, 20653.0, 20658.0, 20632.0, 20617.0, 20653.0, 20621.0, 20603.0, 20597.0, 20579.0, 20602.0, 20574.0, 20540.0, 20530.0, 20533.0, 20548.0, 20550.0]
    },
    "slices": {}
  },
  "NumberOfVolumes": 192
}