{
  "AcquisitionMatrixPE": 104,
  "AcquisitionNumber": 1,
  "AcquisitionTime": "14:48:17.442500",
  "BandwidthPerPixelPhaseEncode": 16.297,
  "BaseResolution": 104,
  "BodyPartExamined": "BRAIN",
  "ConsistencyInfo": "N4_VE11C_LATEST_20160120",
  "ConversionSoftware": "dcm2niix",
  "ConversionSoftwareVersion": "v1.0.20190902",
  "DerivedVendorReportedEchoSpacing": 0.000590009,
  "DeviceSerialNumber": "166018",
  "DwellTime": 2.1e-06,
  "EchoTime": 0.0376,
  "EchoTrainLength": 104,
  "EffectiveEchoSpacing": 0.000590009,
  "FlipAngle": 68,
  "ImageComments": "Unaliased_MB6_PE3_LB",
  "ImageOrientationPatientDICOM": [0.999456, 0.0136858, 0.0300029, -0.0146539, 0.999371, 0.0322866],
  "ImageType": [
    "ORIGINAL",
    "PRIMARY",
    "M",
    "MB",
    "ND",
    "MOSAIC"
],
  "ImagingFrequency": 123.197,
  "InPlanePhaseEncodingDirectionDICOM": "COL",
  "InstitutionAddress": "Washington_Place_6_NYC_NYC_US_10003",
  "InstitutionName": "NYU_-_CBI",
  "InstitutionalDepartmentName": "Department",
  "MRAcquisitionType": "2D",
  "MagneticFieldStrength": 3,
  "Manufacturer": "Siemens",
  "ManufacturersModelName": "Prisma",
  "Modality": "MR",
  "MultibandAccelerationFactor": 6,
  "PartialFourier": 1,
  "PatientPosition": "HFS",
  "PercentPhaseFOV": 100,
  "PhaseEncodingDirection": "j",
  "PhaseEncodingSteps": 104,
  "PhaseResolution": 1,
  "PixelBandwidth": 2290,
  "ProcedureStepDescription": "Investigators_Carrasco",
  "ProtocolName": "cmrr_mbepi_s6_2mm_66sl_PA_task-prf",
  "PulseSequenceDetails": "%CustomerSeq%_cmrr_mbep2d_bold",
  "ReceiveCoilActiveElements": "HC1-7",
  "ReceiveCoilName": "HeadNeck_64",
  "ReconMatrixPE": 104,
  "RepetitionTime": 1,
  "SAR": 0.0654235,
  "ScanOptions": "FS",
  "ScanningSequence": "EP",
  "SequenceName": "epfid2d1_104",
  "SequenceVariant": "SK_SS",
  "SeriesDescription": "cmrr_mbepi_s6_2mm_66sl_PA_task-prf",
  "SeriesNumber": 12,
  "ShimSetting": [294, -12610, -8514, 230, -30, -244, -26, 95],
  "SliceThickness": 2,
  "SliceTiming": [0, 0.535, 0.0875, 0.6225, 0.1775, 0.7125, 0.2675, 0.8, 0.355, 0.89, 0.445, 0, 0.535, 0.0875, 0.6225, 0.1775, 0.7125, 0.2675, 0.8, 0.355, 0.89, 0.445, 0, 0.535, 0.0875, 0.6225, 0.1775, 0.7125, 0.2675, 0.8, 0.355, 0.89, 0.445, 0, 0.535, 0.0875, 0.6225, 0.1775, 0.7125, 0.2675, 0.8, 0.355, 0.89, 0.445, 0, 0.535, 0.0875, 0.6225, 0.1775, 0.7125, 0.2675, 0.8, 0.355, 0.89, 0.445, 0, 0.535, 0.0875, 0.6225, 0.1775, 0.7125, 0.2675, 0.8, 0.355, 0.89, 0.445],
  "SoftwareVersions": "syngo_MR_E11",
  "SpacingBetweenSlices": 2,
  "StationName": "AWP166018",
  "TaskName": "prf",
  "TotalReadoutTime": 0.060771,
  "TxRefAmp": 203.365,
  "VendorReportedEchoSpacing": 0.00059,
  "WipMemBlock": "19114003-e36e-4142-b512-6779af250db1||Sequence: R016 ve11c/master r/8780670; Nov 27 2017 15:05:12 by eja",
  "dcmmeta_affine": [
    [-1.9989122152328491, -0.02930774912238121, 0.05908424034714699, 105.98870086669922],
    [-0.027371641248464584, 1.9987424612045288, 0.06541735678911209, -80.68510437011719],
    [0.060005709528923035, -0.06457316130399704, 1.998056411743164, -35.83408737182617],
    [0.0, 0.0, 0.0, 1.0]
],
  "dcmmeta_reorient_transform": [
    [0.0, -1.0, 0.0, 103.0],
    [1.0, 0.0, 0.0, 0.0],
    [0.0, 0.0, 1.0, 0.0],
    [0.0, 0.0, 0.0, 1.0]
],
  "dcmmeta_shape": [104, 104, 66, 192],
  "dcmmeta_slice_dim": 2,
  "dcmmeta_version": 0.6,
  "global": {
    "const": {
      "AccessionNumber": "L7e3ta5t",
      "AcquisitionMatrix": [104, 0, 0, 104],
      "AngioFlag": "N",
      "BitsAllocated": 16,
      "BitsStored": 16,
      "BodyPartExamined": "BRAIN",
      "Columns": 936,
      "EchoNumbers": 1,
      "EchoTime": 37.6,
      "EchoTrainLength": 104,
      "FlipAngle": 68.0,
      "HighBit": 15,
      "ImageOrientationPatient": [0.99945611562398, 0.01368582080421, 0.03000285404343, -0.0146538750018, 0.99937122270149, 0.03228657900072],
      "ImagePositionPatient": [-922.32547021377, -968.04883107583, -94.309932186996],
      "ImageType": [
        "ORIGINAL",
        "PRIMARY",
        "M",
        "MB",
        "ND",
        "MOSAIC"
],
      "ImagedNucleus": "1H",
      "ImagingFrequency": 123.196891,
      "InPlanePhaseEncodingDirection": "COL",
      "MRAcquisitionType": "2D",
      "MagneticFieldStrength": 3.0,
      "Manufacturer": "SIEMENS",
      "ManufacturerModelName": "Prisma",
      "Modality": "MR",
      "NumberOfAverages": 1.0,
      "NumberOfPhaseEncodingSteps": 104,
      "PercentPhaseFieldOfView": 100.0,
      "PercentSampling": 100.0,
      "PerformedProcedureStepStartTime": "142637.779000",
      "PhotometricInterpretation": "MONOCHROME2",
      "PixelBandwidth": 2290.0,
      "PixelRepresentation": 0,
      "PixelSpacing": [2.0, 2.0],
      "ProtocolName": "cmrr_mbepi_s6_2mm_66sl_PA_task-prf",
      "RepetitionTime": 1000.0,
      "Rows": 936,
      "SAR": 0.0654235015583,
      "SamplesPerPixel": 1,
      "ScanOptions": "FS",
      "ScanningSequence": "EP",
      "SequenceName": "epfid2d1_104",
      "SequenceVariant": [
        "SK",
        "SS"
],
      "SeriesDescription": "cmrr_mbepi_s6_2mm_66sl_PA_task-prf",
      "SeriesNumber": 12,
      "SeriesTime": "144932.475000",
      "SliceLocation": -35.307237966455,
      "SliceThickness": 2.0,
      "SmallestImagePixelValue": 0,
      "SoftwareVersions": "syngo MR E11",
      "SpacingBetweenSlices": 1.9999999793291,
      "SpecificCharacterSet": "ISO_IR 100",
      "StudyID": "1",
      "StudyTime": "142637.711000",
      "TransmitCoilName": "Body",
      "VariableFlipAngleFlag": "N",
      "WindowCenterWidthExplanation": "Algo1",
      "dBdt": 0.0},
    "slices": {}
  },
  "time": {
    "samples": {
      "AcquisitionNumber": [1, 2, 3, 4, 5, 6, 7, 8, 9, 10, 11, 12, 13, 14, 15, 16, 17, 18, 19, 20, 21, 22, 23, 24, 25, 26, 27, 28, 29, 30, 31, 32, 33, 34, 35, 36, 37, 38, 39, 40, 41, 42, 43, 44, 45, 46, 47, 48, 49, 50, 51, 52, 53, 54, 55, 56, 57, 58, 59, 60, 61, 62, 63, 64, 65, 66, 67, 68, 69, 70, 71, 72, 73, 74, 75, 76, 77, 78, 79, 80, 81, 82, 83, 84, 85, 86, 87, 88, 89, 90, 91, 92, 93, 94, 95, 96, 97, 98, 99, 100, 101, 102, 103, 104, 105, 106, 107, 108, 109, 110, 111, 112, 113, 114, 115, 116, 117, 118, 119, 120, 121, 122, 123, 124, 125, 126, 127, 128, 129, 130, 131, 132, 133, 134, 135, 136, 137, 138, 139, 140, 141, 142, 143, 144, 145, 146, 147, 148, 149, 150, 151, 152, 153, 154, 155, 156, 157, 158, 159, 160, 161, 162, 163, 164, 165, 166, 167, 168, 169, 170, 171, 172, 173, 174, 175, 176, 177, 178, 179, 180, 181, 182, 183, 184, 185, 186, 187, 188, 189, 190, 191, 192],
      "AcquisitionTime": ["144817.442500", "144818.442500", "144819.442500", "144820.442500", "144821.442500", "144822.442500", "144823.442500", "144824.442500", "144825.442500", "144826.442500", "144827.442500", "144828.442500", "144829.442500", "144830.442500", "144831.442500", "144832.442500", "144833.442500", "144834.442500", "144835.442500", "144836.442500", "144837.442500", "144838.442500", "144839.442500", "144840.442500", "144841.442500", "144842.442500", "144843.442500", "144844.442500", "144845.442500", "144846.442500", "144847.442500", "144848.442500", "144849.442500", "144850.442500", "144851.442500", "144852.442500", "144853.442500", "144854.442500", "144855.442500", "144856.442500", "144857.442500", "144858.442500", "144859.442500", "144900.442500", "144901.442500", "144902.442500", "144903.442500", "144904.442500", "144905.442500", "144906.442500", "144907.442500", "144908.442500", "144909.442500", "144910.442500", "144911.442500", "144912.442500", "144913.442500", "144914.442500", "144915.442500", "144916.442500", "144917.442500", "144918.442500", "144919.442500", "144920.442500", "144921.442500", "144922.442500", "144923.442500", "144924.442500", "144925.442500", "144926.442500", "144927.442500", "144928.442500", "144929.442500", "144930.442500", "144931.442500", "144932.442500", "144933.442500", "144934.442500", "144935.442500", "144936.442500", "144937.442500", "144938.442500", "144939.442500", "144940.442500", "144941.442500", "144942.442500", "144943.442500", "144944.442500", "144945.442500", "144946.442500", "144947.442500", "144948.442500", "144949.442500", "144950.442500", "144951.442500", "144952.442500", "144953.442500", "144954.442500", "144955.442500", "144956.442500", "144957.442500", "144958.442500", "144959.442500", "145000.442500", "145001.442500", "145002.442500", "145003.442500", "145004.442500", "145005.442500", "145006.442500", "145007.442500", "145008.442500", "145009.442500", "145010.442500", "145011.442500", "145012.442500", "145013.442500", "145014.442500", "145015.442500", "145016.442500", "145017.442500", "145018.442500", "145019.442500", "145020.442500", "145021.442500", "145022.442500", "145023.442500", "145024.442500", "145025.442500", "145026.442500", "145027.442500", "145028.442500", "145029.442500", "145030.442500", "145031.442500", "145032.442500", "145033.442500", "145034.442500", "145035.442500", "145036.442500", "145037.442500", "145038.442500", "145039.442500", "145040.442500", "145041.442500", "145042.442500", "145043.442500", "145044.442500", "145045.442500", "145046.442500", "145047.442500", "145048.442500", "145049.442500", "145050.442500", "145051.442500", "145052.442500", "145053.442500", "145054.442500", "145055.442500", "145056.442500", "145057.442500", "145058.442500", "145059.442500", "145100.442500", "145101.442500", "145102.442500", "145103.442500", "145104.442500", "145105.442500", "145106.442500", "145107.442500", "145108.442500", "145109.442500", "145110.442500", "145111.442500", "145112.442500", "145113.442500", "145114.442500", "145115.442500", "145116.442500", "145117.442500", "145118.442500", "145119.442500", "145120.442500", "145121.442500", "145122.442500", "145123.442500", "145124.442500", "145125.442500", "145126.442500", "145127.442500", "145128.442500"],
      "ContentTime": ["144932.477000", "144932.481000", "144932.486000", "144932.489000", "144932.492000", "144932.495000", "144932.498000", "144932.501000", "144932.504000", "144932.507000", "144932.510000", "144932.513000", "144932.516000", "144932.519000", "144932.522000", "144932.525000", "144932.528000", "144932.533000", "144932.536000", "144932.540000", "144932.544000", "144932.547000", "144932.549000", "144932.552000", "144932.556000", "144932.559000", "144932.561000", "144932.570000", "144932.573000", "144932.576000", "144932.579000", "144932.582000", "144932.585000", "144932.588000", "144932.591000", "144932.595000", "144932.598000", "144952.452000", "144952.455000", "144952.458000", "144952.461000", "144952.464000", "144952.467000", "144952.477000", "144952.479000", "144952.482000", "144952.485000", "144952.488000", "144952.491000", "144952.494000", "144952.497000", "144952.500000", "144952.503000", "144952.506000", "144952.509000", "144952.512000", "144952.515000", "144952.518000", "144952.521000", "144952.524000", "144952.527000", "144952.530000", "144952.533000", "144952.536000", "144952.540000", "145012.451000", "145012.454000", "145012.457000", "145012.460000", "145012.463000", "145012.466000", "145012.469000", "145012.472000", "145012.475000", "145012.478000", "145012.481000", "145012.484000", "145012.487000", "145012.490000", "145012.493000", "145012.495000", "145012.499000", "145012.502000", "145012.504000", "145012.508000", "145012.511000", "145012.514000", "145012.517000", "145012.519000", "145012.522000", "145012.525000", "145012.528000", "145012.531000", "145012.534000", "145032.451000", "145032.454000", "145032.457000", "145032.460000", "145032.463000", "145032.466000", "145032.469000", "145032.472000", "145032.475000", "145032.478000", "145032.481000", "145032.484000", "145032.487000", "145032.490000", "145032.493000", "145032.496000", "145032.499000", "145032.502000", "145032.505000", "145032.508000", "145032.511000", "145032.514000", "145032.517000", "145032.520000", "145032.523000", "145032.526000", "145032.528000", "145032.532000", "145052.451000", "145052.454000", "145052.457000", "145052.460000", "145052.463000", "145052.466000", "145052.469000", "145052.472000", "145052.475000", "145052.478000", "145052.481000", "145052.484000", "145052.487000", "145052.490000", "145052.493000", "145052.496000", "145052.499000", "145052.502000", "145052.505000", "145052.508000", "145052.511000", "145052.514000", "145052.517000", "145052.520000", "145052.523000", "145052.526000", "145052.529000", "145052.532000", "145112.451000", "145112.454000", "145112.457000", "145112.460000", "145112.463000", "145112.466000", "145112.469000", "145112.472000", "145112.475000", "145112.478000", "145112.481000", "145112.484000", "145112.487000", "145112.490000", "145112.493000", "145112.496000", "145112.499000", "145112.502000", "145112.505000", "145112.508000", "145112.511000", "145112.514000", "145112.517000", "145112.520000", "145129.750000", "145129.753000", "145129.756000", "145129.767000", "145129.770000", "145129.773000", "145129.776000", "145129.779000", "145129.782000", "145129.785000", "145129.788000", "145129.816000", "145129.819000", "145129.822000", "145129.825000", "145129.828000", "145129.831000", "145129.833000"],
      "InstanceCreationTime": ["144932.477000", "144932.481000", "144932.486000", "144932.489000", "144932.492000", "144932.495000", "144932.498000", "144932.501000", "144932.504000", "144932.507000", "144932.510000", "144932.513000", "144932.516000", "144932.519000", "144932.522000", "144932.525000", "144932.528000", "144932.533000", "144932.536000", "144932.540000", "144932.544000", "144932.547000", "144932.549000", "144932.552000", "144932.556000", "144932.559000", "144932.561000", "144932.570000", "144932.573000", "144932.576000", "144932.579000", "144932.582000", "144932.585000", "144932.588000", "144932.591000", "144932.595000", "144932.598000", "144952.452000", "144952.455000", "144952.458000", "144952.461000", "144952.464000", "144952.467000", "144952.477000", "144952.479000", "144952.482000", "144952.485000", "144952.488000", "144952.491000", "144952.494000", "144952.497000", "144952.500000", "144952.503000", "144952.506000", "144952.509000", "144952.512000", "144952.515000", "144952.518000", "144952.521000", "144952.524000", "144952.527000", "144952.530000", "144952.533000", "144952.536000", "144952.540000", "145012.451000", "145012.454000", "145012.457000", "145012.460000", "145012.463000", "145012.466000", "145012.469000", "145012.472000", "145012.475000", "145012.478000", "145012.481000", "145012.484000", "145012.487000", "145012.490000", "145012.493000", "145012.495000", "145012.499000", "145012.502000", "145012.504000", "145012.508000", "145012.511000", "145012.514000", "145012.517000", "145012.519000", "145012.522000", "145012.525000", "145012.528000", "145012.531000", "145012.534000", "145032.451000", "145032.454000", "145032.457000", "145032.460000", "145032.463000", "145032.466000", "145032.469000", "145032.472000", "145032.475000", "145032.478000", "145032.481000", "145032.484000", "145032.487000", "145032.490000", "145032.493000", "145032.496000", "145032.499000", "145032.502000", "145032.505000", "145032.508000", "145032.511000", "145032.514000", "145032.517000", "145032.520000", "145032.523000", "145032.526000", "145032.528000", "145032.532000", "145052.451000", "145052.454000", "145052.457000", "145052.460000", "145052.463000", "145052.466000", "145052.469000", "145052.472000", "145052.475000", "145052.478000", "145052.481000", "145052.484000", "145052.487000", "145052.490000", "145052.493000", "145052.496000", "145052.499000", "145052.502000", "145052.505000", "145052.508000", "145052.511000", "145052.514000", "145052.517000", "145052.520000", "145052.523000", "145052.526000", "145052.529000", "145052.532000", "145112.451000", "145112.454000", "145112.457000", "145112.460000", "145112.463000", "145112.466000", "145112.469000", "145112.472000", "145112.475000", "145112.478000", "145112.481000", "145112.484000", "145112.487000", "145112.490000", "145112.493000", "145112.496000", "145112.499000", "145112.502000", "145112.505000", "145112.508000", "145112.511000", "145112.514000", "145112.517000", "145112.520000", "145129.750000", "145129.753000", "145129.756000", "145129.767000", "145129.770000", "145129.773000", "145129.776000", "145129.779000", "145129.782000", "145129.785000", "145129.788000", "145129.816000", "145129.819000", "145129.822000", "145129.825000", "145129.828000", "145129.831000", "145129.833000"],
      "InstanceNumber": [1, 2, 3, 4, 5, 6, 7, 8, 9, 10, 11, 12, 13, 14, 15, 16, 17, 18, 19, 20, 21, 22, 23, 24, 25, 26, 27, 28, 29, 30, 31, 32, 33, 34, 35, 36, 37, 38, 39, 40, 41, 42, 43, 44, 45, 46, 47, 48, 49, 50, 51, 52, 53, 54, 55, 56, 57, 58, 59, 60, 61, 62, 63, 64, 65, 66, 67, 68, 69, 70, 71, 72, 73, 74, 75, 76, 77, 78, 79, 80, 81, 82, 83, 84, 85, 86, 87, 88, 89, 90, 91, 92, 93, 94, 95, 96, 97, 98, 99, 100, 101, 102, 103, 104, 105, 106, 107, 108, 109, 110, 111, 112, 113, 114, 115, 116, 117, 118, 119, 120, 121, 122, 123, 124, 125, 126, 127, 128, 129, 130, 131, 132, 133, 134, 135, 136, 137, 138, 139, 140, 141, 142, 143, 144, 145, 146, 147, 148, 149, 150, 151, 152, 153, 154, 155, 156, 157, 158, 159, 160, 161, 162, 163, 164, 165, 166, 167, 168, 169, 170, 171, 172, 173, 174, 175, 176, 177, 178, 179, 180, 181, 182, 183, 184, 185, 186, 187, 188, 189, 190, 191, 192],
      "LargestImagePixelValue": [38687, 37850, 36819, 36612, 36644, 36192, 35923, 36072, 36239, 36210, 36094, 36199, 36002, 36488, 35928, 35777, 36432, 36409, 36307, 35796, 36035, 35996, 36427, 36247, 35463, 36061, 36267, 36301, 36514, 36497, 35885, 35964, 35315, 36027, 36338, 35973, 36244, 36074, 36368, 35780, 35986, 35856, 36052, 35970, 35568, 36266, 35878, 36101, 35764, 36065, 35851, 35933, 36121, 35974, 36071, 36425, 35696, 36060, 36199, 35762, 35717, 36003, 36301, 36098, 35550, 36254, 36067, 36151, 35964, 35719, 35916, 36023, 35901, 35997, 36162, 35766, 35636, 35186, 35036, 35841, 36215, 35798, 35668, 35974, 35713, 36133, 35859, 35859, 35699, 35936, 36102, 35832, 36071, 35605, 35651, 36039, 36167, 36363, 36037, 36021, 36666, 36300, 35748, 35589, 35677, 35866, 35950, 35945, 35682, 36185, 35733, 36108, 36468, 36301, 35825, 35728, 35853, 36160, 35905, 35742, 35565, 36161, 35834, 36114, 36544, 36062, 36267, 35850, 35694, 36113, 36165, 36284, 35996, 36462, 35962, 35398, 35845, 35731, 35862, 35690, 35991, 35924, 36195, 36105, 35865, 36054, 35752, 36010, 36333, 36283, 36111, 36363, 35946, 36164, 35799, 36036, 36038, 35902, 35527, 35922, 35468, 36443, 35959, 35924, 36059, 36415, 35963, 35794, 35907, 35854, 35911, 35503, 35757, 35664, 36077, 36154, 35971, 35490, 35645, 36041, 35853, 35901, 36015, 35869, 35966, 35404, 35777, 35834, 35892, 35587, 35795, 35896],
      "WindowCenter": [9818.0, 9800.0, 9777.0, 9784.0, 9792.0, 9777.0, 9764.0, 9765.0, 9759.0, 9745.0, 9750.0, 9748.0, 9759.0, 9765.0, 9759.0, 9761.0, 9767.0, 9758.0, 9757.0, 9754.0, 9758.0, 9752.0, 9764.0, 9751.0, 9747.0, 9758.0, 9756.0, 9752.0, 9750.0, 9749.0, 9747.0, 9744.0, 9733.0, 9743.0, 9757.0, 9762.0, 9776.0, 9777.0, 9784.0, 9770.0, 9775.0, 9768.0, 9761.0, 9752.0, 9748.0, 9752.0, 9745.0, 9752.0, 9761.0, 9760.0, 9761.0, 9758.0, 9757.0, 9746.0, 9735.0, 9733.0, 9725.0, 9731.0, 9728.0, 9738.0, 9737.0, 9741.0, 9743.0, 9740.0, 9736.0, 9743.0, 9750.0, 9753.0, 9752.0, 9760.0, 9762.0, 9768.0, 9767.0, 9760.0, 9752.0, 9739.0, 9731.0, 9746.0, 9739.0, 9767.0, 9771.0, 9763.0, 9763.0, 9755.0, 9753.0, 9753.0, 9758.0, 9754.0, 9762.0, 9761.0, 9767.0, 9773.0, 9766.0, 9751.0, 9743.0, 9737.0, 9735.0, 9748.0, 9752.0, 9761.0, 9771.0, 9770.0, 9756.0, 9743.0, 9728.0, 9723.0, 9721.0, 9736.0, 9754.0, 9783.0, 9793.0, 9797.0, 9793.0, 9777.0, 9759.0, 9745.0, 9736.0, 9727.0, 9721.0, 9728.0, 9723.0, 9720.0, 9719.0, 9727.0, 9741.0, 9752.0, 9752.0, 9740.0, 9746.0, 9739.0, 9736.0, 9729.0, 9736.0, 9749.0, 9750.0, 9739.0, 9744.0, 9729.0, 9730.0, 9724.0, 9723.0, 9723.0, 9727.0, 9735.0, 9728.0, 9742.0, 9737.0, 9744.0, 9744.0, 9743.0, 9752.0, 9758.0, 9757.0, 9759.0, 9755.0, 9761.0, 9760.0, 9770.0, 9771.0, 9778.0, 9781.0, 9782.0, 9768.0, 9753.0, 9737.0, 9736.0, 9728.0, 9730.0, 9737.0, 9738.0, 9738.0, 9724.0, 9719.0, 9712.0, 9720.0, 9727.0, 9734.0, 9730.0, 9733.0, 9744.0, 9741.0, 9748.0, 9747.0, 9753.0, 9758.0, 9766.0, 9758.0, 9758.0, 9749.0, 9749.0, 9746.0, 9739.0],
      "WindowWidth": [20886.0, 20838.0, 20783.0, 20795.0, 20814.0, 20774.0, 20746.0, 20745.0, 20727.0, 20699.0, 20704.0, 20703.0, 20730.0, 20742.0, 20730.0, 20735.0, 20747.0, 20724.0, 20731.0, 20722.0, 20727.0, 20716.0, 20739.0, 20710.0, 20709.0, 20724.0, 20720.0, 20715.0, 20705.0, 20704.0, 20705.0, 20695.0, 20678.0, 20693.0, 20722.0, 20738.0, 20771.0, 20772.0, 20792.0, 20757.0, 20765.0, 20751.0, 20734.0, 20713.0, 20708.0, 20712.0, 20696.0, 20718.0, 20741.0, 20734.0, 20735.0, 20730.0, 20725.0, 20702.0, 20675.0, 20665.0, 20650.0, 20663.0, 20658.0, 20681.0, 20679.0, 20686.0, 20689.0, 20682.0, 20679.0, 20694.0, 20714.0, 20717.0, 20715.0, 20735.0, 20741.0, 20751.0, 20751.0, 20734.0, 20714.0, 20689.0, 20670.0, 20709.0, 20691.0, 20754.0, 20764.0, 20746.0, 20745.0, 20728.0, 20720.0, 20720.0, 20732.0, 20721.0, 20740.0, 20737.0, 20749.0, 20765.0, 20750.0, 20716.0, 20692.0, 20674.0, 20669.0, 20699.0, 20712.0, 20734.0, 20755.0, 20757.0, 20728.0, 20697.0, 20660.0, 20646.0, 20639.0, 20678.0, 20721.0, 20785.0, 20814.0, 20825.0, 20811.0, 20770.0, 20736.0, 20695.0, 20678.0, 20650.0, 20642.0, 20657.0, 20647.0, 20636.0, 20635.0, 20652.0, 20687.0, 20711.0, 20714.0, 20686.0, 20698.0, 20685.0, 20676.0, 20660.0, 20677.0, 20703.0, 20707.0, 20689.0, 20696.0, 20660.0, 20663.0, 20650.0, 20646.0, 20650.0, 20652.0, 20676.0, 20656.0, 20685.0, 20677.0, 20697.0, 20692.0, 20691.0, 20713.0, 20728.0, 20729.0, 20730.0, 20726.0, 20737.0, 20735.0, 20758.0, 20763.0, 20778.0, 20791.0, 20783.0, 20751.0, 20717.0, 20678.0, 20672.0, 20656.0, 20664.0, 20680.0, 20684.0, 20678.0, 20650.0, 20635.0, 20618.0, 20639.0, 20654.0, 20670.0, 20662.0, 20668.0, 20690.0, 20688.0, 20704.0, 20704.0, 20713.0, 20729.0, 20750.0, 20732.0, 20734.0, 20709.0, 20711.0, 20697.0, 20686.0]
    },
    "slices": {}
  },
  "NumberOfVolumes": 192
}