{
  "AcquisitionMatrixPE": 104,
  "AcquisitionNumber": 1,
  "AcquisitionTime": "14:56:34.475000",
  "BandwidthPerPixelPhaseEncode": 16.297,
  "BaseResolution": 104,
  "BodyPartExamined": "BRAIN",
  "ConsistencyInfo": "N4_VE11C_LATEST_20160120",
  "ConversionSoftware": "dcm2niix",
  "ConversionSoftwareVersion": "v1.0.20190902",
  "DerivedVendorReportedEchoSpacing": 0.000590009,
  "DeviceSerialNumber": "166018",
  "DwellTime": 2.1e-06,
  "EchoTime": 0.0376,
  "EchoTrainLength": 104,
  "EffectiveEchoSpacing": 0.000590009,
  "FlipAngle": 68,
  "ImageComments": "Unaliased_MB6_PE3_LB",
  "ImageOrientationPatientDICOM": [0.999456, 0.0136858, 0.0300029, -0.0146539, 0.999371, 0.0322866],
  "ImageType": [
    "ORIGINAL",
    "PRIMARY",
    "M",
    "MB",
    "ND",
    "MOSAIC"
],
  "ImagingFrequency": 123.197,
  "InPlanePhaseEncodingDirectionDICOM": "COL",
  "InstitutionAddress": "Washington_Place_6_NYC_NYC_US_10003",
  "InstitutionName": "NYU_-_CBI",
  "InstitutionalDepartmentName": "Department",
  "MRAcquisitionType": "2D",
  "MagneticFieldStrength": 3,
  "Manufacturer": "Siemens",
  "ManufacturersModelName": "Prisma",
  "Modality": "MR",
  "MultibandAccelerationFactor": 6,
  "PartialFourier": 1,
  "PatientPosition": "HFS",
  "PercentPhaseFOV": 100,
  "PhaseEncodingDirection": "j",
  "PhaseEncodingSteps": 104,
  "PhaseResolution": 1,
  "PixelBandwidth": 2290,
  "ProcedureStepDescription": "Investigators_Carrasco",
  "ProtocolName": "cmrr_mbepi_s6_2mm_66sl_PA_task-prf",
  "PulseSequenceDetails": "%CustomerSeq%_cmrr_mbep2d_bold",
  "ReceiveCoilActiveElements": "HC1-7",
  "ReceiveCoilName": "HeadNeck_64",
  "ReconMatrixPE": 104,
  "RepetitionTime": 1,
  "SAR": 0.0654235,
  "ScanOptions": "FS",
  "ScanningSequence": "EP",
  "SequenceName": "epfid2d1_104",
  "SequenceVariant": "SK_SS",
  "SeriesDescription": "cmrr_mbepi_s6_2mm_66sl_PA_task-prf",
  "SeriesNumber": 16,
  "ShimSetting": [294, -12610, -8514, 230, -30, -244, -26, 95],
  "SliceThickness": 2,
  "SliceTiming": [0, 0.535, 0.09, 0.625, 0.18, 0.7125, 0.2675, 0.8025, 0.3575, 0.8925, 0.4475, 0, 0.535, 0.09, 0.625, 0.18, 0.7125, 0.2675, 0.8025, 0.3575, 0.8925, 0.4475, 0, 0.535, 0.09, 0.625, 0.18, 0.7125, 0.2675, 0.8025, 0.3575, 0.8925, 0.4475, 0, 0.535, 0.09, 0.625, 0.18, 0.7125, 0.2675, 0.8025, 0.3575, 0.8925, 0.4475, 0, 0.535, 0.09, 0.625, 0.18, 0.7125, 0.2675, 0.8025, 0.3575, 0.8925, 0.4475, 0, 0.535, 0.09, 0.625, 0.18, 0.7125, 0.2675, 0.8025, 0.3575, 0.8925, 0.4475],
  "SoftwareVersions": "syngo_MR_E11",
  "SpacingBetweenSlices": 2,
  "StationName": "AWP166018",
  "TaskName": "prf",
  "TotalReadoutTime": 0.060771,
  "TxRefAmp": 203.365,
  "VendorReportedEchoSpacing": 0.00059,
  "WipMemBlock": "19114003-e36e-4142-b512-6779af250db1||Sequence: R016 ve11c/master r/8780670; Nov 27 2017 15:05:12 by eja",
  "dcmmeta_affine": [
    [-1.9989122152328491, -0.02930774912238121, 0.05908424034714699, 105.98870086669922],
    [-0.027371641248464584, 1.9987424612045288, 0.06541735678911209, -80.68510437011719],
    [0.060005709528923035, -0.06457316130399704, 1.998056411743164, -35.83408737182617],
    [0.0, 0.0, 0.0, 1.0]
],
  "dcmmeta_reorient_transform": [
    [0.0, -1.0, 0.0, 103.0],
    [1.0, 0.0, 0.0, 0.0],
    [0.0, 0.0, 1.0, 0.0],
    [0.0, 0.0, 0.0, 1.0]
],
  "dcmmeta_shape": [104, 104, 66, 192],
  "dcmmeta_slice_dim": 2,
  "dcmmeta_version": 0.6,
  "global": {
    "const": {
      "AccessionNumber": "L7e3ta5t",
      "AcquisitionMatrix": [104, 0, 0, 104],
      "AngioFlag": "N",
      "BitsAllocated": 16,
      "BitsStored": 16,
      "BodyPartExamined": "BRAIN",
      "Columns": 936,
      "EchoNumbers": 1,
      "EchoTime": 37.6,
      "EchoTrainLength": 104,
      "FlipAngle": 68.0,
      "HighBit": 15,
      "ImageOrientationPatient": [0.99945611562398, 0.01368582080421, 0.03000285404343, -0.0146538750018, 0.99937122270149, 0.03228657900072],
      "ImagePositionPatient": [-922.32547021377, -968.04883107583, -94.309932186996],
      "ImageType": [
        "ORIGINAL",
        "PRIMARY",
        "M",
        "MB",
        "ND",
        "MOSAIC"
],
      "ImagedNucleus": "1H",
      "ImagingFrequency": 123.196891,
      "InPlanePhaseEncodingDirection": "COL",
      "MRAcquisitionType": "2D",
      "MagneticFieldStrength": 3.0,
      "Manufacturer": "SIEMENS",
      "ManufacturerModelName": "Prisma",
      "Modality": "MR",
      "NumberOfAverages": 1.0,
      "NumberOfPhaseEncodingSteps": 104,
      "PercentPhaseFieldOfView": 100.0,
      "PercentSampling": 100.0,
      "PerformedProcedureStepStartTime": "142637.779000",
      "PhotometricInterpretation": "MONOCHROME2",
      "PixelBandwidth": 2290.0,
      "PixelRepresentation": 0,
      "PixelSpacing": [2.0, 2.0],
      "ProtocolName": "cmrr_mbepi_s6_2mm_66sl_PA_task-prf",
      "RepetitionTime": 1000.0,
      "Rows": 936,
      "SAR": 0.0654235015583,
      "SamplesPerPixel": 1,
      "ScanOptions": "FS",
      "ScanningSequence": "EP",
      "SequenceName": "epfid2d1_104",
      "SequenceVariant": [
        "SK",
        "SS"
],
      "SeriesDescription": "cmrr_mbepi_s6_2mm_66sl_PA_task-prf",
      "SeriesNumber": 16,
      "SeriesTime": "145752.404000",
      "SliceLocation": -35.307237966455,
      "SliceThickness": 2.0,
      "SmallestImagePixelValue": 0,
      "SoftwareVersions": "syngo MR E11",
      "SpacingBetweenSlices": 1.9999999793291,
      "SpecificCharacterSet": "ISO_IR 100",
      "StudyID": "1",
      "StudyTime": "142637.711000",
      "TransmitCoilName": "Body",
      "VariableFlipAngleFlag": "N",
      "WindowCenterWidthExplanation": "Algo1",
      "dBdt": 0.0},
    "slices": {}
  },
  "time": {
    "samples": {
      "AcquisitionNumber": [1, 2, 3, 4, 5, 6, 7, 8, 9, 10, 11, 12, 13, 14, 15, 16, 17, 18, 19, 20, 21, 22, 23, 24, 25, 26, 27, 28, 29, 30, 31, 32, 33, 34, 35, 36, 37, 38, 39, 40, 41, 42, 43, 44, 45, 46, 47, 48, 49, 50, 51, 52, 53, 54, 55, 56, 57, 58, 59, 60, 61, 62, 63, 64, 65, 66, 67, 68, 69, 70, 71, 72, 73, 74, 75, 76, 77, 78, 79, 80, 81, 82, 83, 84, 85, 86, 87, 88, 89, 90, 91, 92, 93, 94, 95, 96, 97, 98, 99, 100, 101, 102, 103, 104, 105, 106, 107, 108, 109, 110, 111, 112, 113, 114, 115, 116, 117, 118, 119, 120, 121, 122, 123, 124, 125, 126, 127, 128, 129, 130, 131, 132, 133, 134, 135, 136, 137, 138, 139, 140, 141, 142, 143, 144, 145, 146, 147, 148, 149, 150, 151, 152, 153, 154, 155, 156, 157, 158, 159, 160, 161, 162, 163, 164, 165, 166, 167, 168, 169, 170, 171, 172, 173, 174, 175, 176, 177, 178, 179, 180, 181, 182, 183, 184, 185, 186, 187, 188, 189, 190, 191, 192],
      "AcquisitionTime": ["145634.475000", "145635.475000", "145636.475000", "145637.475000", "145638.475000", "145639.475000", "145640.475000", "145641.475000", "145642.475000", "145643.475000", "145644.475000", "145645.475000", "145646.475000", "145647.475000", "145648.475000", "145649.475000", "145650.475000", "145651.475000", "145652.475000", "145653.475000", "145654.475000", "145655.475000", "145656.475000", "145657.475000", "145658.475000", "145659.475000", "145700.475000", "145701.475000", "145702.475000", "145703.475000", "145704.475000", "145705.475000", "145706.475000", "145707.475000", "145708.475000", "145709.475000", "145710.475000", "145711.475000", "145712.475000", "145713.475000", "145714.475000", "145715.475000", "145716.475000", "145717.475000", "145718.475000", "145719.475000", "145720.475000", "145721.475000", "145722.475000", "145723.475000", "145724.475000", "145725.475000", "145726.475000", "145727.475000", "145728.475000", "145729.475000", "145730.475000", "145731.475000", "145732.475000", "145733.475000", "145734.475000", "145735.475000", "145736.475000", "145737.475000", "145738.475000", "145739.475000", "145740.475000", "145741.475000", "145742.475000", "145743.475000", "145744.475000", "145745.475000", "145746.475000", "145747.475000", "145748.475000", "145749.475000", "145750.475000", "145751.475000", "145752.475000", "145753.475000", "145754.475000", "145755.475000", "145756.475000", "145757.475000", "145758.475000", "145759.475000", "145800.475000", "145801.475000", "145802.475000", "145803.475000", "145804.475000", "145805.475000", "145806.475000", "145807.475000", "145808.475000", "145809.475000", "145810.475000", "145811.475000", "145812.475000", "145813.475000", "145814.475000", "145815.475000", "145816.475000", "145817.475000", "145818.475000", "145819.475000", "145820.475000", "145821.475000", "145822.475000", "145823.475000", "145824.475000", "145825.475000", "145826.475000", "145827.475000", "145828.475000", "145829.475000", "145830.475000", "145831.475000", "145832.475000", "145833.475000", "145834.475000", "145835.475000", "145836.475000", "145837.475000", "145838.475000", "145839.475000", "145840.475000", "145841.475000", "145842.475000", "145843.475000", "145844.475000", "145845.475000", "145846.475000", "145847.475000", "145848.475000", "145849.475000", "145850.475000", "145851.475000", "145852.475000", "145853.475000", "145854.475000", "145855.475000", "145856.475000", "145857.475000", "145858.475000", "145859.475000", "145900.475000", "145901.475000", "145902.475000", "145903.475000", "145904.475000", "145905.475000", "145906.475000", "145907.475000", "145908.475000", "145909.475000", "145910.475000", "145911.475000", "145912.475000", "145913.475000", "145914.475000", "145915.475000", "145916.475000", "145917.475000", "145918.475000", "145919.475000", "145920.475000", "145921.475000", "145922.475000", "145923.475000", "145924.475000", "145925.475000", "145926.475000", "145927.475000", "145928.475000", "145929.475000", "145930.475000", "145931.475000", "145932.475000", "145933.475000", "145934.475000", "145935.475000", "145936.475000", "145937.475000", "145938.475000", "145939.475000", "145940.475000", "145941.475000", "145942.475000", "145943.475000", "145944.475000", "145945.475000"],
      "ContentTime": ["145752.407000", "145752.410000", "145752.413000", "145752.419000", "145752.422000", "145752.425000", "145752.428000", "145752.430000", "145752.434000", "145752.437000", "145752.440000", "145752.443000", "145752.446000", "145752.449000", "145752.452000", "145752.454000", "145752.458000", "145752.461000", "145752.463000", "145752.466000", "145752.471000", "145752.474000", "145752.477000", "145752.480000", "145752.483000", "145752.486000", "145752.489000", "145752.492000", "145752.495000", "145752.498000", "145752.501000", "145752.504000", "145752.507000", "145752.510000", "145752.513000", "145752.516000", "145752.519000", "145752.522000", "145752.525000", "145812.378000", "145812.381000", "145812.384000", "145812.387000", "145812.401000", "145812.404000", "145812.407000", "145812.410000", "145812.413000", "145812.416000", "145812.423000", "145812.432000", "145812.435000", "145812.438000", "145812.441000", "145812.444000", "145812.447000", "145812.450000", "145812.453000", "145812.456000", "145812.459000", "145812.462000", "145812.465000", "145812.468000", "145812.471000", "145812.474000", "145812.477000", "145812.480000", "145832.379000", "145832.382000", "145832.385000", "145832.388000", "145832.391000", "145832.400000", "145832.403000", "145832.406000", "145832.409000", "145832.412000", "145832.415000", "145832.418000", "145832.421000", "145832.424000", "145832.427000", "145832.430000", "145832.433000", "145832.436000", "145832.439000", "145832.442000", "145832.445000", "145832.448000", "145832.451000", "145832.454000", "145832.457000", "145832.460000", "145832.463000", "145832.466000", "145852.379000", "145852.382000", "145852.385000", "145852.388000", "145852.391000", "145852.394000", "145852.397000", "145852.400000", "145852.403000", "145852.406000", "145852.416000", "145852.419000", "145852.422000", "145852.425000", "145852.428000", "145852.431000", "145852.434000", "145852.437000", "145852.440000", "145852.443000", "145852.446000", "145852.449000", "145852.452000", "145852.455000", "145852.458000", "145852.461000", "145852.464000", "145852.467000", "145852.470000", "145912.379000", "145912.382000", "145912.385000", "145912.388000", "145912.391000", "145912.394000", "145912.397000", "145912.400000", "145912.403000", "145912.406000", "145912.409000", "145912.412000", "145912.415000", "145912.418000", "145912.421000", "145912.424000", "145912.427000", "145912.430000", "145912.433000", "145912.436000", "145912.439000", "145912.442000", "145912.445000", "145912.448000", "145912.451000", "145912.454000", "145912.457000", "145912.460000", "145932.378000", "145932.381000", "145932.384000", "145932.387000", "145932.390000", "145932.393000", "145932.396000", "145932.399000", "145932.402000", "145932.409000", "145932.412000", "145932.415000", "145932.418000", "145932.421000", "145932.424000", "145932.427000", "145932.430000", "145932.433000", "145932.436000", "145932.439000", "145932.442000", "145932.454000", "145932.457000", "145932.460000", "145932.463000", "145947.197000", "145947.203000", "145947.206000", "145947.211000", "145947.222000", "145947.226000", "145947.230000", "145947.234000", "145947.237000", "145947.240000", "145947.245000", "145947.249000", "145947.252000", "145947.255000", "145947.261000"],
      "InstanceCreationTime": ["145752.407000", "145752.410000", "145752.413000", "145752.419000", "145752.422000", "145752.425000", "145752.428000", "145752.430000", "145752.434000", "145752.437000", "145752.440000", "145752.443000", "145752.446000", "145752.449000", "145752.452000", "145752.454000", "145752.458000", "145752.461000", "145752.463000", "145752.466000", "145752.471000", "145752.474000", "145752.477000", "145752.480000", "145752.483000", "145752.486000", "145752.489000", "145752.492000", "145752.495000", "145752.498000", "145752.501000", "145752.504000", "145752.507000", "145752.510000", "145752.513000", "145752.516000", "145752.519000", "145752.522000", "145752.525000", "145812.378000", "145812.381000", "145812.384000", "145812.387000", "145812.401000", "145812.404000", "145812.407000", "145812.410000", "145812.413000", "145812.416000", "145812.423000", "145812.432000", "145812.435000", "145812.438000", "145812.441000", "145812.444000", "145812.447000", "145812.450000", "145812.453000", "145812.456000", "145812.459000", "145812.462000", "145812.465000", "145812.468000", "145812.471000", "145812.474000", "145812.477000", "145812.480000", "145832.379000", "145832.382000", "145832.385000", "145832.388000", "145832.391000", "145832.400000", "145832.403000", "145832.406000", "145832.409000", "145832.412000", "145832.415000", "145832.418000", "145832.421000", "145832.424000", "145832.427000", "145832.430000", "145832.433000", "145832.436000", "145832.439000", "145832.442000", "145832.445000", "145832.448000", "145832.451000", "145832.454000", "145832.457000", "145832.460000", "145832.463000", "145832.466000", "145852.379000", "145852.382000", "145852.385000", "145852.388000", "145852.391000", "145852.394000", "145852.397000", "145852.400000", "145852.403000", "145852.406000", "145852.416000", "145852.419000", "145852.422000", "145852.425000", "145852.428000", "145852.431000", "145852.434000", "145852.437000", "145852.440000", "145852.443000", "145852.446000", "145852.449000", "145852.452000", "145852.455000", "145852.458000", "145852.461000", "145852.464000", "145852.467000", "145852.470000", "145912.379000", "145912.382000", "145912.385000", "145912.388000", "145912.391000", "145912.394000", "145912.397000", "145912.400000", "145912.403000", "145912.406000", "145912.409000", "145912.412000", "145912.415000", "145912.418000", "145912.421000", "145912.424000", "145912.427000", "145912.430000", "145912.433000", "145912.436000", "145912.439000", "145912.442000", "145912.445000", "145912.448000", "145912.451000", "145912.454000", "145912.457000", "145912.460000", "145932.378000", "145932.381000", "145932.384000", "145932.387000", "145932.390000", "145932.393000", "145932.396000", "145932.399000", "145932.402000", "145932.409000", "145932.412000", "145932.415000", "145932.418000", "145932.421000", "145932.424000", "145932.427000", "145932.430000", "145932.433000", "145932.436000", "145932.439000", "145932.442000", "145932.454000", "145932.457000", "145932.460000", "145932.463000", "145947.197000", "145947.203000", "145947.206000", "145947.211000", "145947.222000", "145947.226000", "145947.230000", "145947.234000", "145947.237000", "145947.240000", "145947.245000", "145947.249000", "145947.252000", "145947.255000", "145947.261000"],
      "InstanceNumber": [1, 2, 3, 4, 5, 6, 7, 8, 9, 10, 11, 12, 13, 14, 15, 16, 17, 18, 19, 20, 21, 22, 23, 24, 25, 26, 27, 28, 29, 30, 31, 32, 33, 34, 35, 36, 37, 38, 39, 40, 41, 42, 43, 44, 45, 46, 47, 48, 49, 50, 51, 52, 53, 54, 55, 56, 57, 58, 59, 60, 61, 62, 63, 64, 65, 66, 67, 68, 69, 70, 71, 72, 73, 74, 75, 76, 77, 78, 79, 80, 81, 82, 83, 84, 85, 86, 87, 88, 89, 90, 91, 92, 93, 94, 95, 96, 97, 98, 99, 100, 101, 102, 103, 104, 105, 106, 107, 108, 109, 110, 111, 112, 113, 114, 115, 116, 117, 118, 119, 120, 121, 122, 123, 124, 125, 126, 127, 128, 129, 130, 131, 132, 133, 134, 135, 136, 137, 138, 139, 140, 141, 142, 143, 144, 145, 146, 147, 148, 149, 150, 151, 152, 153, 154, 155, 156, 157, 158, 159, 160, 161, 162, 163, 164, 165, 166, 167, 168, 169, 170, 171, 172, 173, 174, 175, 176, 177, 178, 179, 180, 181, 182, 183, 184, 185, 186, 187, 188, 189, 190, 191, 192],
      "LargestImagePixelValue": [37822, 37031, 36139, 35969, 36135, 35596, 35416, 35919, 35716, 35721, 35782, 35470, 35326, 35574, 36131, 35478, 35513, 35873, 35599, 35260, 35185, 35717, 35227, 35345, 35202, 35189, 35746, 35324, 35525, 35569, 35445, 35287, 35248, 35058, 35227, 35584, 35372, 35461, 34939, 35570, 35393, 35239, 35186, 35077, 35596, 34714, 35394, 35124, 35117, 35327, 35157, 35140, 35361, 35645, 35465, 34992, 35295, 34853, 35094, 35352, 35150, 35200, 35153, 34894, 35211, 35017, 34944, 35523, 35080, 34894, 34882, 35134, 34851, 34820, 34997, 35185, 34991, 35218, 35041, 34783, 35071, 34628, 34904, 34702, 35153, 35208, 35402, 35126, 34798, 35320, 34966, 35000, 34787, 34705, 34917, 35200, 35000, 34959, 34926, 35330, 34827, 34936, 35325, 34647, 34747, 35083, 34903, 34813, 34862, 35069, 35048, 35174, 34732, 34859, 35329, 34853, 35179, 34552, 34744, 35076, 34919, 34597, 34615, 34618, 34681, 35095, 35010, 34909, 34992, 35084, 34955, 34929, 34853, 34679, 34873, 34458, 34550, 34316, 35039, 35103, 34826, 35090, 35090, 35422, 34850, 35146, 35124, 35058, 34645, 34386, 34987, 34963, 34530, 34330, 34616, 34929, 34696, 35045, 35375, 35579, 35159, 34843, 34486, 34672, 34564, 34608, 34555, 34308, 34826, 34736, 34802, 35233, 35078, 35099, 34809, 34352, 34928, 34692, 35199, 34682, 34741, 34812, 34802, 34857, 34884, 35450, 35040, 34708, 34420, 34707, 34977, 34943],
      "WindowCenter": [9825.0, 9784.0, 9760.0, 9750.0, 9757.0, 9743.0, 9749.0, 9807.0, 9773.0, 9769.0, 9777.0, 9765.0, 9758.0, 9764.0, 9768.0, 9750.0, 9745.0, 9754.0, 9749.0, 9756.0, 9760.0, 9761.0, 9758.0, 9748.0, 9756.0, 9750.0, 9766.0, 9765.0, 9769.0, 9764.0, 9763.0, 9768.0, 9774.0, 9785.0, 9790.0, 9791.0, 9791.0, 9787.0, 9775.0, 9783.0, 9780.0, 9773.0, 9767.0, 9750.0, 9754.0, 9744.0, 9760.0, 9771.0, 9781.0, 9783.0, 9782.0, 9778.0, 9764.0, 9755.0, 9755.0, 9742.0, 9733.0, 9725.0, 9730.0, 9730.0, 9730.0, 9742.0, 9756.0, 9750.0, 9758.0, 9768.0, 9769.0, 9779.0, 9783.0, 9780.0, 9780.0, 9785.0, 9778.0, 9784.0, 9789.0, 9793.0, 9781.0, 9785.0, 9788.0, 9779.0, 9782.0, 9775.0, 9780.0, 9772.0, 9775.0, 9768.0, 9765.0, 9769.0, 9755.0, 9758.0, 9752.0, 9753.0, 9758.0, 9748.0, 9760.0, 9762.0, 9769.0, 9765.0, 9762.0, 9767.0, 9761.0, 9753.0, 9757.0, 9747.0, 9743.0, 9742.0, 9745.0, 9761.0, 9777.0, 9792.0, 9786.0, 9778.0, 9774.0, 9763.0, 9768.0, 9763.0, 9768.0, 9766.0, 9778.0, 9772.0, 9780.0, 9782.0, 9783.0, 9783.0, 9775.0, 9786.0, 9790.0, 9782.0, 9773.0, 9777.0, 9756.0, 9752.0, 9761.0, 9763.0, 9771.0, 9771.0, 9771.0, 9751.0, 9746.0, 9753.0, 9738.0, 9741.0, 9734.0, 9735.0, 9728.0, 9737.0, 9751.0, 9761.0, 9753.0, 9738.0, 9747.0, 9755.0, 9757.0, 9759.0, 9757.0, 9757.0, 9754.0, 9760.0, 9774.0, 9783.0, 9786.0, 9789.0, 9782.0, 9775.0, 9771.0, 9758.0, 9757.0, 9741.0, 9747.0, 9747.0, 9754.0, 9754.0, 9754.0, 9761.0, 9766.0, 9761.0, 9757.0, 9745.0, 9753.0, 9758.0, 9778.0, 9780.0, 9779.0, 9774.0, 9772.0, 9768.0, 9763.0, 9741.0, 9732.0, 9737.0, 9745.0, 9762.0],
      "WindowWidth": [20908.0, 20804.0, 20741.0, 20716.0, 20730.0, 20700.0, 20712.0, 20850.0, 20768.0, 20758.0, 20782.0, 20752.0, 20735.0, 20750.0, 20754.0, 20715.0, 20699.0, 20717.0, 20712.0, 20727.0, 20741.0, 20735.0, 20735.0, 20710.0, 20731.0, 20719.0, 20746.0, 20755.0, 20758.0, 20750.0, 20744.0, 20762.0, 20776.0, 20804.0, 20813.0, 20816.0, 20819.0, 20804.0, 20779.0, 20793.0, 20783.0, 20770.0, 20754.0, 20715.0, 20725.0, 20706.0, 20738.0, 20769.0, 20792.0, 20801.0, 20793.0, 20783.0, 20748.0, 20724.0, 20724.0, 20697.0, 20674.0, 20656.0, 20669.0, 20666.0, 20669.0, 20698.0, 20731.0, 20719.0, 20736.0, 20764.0, 20764.0, 20783.0, 20801.0, 20792.0, 20792.0, 20803.0, 20788.0, 20801.0, 20815.0, 20819.0, 20793.0, 20800.0, 20809.0, 20791.0, 20793.0, 20782.0, 20790.0, 20774.0, 20773.0, 20757.0, 20750.0, 20763.0, 20730.0, 20731.0, 20719.0, 20722.0, 20734.0, 20714.0, 20743.0, 20748.0, 20766.0, 20754.0, 20743.0, 20758.0, 20741.0, 20724.0, 20731.0, 20712.0, 20700.0, 20696.0, 20705.0, 20743.0, 20784.0, 20814.0, 20801.0, 20784.0, 20776.0, 20751.0, 20761.0, 20749.0, 20759.0, 20759.0, 20788.0, 20771.0, 20790.0, 20796.0, 20799.0, 20803.0, 20780.0, 20803.0, 20817.0, 20796.0, 20775.0, 20782.0, 20734.0, 20723.0, 20746.0, 20750.0, 20767.0, 20770.0, 20772.0, 20724.0, 20709.0, 20721.0, 20689.0, 20691.0, 20679.0, 20679.0, 20664.0, 20684.0, 20718.0, 20742.0, 20734.0, 20697.0, 20712.0, 20732.0, 20740.0, 20745.0, 20739.0, 20737.0, 20727.0, 20739.0, 20772.0, 20791.0, 20799.0, 20812.0, 20795.0, 20778.0, 20768.0, 20740.0, 20740.0, 20700.0, 20709.0, 20711.0, 20727.0, 20727.0, 20727.0, 20743.0, 20761.0, 20751.0, 20738.0, 20712.0, 20725.0, 20741.0, 20784.0, 20788.0, 20784.0, 20781.0, 20769.0, 20759.0, 20750.0, 20699.0, 20679.0, 20692.0, 20705.0, 20744.0]
    },
    "slices": {}
  },
  "NumberOfVolumes": 192
}