{
  "AcquisitionMatrixPE": 104,
  "AcquisitionNumber": 1,
  "AcquisitionTime": "15:14:13.865000",
  "BandwidthPerPixelPhaseEncode": 16.297,
  "BaseResolution": 104,
  "BodyPartExamined": "BRAIN",
  "ConsistencyInfo": "N4_VE11C_LATEST_20160120",
  "ConversionSoftware": "dcm2niix",
  "ConversionSoftwareVersion": "v1.0.20210317",
  "DerivedVendorReportedEchoSpacing": 0.000590009,
  "DeviceSerialNumber": "166018",
  "DwellTime": 2.1e-06,
  "EchoTime": 0.0376,
  "EchoTrainLength": 104,
  "EffectiveEchoSpacing": 0.000590009,
  "FlipAngle": 68,
  "ImageComments": "Unaliased MB6/PE3/LB",
  "ImageOrientationPatientDICOM": [0.999725, 0.0231718, 0.00356194, -0.0223378, 0.987615, -0.155299],
  "ImageType": [
    "ORIGINAL",
    "PRIMARY",
    "M",
    "MB",
    "ND",
    "MOSAIC"
],
  "ImagingFrequency": 123.197,
  "InPlanePhaseEncodingDirectionDICOM": "COL",
  "InstitutionAddress": "Washington Place 6,NYC,NYC,US,10003",
  "InstitutionName": "NYU - CBI",
  "InstitutionalDepartmentName": "Department",
  "MRAcquisitionType": "2D",
  "MagneticFieldStrength": 3,
  "Manufacturer": "Siemens",
  "ManufacturersModelName": "Prisma",
  "Modality": "MR",
  "MultibandAccelerationFactor": 6,
  "PartialFourier": 1,
  "PatientPosition": "HFS",
  "PercentPhaseFOV": 100,
  "PercentSampling": 100,
  "PhaseEncodingDirection": "j",
  "PhaseEncodingSteps": 104,
  "PhaseResolution": 1,
  "PixelBandwidth": 2290,
  "ProcedureStepDescription": "Investigators^Winawer",
  "ProtocolName": "cmrr_mbepi_s6_2mm_66sl_PA_task-wedgering3",
  "PulseSequenceDetails": "%CustomerSeq%\\cmrr_mbep2d_bold",
  "ReceiveCoilActiveElements": "HC1-7",
  "ReceiveCoilName": "HeadNeck_64",
  "ReconMatrixPE": 104,
  "RepetitionTime": 1,
  "SAR": 0.079926,
  "ScanOptions": "FS",
  "ScanningSequence": "EP",
  "SequenceName": "epfid2d1_104",
  "SequenceVariant": "SK\\SS",
  "SeriesDescription": "cmrr_mbepi_s6_2mm_66sl_PA_task-wedgering3",
  "SeriesNumber": 18,
  "ShimSetting": [311, -12527, -8503, 393, 47, 115, -115, -19],
  "SliceThickness": 2,
  "SliceTiming": [0, 0.535, 0.0875, 0.6225, 0.1775, 0.7125, 0.2675, 0.8, 0.355, 0.89, 0.445, 0, 0.535, 0.0875, 0.6225, 0.1775, 0.7125, 0.2675, 0.8, 0.355, 0.89, 0.445, 0, 0.535, 0.0875, 0.6225, 0.1775, 0.7125, 0.2675, 0.8, 0.355, 0.89, 0.445, 0, 0.535, 0.0875, 0.6225, 0.1775, 0.7125, 0.2675, 0.8, 0.355, 0.89, 0.445, 0, 0.535, 0.0875, 0.6225, 0.1775, 0.7125, 0.2675, 0.8, 0.355, 0.89, 0.445, 0, 0.535, 0.0875, 0.6225, 0.1775, 0.7125, 0.2675, 0.8, 0.355, 0.89, 0.445],
  "SoftwareVersions": "syngo MR E11",
  "SpacingBetweenSlices": 2,
  "StationName": "AWP166018",
  "TaskName": "wedgering3",
  "TotalReadoutTime": 0.060771,
  "TxRefAmp": 226.467,
  "VendorReportedEchoSpacing": 0.00059,
  "WipMemBlock": "4759a172-d9ca-4a77-97e7-15d737e4ba11||Sequence: R016 ve11c/master r/8780670; Nov 27 2017 15:05:12 by eja",
  "dcmmeta_affine": [
    [-1.9994503259658813, -0.04467553272843361, 0.014232752844691277, 108.60820770263672],
    [-0.04634355381131172, 1.9752298593521118, -0.3103536069393158, -69.26798248291016],
    [0.007123873103410006, 0.31059810519218445, 1.9757221937179565, -61.64011001586914],
    [0.0, 0.0, 0.0, 1.0]
],
  "dcmmeta_reorient_transform": [
    [0.0, -1.0, 0.0, 103.0],
    [1.0, 0.0, 0.0, 0.0],
    [0.0, 0.0, 1.0, 0.0],
    [0.0, 0.0, 0.0, 1.0]
],
  "dcmmeta_shape": [104, 104, 66, 300],
  "dcmmeta_slice_dim": 2,
  "dcmmeta_version": 0.6,
  "global": {
    "const": {
      "AccessionNumber": "Lesyk7be",
      "AcquisitionMatrix": [104, 0, 0, 104],
      "AngioFlag": "N",
      "BitsAllocated": 16,
      "BitsStored": 16,
      "BodyPartExamined": "BRAIN",
      "Columns": 936,
      "EchoNumbers": 1,
      "EchoTime": 37.6,
      "EchoTrainLength": 104,
      "FlipAngle": 68.0,
      "HighBit": 15,
      "ImageOrientationPatient": [0.99972515292378, 0.02317177636514, 0.00356193649675, -0.0223377661658, 0.98761491952668, -0.1552990500004],
      "ImagePositionPatient": [-917.19293522255, -975.15522529969, 96.596773352983],
      "ImageType": [
        "ORIGINAL",
        "PRIMARY",
        "M",
        "MB",
        "ND",
        "MOSAIC"
],
      "ImagedNucleus": "1H",
      "ImagingFrequency": 123.19688,
      "InPlanePhaseEncodingDirection": "COL",
      "MRAcquisitionType": "2D",
      "MagneticFieldStrength": 3.0,
      "Manufacturer": "SIEMENS",
      "ManufacturerModelName": "Prisma",
      "Modality": "MR",
      "NumberOfAverages": 1.0,
      "NumberOfPhaseEncodingSteps": 104,
      "PercentPhaseFieldOfView": 100.0,
      "PercentSampling": 100.0,
      "PerformedProcedureStepStartTime": "143710.221000",
      "PhotometricInterpretation": "MONOCHROME2",
      "PixelBandwidth": 2290.0,
      "PixelRepresentation": 0,
      "PixelSpacing": [2.0, 2.0],
      "ProtocolName": "cmrr_mbepi_s6_2mm_66sl_PA_task-wedgering3",
      "RepetitionTime": 1000.0,
      "Rows": 936,
      "SAR": 0.07992602501546,
      "SamplesPerPixel": 1,
      "ScanOptions": "FS",
      "ScanningSequence": "EP",
      "SequenceName": "epfid2d1_104",
      "SequenceVariant": [
        "SK",
        "SS"
],
      "SeriesDescription": "cmrr_mbepi_s6_2mm_66sl_PA_task-wedgering3",
      "SeriesNumber": 18,
      "SeriesTime": "151532.941000",
      "SliceLocation": -49.370184857626,
      "SliceThickness": 2.0,
      "SmallestImagePixelValue": 0,
      "SoftwareVersions": "syngo MR E11",
      "SpacingBetweenSlices": 1.9999999851331,
      "SpecificCharacterSet": "ISO_IR 100",
      "StudyID": "1",
      "StudyTime": "143710.077000",
      "TransmitCoilName": "Body",
      "VariableFlipAngleFlag": "N",
      "WindowCenterWidthExplanation": "Algo1",
      "dBdt": 0.0},
    "slices": {}
  },
  "time": {
    "samples": {
      "AcquisitionNumber": [1, 2, 3, 4, 5, 6, 7, 8, 9, 10, 11, 12, 13, 14, 15, 16, 17, 18, 19, 20, 21, 22, 23, 24, 25, 26, 27, 28, 29, 30, 31, 32, 33, 34, 35, 36, 37, 38, 39, 40, 41, 42, 43, 44, 45, 46, 47, 48, 49, 50, 51, 52, 53, 54, 55, 56, 57, 58, 59, 60, 61, 62, 63, 64, 65, 66, 67, 68, 69, 70, 71, 72, 73, 74, 75, 76, 77, 78, 79, 80, 81, 82, 83, 84, 85, 86, 87, 88, 89, 90, 91, 92, 93, 94, 95, 96, 97, 98, 99, 100, 101, 102, 103, 104, 105, 106, 107, 108, 109, 110, 111, 112, 113, 114, 115, 116, 117, 118, 119, 120, 121, 122, 123, 124, 125, 126, 127, 128, 129, 130, 131, 132, 133, 134, 135, 136, 137, 138, 139, 140, 141, 142, 143, 144, 145, 146, 147, 148, 149, 150, 151, 152, 153, 154, 155, 156, 157, 158, 159, 160, 161, 162, 163, 164, 165, 166, 167, 168, 169, 170, 171, 172, 173, 174, 175, 176, 177, 178, 179, 180, 181, 182, 183, 184, 185, 186, 187, 188, 189, 190, 191, 192, 193, 194, 195, 196, 197, 198, 199, 200, 201, 202, 203, 204, 205, 206, 207, 208, 209, 210, 211, 212, 213, 214, 215, 216, 217, 218, 219, 220, 221, 222, 223, 224, 225, 226, 227, 228, 229, 230, 231, 232, 233, 234, 235, 236, 237, 238, 239, 240, 241, 242, 243, 244, 245, 246, 247, 248, 249, 250, 251, 252, 253, 254, 255, 256, 257, 258, 259, 260, 261, 262, 263, 264, 265, 266, 267, 268, 269, 270, 271, 272, 273, 274, 275, 276, 277, 278, 279, 280, 281, 282, 283, 284, 285, 286, 287, 288, 289, 290, 291, 292, 293, 294, 295, 296, 297, 298, 299, 300],
      "AcquisitionTime": ["151413.865000", "151414.865000", "151415.865000", "151416.865000", "151417.865000", "151418.865000", "151419.865000", "151420.865000", "151421.865000", "151422.865000", "151423.865000", "151424.865000", "151425.865000", "151426.865000", "151427.865000", "151428.865000", "151429.865000", "151430.865000", "151431.865000", "151432.865000", "151433.865000", "151434.865000", "151435.865000", "151436.865000", "151437.865000", "151438.865000", "151439.865000", "151440.865000", "151441.865000", "151442.865000", "151443.865000", "151444.865000", "151445.865000", "151446.865000", "151447.865000", "151448.865000", "151449.865000", "151450.865000", "151451.865000", "151452.865000", "151453.865000", "151454.865000", "151455.865000", "151456.865000", "151457.865000", "151458.865000", "151459.865000", "151500.865000", "151501.865000", "151502.865000", "151503.865000", "151504.865000", "151505.865000", "151506.865000", "151507.865000", "151508.865000", "151509.865000", "151510.865000", "151511.865000", "151512.865000", "151513.865000", "151514.865000", "151515.865000", "151516.865000", "151517.865000", "151518.865000", "151519.865000", "151520.865000", "151521.865000", "151522.865000", "151523.865000", "151524.865000", "151525.865000", "151526.865000", "151527.865000", "151528.865000", "151529.865000", "151530.865000", "151531.865000", "151532.865000", "151533.865000", "151534.865000", "151535.865000", "151536.865000", "151537.865000", "151538.865000", "151539.865000", "151540.865000", "151541.865000", "151542.865000", "151543.865000", "151544.865000", "151545.865000", "151546.865000", "151547.865000", "151548.865000", "151549.865000", "151550.865000", "151551.865000", "151552.865000", "151553.865000", "151554.865000", "151555.865000", "151556.865000", "151557.865000", "151558.865000", "151559.865000", "151600.865000", "151601.865000", "151602.865000", "151603.865000", "151604.865000", "151605.865000", "151606.865000", "151607.865000", "151608.865000", "151609.865000", "151610.865000", "151611.865000", "151612.865000", "151613.865000", "151614.865000", "151615.865000", "151616.865000", "151617.865000", "151618.865000", "151619.865000", "151620.865000", "151621.865000", "151622.865000", "151623.865000", "151624.865000", "151625.865000", "151626.865000", "151627.865000", "151628.865000", "151629.865000", "151630.865000", "151631.865000", "151632.865000", "151633.865000", "151634.865000", "151635.865000", "151636.865000", "151637.865000", "151638.865000", "151639.865000", "151640.865000", "151641.865000", "151642.865000", "151643.865000", "151644.865000", "151645.865000", "151646.865000", "151647.865000", "151648.865000", "151649.865000", "151650.865000", "151651.865000", "151652.865000", "151653.865000", "151654.865000", "151655.865000", "151656.865000", "151657.865000", "151658.865000", "151659.865000", "151700.865000", "151701.865000", "151702.865000", "151703.865000", "151704.865000", "151705.865000", "151706.865000", "151707.865000", "151708.865000", "151709.865000", "151710.865000", "151711.865000", "151712.865000", "151713.865000", "151714.865000", "151715.865000", "151716.865000", "151717.865000", "151718.865000", "151719.865000", "151720.865000", "151721.865000", "151722.865000", "151723.865000", "151724.865000", "151725.865000", "151726.865000", "151727.865000", "151728.865000", "151729.865000", "151730.865000", "151731.865000", "151732.865000", "151733.865000", "151734.865000", "151735.865000", "151736.865000", "151737.865000", "151738.865000", "151739.865000", "151740.865000", "151741.865000", "151742.865000", "151743.865000", "151744.865000", "151745.865000", "151746.865000", "151747.865000", "151748.865000", "151749.865000", "151750.865000", "151751.865000", "151752.865000", "151753.865000", "151754.865000", "151755.865000", "151756.865000", "151757.865000", "151758.865000", "151759.865000", "151800.865000", "151801.865000", "151802.865000", "151803.865000", "151804.865000", "151805.865000", "151806.865000", "151807.865000", "151808.865000", "151809.865000", "151810.865000", "151811.865000", "151812.865000", "151813.865000", "151814.865000", "151815.865000", "151816.865000", "151817.865000", "151818.865000", "151819.865000", "151820.865000", "151821.865000", "151822.865000", "151823.865000", "151824.865000", "151825.865000", "151826.865000", "151827.865000", "151828.865000", "151829.865000", "151830.865000", "151831.865000", "151832.865000", "151833.865000", "151834.865000", "151835.865000", "151836.865000", "151837.865000", "151838.865000", "151839.865000", "151840.865000", "151841.865000", "151842.865000", "151843.865000", "151844.865000", "151845.865000", "151846.865000", "151847.865000", "151848.865000", "151849.865000", "151850.865000", "151851.865000", "151852.865000", "151853.865000", "151854.865000", "151855.865000", "151856.865000", "151857.865000", "151858.865000", "151859.865000", "151900.865000", "151901.865000", "151902.865000", "151903.865000", "151904.865000", "151905.865000", "151906.865000", "151907.865000", "151908.865000", "151909.865000", "151910.865000", "151911.865000", "151912.865000"],
      "ContentTime": ["151532.944000", "151532.948000", "151532.951000", "151532.954000", "151532.957000", "151532.960000", "151532.963000", "151532.970000", "151532.973000", "151532.976000", "151532.979000", "151532.982000", "151532.985000", "151532.988000", "151532.991000", "151532.994000", "151532.997000", "151533.002000", "151533.005000", "151533.008000", "151533.011000", "151533.014000", "151533.023000", "151533.026000", "151533.029000", "151533.032000", "151533.035000", "151533.038000", "151533.041000", "151533.044000", "151533.047000", "151533.050000", "151533.053000", "151533.056000", "151533.059000", "151533.062000", "151533.065000", "151533.070000", "151533.073000", "151533.076000", "151533.079000", "151533.082000", "151552.908000", "151552.911000", "151552.914000", "151552.917000", "151552.920000", "151552.931000", "151552.934000", "151552.946000", "151552.948000", "151552.952000", "151552.954000", "151552.957000", "151552.960000", "151552.963000", "151552.966000", "151552.969000", "151552.972000", "151552.976000", "151552.979000", "151552.982000", "151552.985000", "151552.988000", "151552.991000", "151552.994000", "151552.996000", "151553.000000", "151553.003000", "151553.006000", "151612.907000", "151612.910000", "151612.913000", "151612.916000", "151612.919000", "151612.922000", "151612.925000", "151612.928000", "151612.931000", "151612.934000", "151612.937000", "151612.940000", "151612.943000", "151612.946000", "151612.949000", "151612.952000", "151612.955000", "151612.958000", "151612.961000", "151612.964000", "151612.967000", "151612.970000", "151612.973000", "151612.976000", "151612.979000", "151612.982000", "151612.985000", "151612.988000", "151632.907000", "151632.910000", "151632.913000", "151632.916000", "151632.919000", "151632.922000", "151632.925000", "151632.928000", "151632.931000", "151632.934000", "151632.937000", "151632.940000", "151632.943000", "151632.946000", "151632.949000", "151632.952000", "151632.955000", "151632.958000", "151632.961000", "151632.964000", "151632.967000", "151632.970000", "151632.973000", "151632.976000", "151632.979000", "151632.982000", "151632.985000", "151632.988000", "151632.991000", "151652.907000", "151652.910000", "151652.913000", "151652.916000", "151652.919000", "151652.922000", "151652.925000", "151652.928000", "151652.931000", "151652.934000", "151652.937000", "151652.940000", "151652.943000", "151652.946000", "151652.949000", "151652.952000", "151652.955000", "151652.958000", "151652.961000", "151652.964000", "151652.967000", "151652.970000", "151652.973000", "151652.976000", "151652.979000", "151652.982000", "151652.985000", "151652.988000", "151712.908000", "151712.911000", "151712.914000", "151712.917000", "151712.920000", "151712.923000", "151712.926000", "151712.937000", "151712.940000", "151712.943000", "151712.946000", "151712.949000", "151712.952000", "151712.955000", "151712.958000", "151712.961000", "151712.964000", "151712.968000", "151712.971000", "151712.974000", "151712.977000", "151712.980000", "151712.983000", "151732.908000", "151732.911000", "151732.914000", "151732.917000", "151732.920000", "151732.923000", "151732.926000", "151732.929000", "151732.933000", "151732.936000", "151732.939000", "151732.942000", "151732.945000", "151732.948000", "151732.951000", "151732.954000", "151732.957000", "151732.960000", "151732.963000", "151732.966000", "151752.908000", "151752.911000", "151752.914000", "151752.917000", "151752.920000", "151752.923000", "151752.926000", "151752.930000", "151752.933000", "151752.936000", "151752.939000", "151752.942000", "151752.945000", "151752.948000", "151752.951000", "151752.954000", "151752.957000", "151752.960000", "151752.963000", "151752.966000", "151812.908000", "151812.911000", "151812.914000", "151812.917000", "151812.920000", "151812.923000", "151812.926000", "151812.929000", "151812.932000", "151812.935000", "151812.938000", "151812.941000", "151812.957000", "151812.960000", "151812.963000", "151812.966000", "151812.969000", "151812.972000", "151812.975000", "151812.978000", "151832.907000", "151832.910000", "151832.913000", "151832.917000", "151832.920000", "151832.923000", "151832.926000", "151832.929000", "151832.932000", "151832.935000", "151832.938000", "151832.941000", "151832.944000", "151832.947000", "151832.950000", "151832.953000", "151832.956000", "151832.959000", "151832.962000", "151832.965000", "151852.907000", "151852.910000", "151852.913000", "151852.916000", "151852.919000", "151852.922000", "151852.925000", "151852.928000", "151852.932000", "151852.935000", "151852.938000", "151852.941000", "151852.944000", "151852.947000", "151852.950000", "151852.953000", "151852.956000", "151852.959000", "151852.962000", "151852.965000", "151912.907000", "151912.910000", "151912.913000", "151912.916000", "151912.919000", "151912.922000", "151912.925000", "151912.928000", "151912.931000", "151912.935000", "151912.938000", "151912.941000", "151912.944000", "151912.947000", "151912.950000", "151912.953000", "151912.956000", "151912.959000", "151912.962000", "151912.965000", "151914.329000", "151914.332000"],
      "InstanceCreationTime": ["151532.944000", "151532.948000", "151532.951000", "151532.954000", "151532.957000", "151532.960000", "151532.963000", "151532.970000", "151532.973000", "151532.976000", "151532.979000", "151532.982000", "151532.985000", "151532.988000", "151532.991000", "151532.994000", "151532.997000", "151533.002000", "151533.005000", "151533.008000", "151533.011000", "151533.014000", "151533.023000", "151533.026000", "151533.029000", "151533.032000", "151533.035000", "151533.038000", "151533.041000", "151533.044000", "151533.047000", "151533.050000", "151533.053000", "151533.056000", "151533.059000", "151533.062000", "151533.065000", "151533.070000", "151533.073000", "151533.076000", "151533.079000", "151533.082000", "151552.908000", "151552.911000", "151552.914000", "151552.917000", "151552.920000", "151552.931000", "151552.934000", "151552.946000", "151552.948000", "151552.952000", "151552.954000", "151552.957000", "151552.960000", "151552.963000", "151552.966000", "151552.969000", "151552.972000", "151552.976000", "151552.979000", "151552.982000", "151552.985000", "151552.988000", "151552.991000", "151552.994000", "151552.996000", "151553.000000", "151553.003000", "151553.006000", "151612.907000", "151612.910000", "151612.913000", "151612.916000", "151612.919000", "151612.922000", "151612.925000", "151612.928000", "151612.931000", "151612.934000", "151612.937000", "151612.940000", "151612.943000", "151612.946000", "151612.949000", "151612.952000", "151612.955000", "151612.958000", "151612.961000", "151612.964000", "151612.967000", "151612.970000", "151612.973000", "151612.976000", "151612.979000", "151612.982000", "151612.985000", "151612.988000", "151632.907000", "151632.910000", "151632.913000", "151632.916000", "151632.919000", "151632.922000", "151632.925000", "151632.928000", "151632.931000", "151632.934000", "151632.937000", "151632.940000", "151632.943000", "151632.946000", "151632.949000", "151632.952000", "151632.955000", "151632.958000", "151632.961000", "151632.964000", "151632.967000", "151632.970000", "151632.973000", "151632.976000", "151632.979000", "151632.982000", "151632.985000", "151632.988000", "151632.991000", "151652.907000", "151652.910000", "151652.913000", "151652.916000", "151652.919000", "151652.922000", "151652.925000", "151652.928000", "151652.931000", "151652.934000", "151652.937000", "151652.940000", "151652.943000", "151652.946000", "151652.949000", "151652.952000", "151652.955000", "151652.958000", "151652.961000", "151652.964000", "151652.967000", "151652.970000", "151652.973000", "151652.976000", "151652.979000", "151652.982000", "151652.985000", "151652.988000", "151712.908000", "151712.911000", "151712.914000", "151712.917000", "151712.920000", "151712.923000", "151712.926000", "151712.937000", "151712.940000", "151712.943000", "151712.946000", "151712.949000", "151712.952000", "151712.955000", "151712.958000", "151712.961000", "151712.964000", "151712.968000", "151712.971000", "151712.974000", "151712.977000", "151712.980000", "151712.983000", "151732.908000", "151732.911000", "151732.914000", "151732.917000", "151732.920000", "151732.923000", "151732.926000", "151732.929000", "151732.933000", "151732.936000", "151732.939000", "151732.942000", "151732.945000", "151732.948000", "151732.951000", "151732.954000", "151732.957000", "151732.960000", "151732.963000", "151732.966000", "151752.908000", "151752.911000", "151752.914000", "151752.917000", "151752.920000", "151752.923000", "151752.926000", "151752.930000", "151752.933000", "151752.936000", "151752.939000", "151752.942000", "151752.945000", "151752.948000", "151752.951000", "151752.954000", "151752.957000", "151752.960000", "151752.963000", "151752.966000", "151812.908000", "151812.911000", "151812.914000", "151812.917000", "151812.920000", "151812.923000", "151812.926000", "151812.929000", "151812.932000", "151812.935000", "151812.938000", "151812.941000", "151812.957000", "151812.960000", "151812.963000", "151812.966000", "151812.969000", "151812.972000", "151812.975000", "151812.978000", "151832.907000", "151832.910000", "151832.913000", "151832.917000", "151832.920000", "151832.923000", "151832.926000", "151832.929000", "151832.932000", "151832.935000", "151832.938000", "151832.941000", "151832.944000", "151832.947000", "151832.950000", "151832.953000", "151832.956000", "151832.959000", "151832.962000", "151832.965000", "151852.907000", "151852.910000", "151852.913000", "151852.916000", "151852.919000", "151852.922000", "151852.925000", "151852.928000", "151852.932000", "151852.935000", "151852.938000", "151852.941000", "151852.944000", "151852.947000", "151852.950000", "151852.953000", "151852.956000", "151852.959000", "151852.962000", "151852.965000", "151912.907000", "151912.910000", "151912.913000", "151912.916000", "151912.919000", "151912.922000", "151912.925000", "151912.928000", "151912.931000", "151912.935000", "151912.938000", "151912.941000", "151912.944000", "151912.947000", "151912.950000", "151912.953000", "151912.956000", "151912.959000", "151912.962000", "151912.965000", "151914.329000", "151914.332000"],
      "InstanceNumber": [1, 2, 3, 4, 5, 6, 7, 8, 9, 10, 11, 12, 13, 14, 15, 16, 17, 18, 19, 20, 21, 22, 23, 24, 25, 26, 27, 28, 29, 30, 31, 32, 33, 34, 35, 36, 37, 38, 39, 40, 41, 42, 43, 44, 45, 46, 47, 48, 49, 50, 51, 52, 53, 54, 55, 56, 57, 58, 59, 60, 61, 62, 63, 64, 65, 66, 67, 68, 69, 70, 71, 72, 73, 74, 75, 76, 77, 78, 79, 80, 81, 82, 83, 84, 85, 86, 87, 88, 89, 90, 91, 92, 93, 94, 95, 96, 97, 98, 99, 100, 101, 102, 103, 104, 105, 106, 107, 108, 109, 110, 111, 112, 113, 114, 115, 116, 117, 118, 119, 120, 121, 122, 123, 124, 125, 126, 127, 128, 129, 130, 131, 132, 133, 134, 135, 136, 137, 138, 139, 140, 141, 142, 143, 144, 145, 146, 147, 148, 149, 150, 151, 152, 153, 154, 155, 156, 157, 158, 159, 160, 161, 162, 163, 164, 165, 166, 167, 168, 169, 170, 171, 172, 173, 174, 175, 176, 177, 178, 179, 180, 181, 182, 183, 184, 185, 186, 187, 188, 189, 190, 191, 192, 193, 194, 195, 196, 197, 198, 199, 200, 201, 202, 203, 204, 205, 206, 207, 208, 209, 210, 211, 212, 213, 214, 215, 216, 217, 218, 219, 220, 221, 222, 223, 224, 225, 226, 227, 228, 229, 230, 231, 232, 233, 234, 235, 236, 237, 238, 239, 240, 241, 242, 243, 244, 245, 246, 247, 248, 249, 250, 251, 252, 253, 254, 255, 256, 257, 258, 259, 260, 261, 262, 263, 264, 265, 266, 267, 268, 269, 270, 271, 272, 273, 274, 275, 276, 277, 278, 279, 280, 281, 282, 283, 284, 285, 286, 287, 288, 289, 290, 291, 292, 293, 294, 295, 296, 297, 298, 299, 300],
      "LargestImagePixelValue": [39667, 38634, 37764, 37123, 37208, 36893, 36818, 36934, 36506, 36792, 36831, 36593, 36692, 36315, 36608, 36985, 36928, 36564, 36593, 37334, 36956, 36555, 37265, 37004, 36859, 37526, 37112, 36767, 37237, 37168, 37030, 36871, 37253, 36826, 37190, 37125, 36640, 37352, 37097, 37057, 37007, 37236, 37161, 37136, 37173, 36657, 37085, 36817, 37133, 36974, 36875, 37044, 36766, 36963, 36618, 37124, 36990, 36523, 36634, 37001, 36651, 36431, 36853, 36554, 36566, 37203, 36897, 36640, 37320, 36408, 36839, 36667, 36680, 36601, 36685, 36694, 36799, 36498, 36799, 36581, 36722, 36859, 36513, 36720, 36402, 36822, 36644, 36632, 36476, 36542, 36477, 36509, 36817, 36449, 36779, 36937, 36644, 36733, 36534, 36405, 36755, 36556, 36516, 36577, 36336, 36939, 36848, 36582, 36789, 36787, 36816, 36725, 37048, 36388, 36732, 37044, 36653, 36522, 37268, 37544, 36656, 36939, 38089, 36827, 36656, 38141, 36986, 36641, 37183, 36799, 36462, 36371, 36873, 36805, 36575, 36444, 37172, 36903, 36729, 36245, 36608, 36692, 36406, 37475, 36571, 36360, 38044, 36782, 36347, 37522, 37274, 36454, 36940, 37949, 36832, 36813, 36978, 36391, 37046, 37740, 36679, 37056, 37538, 36573, 36343, 36817, 37099, 36812, 37118, 36877, 36605, 36468, 36081, 36864, 36438, 36975, 36658, 36330, 37229, 36739, 36297, 36630, 37132, 36847, 37562, 37175, 36738, 37195, 37165, 36468, 37570, 36794, 36452, 37264, 36429, 36654, 37295, 36633, 36909, 37528, 37259, 37234, 37173, 37144, 36604, 37097, 36602, 36363, 37054, 36499, 36396, 36361, 36625, 36411, 36756, 36604, 36558, 37651, 37072, 36292, 37714, 36537, 36355, 37353, 36470, 36547, 36385, 36774, 36433, 36279, 36617, 36331, 36424, 36477, 36741, 37057, 36407, 36557, 37539, 36481, 36263, 36714, 36378, 36383, 37448, 37095, 36483, 36900, 36513, 36193, 36352, 36416, 36060, 35945, 36569, 36284, 36056, 36343, 36470, 36540, 36531, 36754, 36648, 36413, 36040, 36433, 36507, 36494, 36585, 36186, 36993, 36547, 36289, 36908, 36076, 35871, 36476, 36129, 36364, 36883, 37359, 36416, 37314, 37155, 36178, 36555, 36224, 36102, 36080, 35994, 36351, 36866, 36648, 36549, 36785, 36335, 36441, 36628, 36229, 36295],
      "WindowCenter": [10414.0, 10362.0, 10330.0, 10325.0, 10325.0, 10325.0, 10325.0, 10319.0, 10311.0, 10326.0, 10311.0, 10308.0, 10317.0, 10313.0, 10314.0, 10334.0, 10326.0, 10313.0, 10311.0, 10313.0, 10293.0, 10306.0, 10304.0, 10299.0, 10291.0, 10296.0, 10306.0, 10315.0, 10323.0, 10317.0, 10321.0, 10302.0, 10291.0, 10283.0, 10288.0, 10290.0, 10307.0, 10312.0, 10290.0, 10281.0, 10276.0, 10260.0, 10260.0, 10267.0, 10272.0, 10295.0, 10303.0, 10300.0, 10313.0, 10299.0, 10299.0, 10313.0, 10308.0, 10314.0, 10315.0, 10305.0, 10298.0, 10291.0, 10291.0, 10298.0, 10299.0, 10290.0, 10290.0, 10285.0, 10298.0, 10321.0, 10324.0, 10317.0, 10322.0, 10300.0, 10298.0, 10298.0, 10290.0, 10290.0, 10307.0, 10305.0, 10301.0, 10303.0, 10302.0, 10296.0, 10294.0, 10290.0, 10277.0, 10281.0, 10267.0, 10279.0, 10289.0, 10298.0, 10314.0, 10326.0, 10333.0, 10327.0, 10310.0, 10287.0, 10284.0, 10277.0, 10275.0, 10281.0, 10283.0, 10284.0, 10297.0, 10300.0, 10309.0, 10319.0, 10319.0, 10318.0, 10307.0, 10286.0, 10285.0, 10282.0, 10292.0, 10294.0, 10304.0, 10302.0, 10311.0, 10320.0, 10302.0, 10305.0, 10307.0, 10307.0, 10311.0, 10302.0, 10316.0, 10303.0, 10310.0, 10327.0, 10316.0, 10304.0, 10305.0, 10294.0, 10291.0, 10300.0, 10309.0, 10317.0, 10311.0, 10313.0, 10308.0, 10302.0, 10303.0, 10288.0, 10291.0, 10301.0, 10311.0, 10321.0, 10314.0, 10313.0, 10336.0, 10326.0, 10329.0, 10332.0, 10324.0, 10311.0, 10318.0, 10329.0, 10313.0, 10317.0, 10317.0, 10313.0, 10315.0, 10329.0, 10328.0, 10332.0, 10332.0, 10324.0, 10307.0, 10307.0, 10308.0, 10320.0, 10325.0, 10321.0, 10309.0, 10303.0, 10283.0, 10278.0, 10269.0, 10279.0, 10281.0, 10284.0, 10299.0, 10308.0, 10312.0, 10311.0, 10323.0, 10322.0, 10331.0, 10332.0, 10320.0, 10311.0, 10309.0, 10307.0, 10315.0, 10316.0, 10308.0, 10326.0, 10322.0, 10321.0, 10325.0, 10313.0, 10311.0, 10324.0, 10328.0, 10326.0, 10335.0, 10334.0, 10306.0, 10316.0, 10310.0, 10305.0, 10317.0, 10304.0, 10297.0, 10298.0, 10287.0, 10288.0, 10301.0, 10295.0, 10311.0, 10329.0, 10325.0, 10309.0, 10328.0, 10315.0, 10317.0, 10324.0, 10315.0, 10322.0, 10314.0, 10313.0, 10306.0, 10296.0, 10295.0, 10294.0, 10292.0, 10286.0, 10292.0, 10312.0, 10319.0, 10330.0, 10341.0, 10325.0, 10309.0, 10304.0, 10304.0, 10304.0, 10329.0, 10343.0, 10341.0, 10337.0, 10317.0, 10292.0, 10282.0, 10281.0, 10279.0, 10274.0, 10285.0, 10287.0, 10304.0, 10313.0, 10316.0, 10314.0, 10306.0, 10301.0, 10299.0, 10303.0, 10290.0, 10295.0, 10297.0, 10294.0, 10294.0, 10296.0, 10300.0, 10296.0, 10299.0, 10303.0, 10297.0, 10294.0, 10304.0, 10308.0, 10315.0, 10331.0, 10336.0, 10333.0, 10328.0, 10320.0, 10295.0, 10296.0, 10292.0, 10285.0, 10285.0, 10284.0, 10290.0, 10304.0, 10311.0, 10310.0, 10314.0, 10307.0, 10300.0, 10298.0, 10300.0, 10301.0],
