{
  "AcquisitionMatrixPE": 104,
  "AcquisitionNumber": 1,
  "AcquisitionTime": "15:02:4.277500",
  "BandwidthPerPixelPhaseEncode": 16.297,
  "BaseResolution": 104,
  "BodyPartExamined": "BRAIN",
  "ConsistencyInfo": "N4_VE11C_LATEST_20160120",
  "ConversionSoftware": "dcm2niix",
  "ConversionSoftwareVersion": "v1.0.20210317",
  "DerivedVendorReportedEchoSpacing": 0.000590009,
  "DeviceSerialNumber": "166018",
  "DwellTime": 2.1e-06,
  "EchoTime": 0.0376,
  "EchoTrainLength": 104,
  "EffectiveEchoSpacing": 0.000590009,
  "FlipAngle": 68,
  "ImageComments": "Unaliased MB6/PE3/LB",
  "ImageOrientationPatientDICOM": [0.999725, 0.0231718, 0.00356194, -0.0223378, 0.987615, -0.155299],
  "ImageType": [
    "ORIGINAL",
    "PRIMARY",
    "M",
    "MB",
    "ND",
    "MOSAIC"
],
  "ImagingFrequency": 123.197,
  "InPlanePhaseEncodingDirectionDICOM": "COL",
  "InstitutionAddress": "Washington Place 6,NYC,NYC,US,10003",
  "InstitutionName": "NYU - CBI",
  "InstitutionalDepartmentName": "Department",
  "MRAcquisitionType": "2D",
  "MagneticFieldStrength": 3,
  "Manufacturer": "Siemens",
  "ManufacturersModelName": "Prisma",
  "Modality": "MR",
  "MultibandAccelerationFactor": 6,
  "PartialFourier": 1,
  "PatientPosition": "HFS",
  "PercentPhaseFOV": 100,
  "PercentSampling": 100,
  "PhaseEncodingDirection": "j",
  "PhaseEncodingSteps": 104,
  "PhaseResolution": 1,
  "PixelBandwidth": 2290,
  "ProcedureStepDescription": "Investigators^Winawer",
  "ProtocolName": "cmrr_mbepi_s6_2mm_66sl_PA_task-wedgering2",
  "PulseSequenceDetails": "%CustomerSeq%\\cmrr_mbep2d_bold",
  "ReceiveCoilActiveElements": "HC1-7",
  "ReceiveCoilName": "HeadNeck_64",
  "ReconMatrixPE": 104,
  "RepetitionTime": 1,
  "SAR": 0.079926,
  "ScanOptions": "FS",
  "ScanningSequence": "EP",
  "SequenceName": "epfid2d1_104",
  "SequenceVariant": "SK\\SS",
  "SeriesDescription": "cmrr_mbepi_s6_2mm_66sl_PA_task-wedgering2",
  "SeriesNumber": 14,
  "ShimSetting": [311, -12527, -8503, 393, 47, 115, -115, -19],
  "SliceThickness": 2,
  "SliceTiming": [0, 0.535, 0.09, 0.6225, 0.1775, 0.7125, 0.2675, 0.8025, 0.3575, 0.89, 0.445, 0, 0.535, 0.09, 0.6225, 0.1775, 0.7125, 0.2675, 0.8025, 0.3575, 0.89, 0.445, 0, 0.535, 0.09, 0.6225, 0.1775, 0.7125, 0.2675, 0.8025, 0.3575, 0.89, 0.445, 0, 0.535, 0.09, 0.6225, 0.1775, 0.7125, 0.2675, 0.8025, 0.3575, 0.89, 0.445, 0, 0.535, 0.09, 0.6225, 0.1775, 0.7125, 0.2675, 0.8025, 0.3575, 0.89, 0.445, 0, 0.535, 0.09, 0.6225, 0.1775, 0.7125, 0.2675, 0.8025, 0.3575, 0.89, 0.445],
  "SoftwareVersions": "syngo MR E11",
  "SpacingBetweenSlices": 2,
  "StationName": "AWP166018",
  "TaskName": "wedgering2",
  "TotalReadoutTime": 0.060771,
  "TxRefAmp": 226.467,
  "VendorReportedEchoSpacing": 0.00059,
  "WipMemBlock": "0db50b80-8e76-40cb-9db2-d9d82176791a||Sequence: R016 ve11c/master r/8780670; Nov 27 2017 15:05:12 by eja",
  "dcmmeta_affine": [
    [-1.9994503259658813, -0.04467553272843361, 0.014232752844691277, 108.60820770263672],
    [-0.04634355381131172, 1.9752298593521118, -0.3103536069393158, -69.26798248291016],
    [0.007123873103410006, 0.31059810519218445, 1.9757221937179565, -61.64011001586914],
    [0.0, 0.0, 0.0, 1.0]
],
  "dcmmeta_reorient_transform": [
    [0.0, -1.0, 0.0, 103.0],
    [1.0, 0.0, 0.0, 0.0],
    [0.0, 0.0, 1.0, 0.0],
    [0.0, 0.0, 0.0, 1.0]
],
  "dcmmeta_shape": [104, 104, 66, 300],
  "dcmmeta_slice_dim": 2,
  "dcmmeta_version": 0.6,
  "global": {
    "const": {
      "AccessionNumber": "Lesyk7be",
      "AcquisitionMatrix": [104, 0, 0, 104],
      "AngioFlag": "N",
      "BitsAllocated": 16,
      "BitsStored": 16,
      "BodyPartExamined": "BRAIN",
      "Columns": 936,
      "EchoNumbers": 1,
      "EchoTime": 37.6,
      "EchoTrainLength": 104,
      "FlipAngle": 68.0,
      "HighBit": 15,
      "ImageOrientationPatient": [0.99972515292378, 0.02317177636514, 0.00356193649675, -0.0223377661658, 0.98761491952668, -0.1552990500004],
      "ImagePositionPatient": [-917.19293522255, -975.15522529969, 96.596773352983],
      "ImageType": [
        "ORIGINAL",
        "PRIMARY",
        "M",
        "MB",
        "ND",
        "MOSAIC"
],
      "ImagedNucleus": "1H",
      "ImagingFrequency": 123.196873,
      "InPlanePhaseEncodingDirection": "COL",
      "MRAcquisitionType": "2D",
      "MagneticFieldStrength": 3.0,
      "Manufacturer": "SIEMENS",
      "ManufacturerModelName": "Prisma",
      "Modality": "MR",
      "NumberOfAverages": 1.0,
      "NumberOfPhaseEncodingSteps": 104,
      "PercentPhaseFieldOfView": 100.0,
      "PercentSampling": 100.0,
      "PerformedProcedureStepStartTime": "143710.221000",
      "PhotometricInterpretation": "MONOCHROME2",
      "PixelBandwidth": 2290.0,
      "PixelRepresentation": 0,
      "PixelSpacing": [2.0, 2.0],
      "ProtocolName": "cmrr_mbepi_s6_2mm_66sl_PA_task-wedgering2",
      "RepetitionTime": 1000.0,
      "Rows": 936,
      "SAR": 0.07992602501546,
      "SamplesPerPixel": 1,
      "ScanOptions": "FS",
      "ScanningSequence": "EP",
      "SequenceName": "epfid2d1_104",
      "SequenceVariant": [
        "SK",
        "SS"
],
      "SeriesDescription": "cmrr_mbepi_s6_2mm_66sl_PA_task-wedgering2",
      "SeriesNumber": 14,
      "SeriesTime": "150313.014000",
      "SliceLocation": -49.370184857626,
      "SliceThickness": 2.0,
      "SmallestImagePixelValue": 0,
      "SoftwareVersions": "syngo MR E11",
      "SpacingBetweenSlices": 1.9999999851331,
      "SpecificCharacterSet": "ISO_IR 100",
      "StudyID": "1",
      "StudyTime": "143710.077000",
      "TransmitCoilName": "Body",
      "VariableFlipAngleFlag": "N",
      "WindowCenterWidthExplanation": "Algo1",
      "dBdt": 0.0},
    "slices": {}
  },
  "time": {
    "samples": {
      "AcquisitionNumber": [1, 2, 3, 4, 5, 6, 7, 8, 9, 10, 11, 12, 13, 14, 15, 16, 17, 18, 19, 20, 21, 22, 23, 24, 25, 26, 27, 28, 29, 30, 31, 32, 33, 34, 35, 36, 37, 38, 39, 40, 41, 42, 43, 44, 45, 46, 47, 48, 49, 50, 51, 52, 53, 54, 55, 56, 57, 58, 59, 60, 61, 62, 63, 64, 65, 66, 67, 68, 69, 70, 71, 72, 73, 74, 75, 76, 77, 78, 79, 80, 81, 82, 83, 84, 85, 86, 87, 88, 89, 90, 91, 92, 93, 94, 95, 96, 97, 98, 99, 100, 101, 102, 103, 104, 105, 106, 107, 108, 109, 110, 111, 112, 113, 114, 115, 116, 117, 118, 119, 120, 121, 122, 123, 124, 125, 126, 127, 128, 129, 130, 131, 132, 133, 134, 135, 136, 137, 138, 139, 140, 141, 142, 143, 144, 145, 146, 147, 148, 149, 150, 151, 152, 153, 154, 155, 156, 157, 158, 159, 160, 161, 162, 163, 164, 165, 166, 167, 168, 169, 170, 171, 172, 173, 174, 175, 176, 177, 178, 179, 180, 181, 182, 183, 184, 185, 186, 187, 188, 189, 190, 191, 192, 193, 194, 195, 196, 197, 198, 199, 200, 201, 202, 203, 204, 205, 206, 207, 208, 209, 210, 211, 212, 213, 214, 215, 216, 217, 218, 219, 220, 221, 222, 223, 224, 225, 226, 227, 228, 229, 230, 231, 232, 233, 234, 235, 236, 237, 238, 239, 240, 241, 242, 243, 244, 245, 246, 247, 248, 249, 250, 251, 252, 253, 254, 255, 256, 257, 258, 259, 260, 261, 262, 263, 264, 265, 266, 267, 268, 269, 270, 271, 272, 273, 274, 275, 276, 277, 278, 279, 280, 281, 282, 283, 284, 285, 286, 287, 288, 289, 290, 291, 292, 293, 294, 295, 296, 297, 298, 299, 300],
      "AcquisitionTime": ["150204.277500", "150205.277500", "150206.277500", "150207.277500", "150208.277500", "150209.277500", "150210.277500", "150211.277500", "150212.277500", "150213.277500", "150214.277500", "150215.277500", "150216.277500", "150217.277500", "150218.277500", "150219.277500", "150220.277500", "150221.277500", "150222.277500", "150223.277500", "150224.277500", "150225.277500", "150226.277500", "150227.277500", "150228.277500", "150229.277500", "150230.277500", "150231.277500", "150232.277500", "150233.277500", "150234.277500", "150235.277500", "150236.277500", "150237.277500", "150238.277500", "150239.277500", "150240.277500", "150241.277500", "150242.277500", "150243.277500", "150244.277500", "150245.277500", "150246.277500", "150247.277500", "150248.277500", "150249.277500", "150250.277500", "150251.277500", "150252.277500", "150253.277500", "150254.277500", "150255.277500", "150256.277500", "150257.277500", "150258.277500", "150259.277500", "150300.277500", "150301.277500", "150302.277500", "150303.277500", "150304.277500", "150305.277500", "150306.277500", "150307.277500", "150308.277500", "150309.277500", "150310.277500", "150311.277500", "150312.277500", "150313.277500", "150314.277500", "150315.277500", "150316.277500", "150317.277500", "150318.277500", "150319.277500", "150320.277500", "150321.277500", "150322.277500", "150323.277500", "150324.277500", "150325.277500", "150326.277500", "150327.277500", "150328.277500", "150329.277500", "150330.277500", "150331.277500", "150332.277500", "150333.277500", "150334.277500", "150335.277500", "150336.277500", "150337.277500", "150338.277500", "150339.277500", "150340.277500", "150341.277500", "150342.277500", "150343.277500", "150344.277500", "150345.277500", "150346.277500", "150347.277500", "150348.277500", "150349.277500", "150350.277500", "150351.277500", "150352.277500", "150353.277500", "150354.277500", "150355.277500", "150356.277500", "150357.277500", "150358.277500", "150359.277500", "150400.277500", "150401.277500", "150402.277500", "150403.277500", "150404.277500", "150405.277500", "150406.277500", "150407.277500", "150408.277500", "150409.277500", "150410.277500", "150411.277500", "150412.277500", "150413.277500", "150414.277500", "150415.277500", "150416.277500", "150417.277500", "150418.277500", "150419.277500", "150420.277500", "150421.277500", "150422.277500", "150423.277500", "150424.277500", "150425.277500", "150426.277500", "150427.277500", "150428.277500", "150429.277500", "150430.277500", "150431.277500", "150432.277500", "150433.277500", "150434.277500", "150435.277500", "150436.277500", "150437.277500", "150438.277500", "150439.277500", "150440.277500", "150441.277500", "150442.277500", "150443.277500", "150444.277500", "150445.277500", "150446.277500", "150447.277500", "150448.277500", "150449.277500", "150450.277500", "150451.277500", "150452.277500", "150453.277500", "150454.277500", "150455.277500", "150456.277500", "150457.277500", "150458.277500", "150459.277500", "150500.277500", "150501.277500", "150502.277500", "150503.277500", "150504.277500", "150505.277500", "150506.277500", "150507.277500", "150508.277500", "150509.277500", "150510.277500", "150511.277500", "150512.277500", "150513.277500", "150514.277500", "150515.277500", "150516.277500", "150517.277500", "150518.277500", "150519.277500", "150520.277500", "150521.277500", "150522.277500", "150523.277500", "150524.277500", "150525.277500", "150526.277500", "150527.277500", "150528.277500", "150529.277500", "150530.277500", "150531.277500", "150532.277500", "150533.277500", "150534.277500", "150535.277500", "150536.277500", "150537.277500", "150538.277500", "150539.277500", "150540.277500", "150541.277500", "150542.277500", "150543.277500", "150544.277500", "150545.277500", "150546.277500", "150547.277500", "150548.277500", "150549.277500", "150550.277500", "150551.277500", "150552.277500", "150553.277500", "150554.277500", "150555.277500", "150556.277500", "150557.277500", "150558.277500", "150559.277500", "150600.277500", "150601.277500", "150602.277500", "150603.277500", "150604.277500", "150605.277500", "150606.277500", "150607.277500", "150608.277500", "150609.277500", "150610.277500", "150611.277500", "150612.277500", "150613.277500", "150614.277500", "150615.277500", "150616.277500", "150617.277500", "150618.277500", "150619.277500", "150620.277500", "150621.277500", "150622.277500", "150623.277500", "150624.277500", "150625.277500", "150626.277500", "150627.277500", "150628.277500", "150629.277500", "150630.277500", "150631.277500", "150632.277500", "150633.277500", "150634.277500", "150635.277500", "150636.277500", "150637.277500", "150638.277500", "150639.277500", "150640.277500", "150641.277500", "150642.277500", "150643.277500", "150644.277500", "150645.277500", "150646.277500", "150647.277500", "150648.277500", "150649.277500", "150650.277500", "150651.277500", "150652.277500", "150653.277500", "150654.277500", "150655.277500", "150656.277500", "150657.277500", "150658.277500", "150659.277500", "150700.277500", "150701.277500", "150702.277500", "150703.277500"],
      "ContentTime": ["150313.016000", "150313.032000", "150313.035000", "150313.038000", "150313.041000", "150313.045000", "150313.049000", "150313.054000", "150313.063000", "150313.066000", "150313.069000", "150313.072000", "150313.075000", "150313.078000", "150313.081000", "150313.088000", "150313.091000", "150313.094000", "150313.097000", "150313.100000", "150313.103000", "150313.106000", "150313.109000", "150313.112000", "150313.115000", "150313.118000", "150332.981000", "150332.984000", "150332.987000", "150332.990000", "150332.993000", "150332.996000", "150333.000000", "150333.003000", "150333.006000", "150333.009000", "150333.016000", "150333.019000", "150333.022000", "150333.026000", "150333.029000", "150333.032000", "150333.035000", "150333.039000", "150333.042000", "150333.045000", "150333.048000", "150333.051000", "150333.054000", "150333.057000", "150333.060000", "150333.063000", "150333.066000", "150333.069000", "150333.072000", "150352.981000", "150352.984000", "150352.987000", "150352.990000", "150352.993000", "150352.996000", "150353.000000", "150353.003000", "150353.006000", "150353.009000", "150353.012000", "150353.015000", "150353.018000", "150353.021000", "150353.025000", "150353.029000", "150353.032000", "150353.035000", "150353.038000", "150353.041000", "150353.044000", "150353.053000", "150353.056000", "150353.059000", "150353.062000", "150353.065000", "150353.068000", "150353.071000", "150412.981000", "150412.984000", "150412.987000", "150412.990000", "150412.993000", "150412.996000", "150413.000000", "150413.003000", "150413.006000", "150413.009000", "150413.012000", "150413.015000", "150413.018000", "150413.021000", "150413.025000", "150413.029000", "150413.032000", "150413.035000", "150413.038000", "150413.041000", "150413.049000", "150413.052000", "150413.055000", "150413.058000", "150413.061000", "150413.064000", "150413.067000", "150413.070000", "150432.980000", "150432.983000", "150432.986000", "150432.989000", "150432.992000", "150432.995000", "150432.998000", "150433.008000", "150433.011000", "150433.014000", "150433.017000", "150433.021000", "150433.025000", "150433.028000", "150433.031000", "150433.034000", "150433.037000", "150433.041000", "150433.044000", "150433.047000", "150433.052000", "150433.057000", "150433.061000", "150433.064000", "150433.067000", "150433.070000", "150433.073000", "150433.076000", "150452.980000", "150452.983000", "150452.986000", "150452.989000", "150452.992000", "150452.995000", "150452.998000", "150453.002000", "150453.005000", "150453.008000", "150453.011000", "150453.014000", "150453.017000", "150453.020000", "150453.025000", "150453.028000", "150453.031000", "150453.034000", "150453.055000", "150453.058000", "150453.061000", "150453.064000", "150453.067000", "150453.070000", "150453.073000", "150453.076000", "150453.079000", "150453.082000", "150512.980000", "150512.983000", "150512.986000", "150512.989000", "150512.992000", "150512.995000", "150512.998000", "150513.002000", "150513.005000", "150513.008000", "150513.011000", "150513.014000", "150513.017000", "150513.021000", "150513.025000", "150513.028000", "150513.032000", "150513.035000", "150513.038000", "150513.041000", "150532.981000", "150532.984000", "150532.987000", "150532.990000", "150532.993000", "150532.996000", "150532.999000", "150533.002000", "150533.005000", "150533.008000", "150533.011000", "150533.014000", "150533.017000", "150533.020000", "150533.024000", "150533.028000", "150533.031000", "150533.034000", "150533.037000", "150533.040000", "150552.981000", "150552.984000", "150552.987000", "150552.990000", "150552.993000", "150552.996000", "150553.000000", "150553.003000", "150553.006000", "150553.009000", "150553.012000", "150553.015000", "150553.018000", "150553.021000", "150553.025000", "150553.028000", "150553.032000", "150553.035000", "150553.038000", "150553.041000", "150612.981000", "150612.984000", "150612.987000", "150612.990000", "150612.993000", "150612.996000", "150613.000000", "150613.003000", "150613.006000", "150613.009000", "150613.013000", "150613.016000", "150613.019000", "150613.022000", "150613.026000", "150613.029000", "150613.033000", "150613.036000", "150613.039000", "150613.042000", "150632.981000", "150632.984000", "150632.987000", "150632.990000", "150632.993000", "150632.996000", "150633.000000", "150633.003000", "150633.006000", "150633.009000", "150633.012000", "150633.015000", "150633.018000", "150633.021000", "150633.026000", "150633.029000", "150633.032000", "150633.035000", "150633.038000", "150633.042000", "150652.980000", "150652.983000", "150652.986000", "150652.989000", "150652.992000", "150652.995000", "150652.998000", "150653.002000", "150653.005000", "150653.008000", "150653.011000", "150653.014000", "150653.017000", "150653.020000", "150653.025000", "150653.028000", "150653.031000", "150653.034000", "150653.037000", "150653.040000", "150705.211000", "150705.214000", "150705.217000", "150705.221000", "150705.224000", "150705.226000", "150705.230000", "150705.233000", "150705.236000", "150705.239000", "150705.242000", "150705.245000", "150705.248000"],
      "InstanceCreationTime": ["150313.016000", "150313.032000", "150313.035000", "150313.038000", "150313.041000", "150313.045000", "150313.049000", "150313.054000", "150313.063000", "150313.066000", "150313.069000", "150313.072000", "150313.075000", "150313.078000", "150313.081000", "150313.088000", "150313.091000", "150313.094000", "150313.097000", "150313.100000", "150313.103000", "150313.106000", "150313.109000", "150313.112000", "150313.115000", "150313.118000", "150332.981000", "150332.984000", "150332.987000", "150332.990000", "150332.993000", "150332.996000", "150333.000000", "150333.003000", "150333.006000", "150333.009000", "150333.016000", "150333.019000", "150333.022000", "150333.026000", "150333.029000", "150333.032000", "150333.035000", "150333.039000", "150333.042000", "150333.045000", "150333.048000", "150333.051000", "150333.054000", "150333.057000", "150333.060000", "150333.063000", "150333.066000", "150333.069000", "150333.072000", "150352.981000", "150352.984000", "150352.987000", "150352.990000", "150352.993000", "150352.996000", "150353.000000", "150353.003000", "150353.006000", "150353.009000", "150353.012000", "150353.015000", "150353.018000", "150353.021000", "150353.025000", "150353.029000", "150353.032000", "150353.035000", "150353.038000", "150353.041000", "150353.044000", "150353.053000", "150353.056000", "150353.059000", "150353.062000", "150353.065000", "150353.068000", "150353.071000", "150412.981000", "150412.984000", "150412.987000", "150412.990000", "150412.993000", "150412.996000", "150413.000000", "150413.003000", "150413.006000", "150413.009000", "150413.012000", "150413.015000", "150413.018000", "150413.021000", "150413.025000", "150413.029000", "150413.032000", "150413.035000", "150413.038000", "150413.041000", "150413.049000", "150413.052000", "150413.055000", "150413.058000", "150413.061000", "150413.064000", "150413.067000", "150413.070000", "150432.980000", "150432.983000", "150432.986000", "150432.989000", "150432.992000", "150432.995000", "150432.998000", "150433.008000", "150433.011000", "150433.014000", "150433.017000", "150433.021000", "150433.025000", "150433.028000", "150433.031000", "150433.034000", "150433.037000", "150433.041000", "150433.044000", "150433.047000", "150433.052000", "150433.057000", "150433.061000", "150433.064000", "150433.067000", "150433.070000", "150433.073000", "150433.076000", "150452.980000", "150452.983000", "150452.986000", "150452.989000", "150452.992000", "150452.995000", "150452.998000", "150453.002000", "150453.005000", "150453.008000", "150453.011000", "150453.014000", "150453.017000", "150453.020000", "150453.025000", "150453.028000", "150453.031000", "150453.034000", "150453.055000", "150453.058000", "150453.061000", "150453.064000", "150453.067000", "150453.070000", "150453.073000", "150453.076000", "150453.079000", "150453.082000", "150512.980000", "150512.983000", "150512.986000", "150512.989000", "150512.992000", "150512.995000", "150512.998000", "150513.002000", "150513.005000", "150513.008000", "150513.011000", "150513.014000", "150513.017000", "150513.021000", "150513.025000", "150513.028000", "150513.032000", "150513.035000", "150513.038000", "150513.041000", "150532.981000", "150532.984000", "150532.987000", "150532.990000", "150532.993000", "150532.996000", "150532.999000", "150533.002000", "150533.005000", "150533.008000", "150533.011000", "150533.014000", "150533.017000", "150533.020000", "150533.024000", "150533.028000", "150533.031000", "150533.034000", "150533.037000", "150533.040000", "150552.981000", "150552.984000", "150552.987000", "150552.990000", "150552.993000", "150552.996000", "150553.000000", "150553.003000", "150553.006000", "150553.009000", "150553.012000", "150553.015000", "150553.018000", "150553.021000", "150553.025000", "150553.028000", "150553.032000", "150553.035000", "150553.038000", "150553.041000", "150612.981000", "150612.984000", "150612.987000", "150612.990000", "150612.993000", "150612.996000", "150613.000000", "150613.003000", "150613.006000", "150613.009000", "150613.013000", "150613.016000", "150613.019000", "150613.022000", "150613.026000", "150613.029000", "150613.033000", "150613.036000", "150613.039000", "150613.042000", "150632.981000", "150632.984000", "150632.987000", "150632.990000", "150632.993000", "150632.996000", "150633.000000", "150633.003000", "150633.006000", "150633.009000", "150633.012000", "150633.015000", "150633.018000", "150633.021000", "150633.026000", "150633.029000", "150633.032000", "150633.035000", "150633.038000", "150633.042000", "150652.980000", "150652.983000", "150652.986000", "150652.989000", "150652.992000", "150652.995000", "150652.998000", "150653.002000", "150653.005000", "150653.008000", "150653.011000", "150653.014000", "150653.017000", "150653.020000", "150653.025000", "150653.028000", "150653.031000", "150653.034000", "150653.037000", "150653.040000", "150705.211000", "150705.214000", "150705.217000", "150705.221000", "150705.224000", "150705.226000", "150705.230000", "150705.233000", "150705.236000", "150705.239000", "150705.242000", "150705.245000", "150705.248000"],
      "InstanceNumber": [1, 2, 3, 4, 5, 6, 7, 8, 9, 10, 11, 12, 13, 14, 15, 16, 17, 18, 19, 20, 21, 22, 23, 24, 25, 26, 27, 28, 29, 30, 31, 32, 33, 34, 35, 36, 37, 38, 39, 40, 41, 42, 43, 44, 45, 46, 47, 48, 49, 50, 51, 52, 53, 54, 55, 56, 57, 58, 59, 60, 61, 62, 63, 64, 65, 66, 67, 68, 69, 70, 71, 72, 73, 74, 75, 76, 77, 78, 79, 80, 81, 82, 83, 84, 85, 86, 87, 88, 89, 90, 91, 92, 93, 94, 95, 96, 97, 98, 99, 100, 101, 102, 103, 104, 105, 106, 107, 108, 109, 110, 111, 112, 113, 114, 115, 116, 117, 118, 119, 120, 121, 122, 123, 124, 125, 126, 127, 128, 129, 130, 131, 132, 133, 134, 135, 136, 137, 138, 139, 140, 141, 142, 143, 144, 145, 146, 147, 148, 149, 150, 151, 152, 153, 154, 155, 156, 157, 158, 159, 160, 161, 162, 163, 164, 165, 166, 167, 168, 169, 170, 171, 172, 173, 174, 175, 176, 177, 178, 179, 180, 181, 182, 183, 184, 185, 186, 187, 188, 189, 190, 191, 192, 193, 194, 195, 196, 197, 198, 199, 200, 201, 202, 203, 204, 205, 206, 207, 208, 209, 210, 211, 212, 213, 214, 215, 216, 217, 218, 219, 220, 221, 222, 223, 224, 225, 226, 227, 228, 229, 230, 231, 232, 233, 234, 235, 236, 237, 238, 239, 240, 241, 242, 243, 244, 245, 246, 247, 248, 249, 250, 251, 252, 253, 254, 255, 256, 257, 258, 259, 260, 261, 262, 263, 264, 265, 266, 267, 268, 269, 270, 271, 272, 273, 274, 275, 276, 277, 278, 279, 280, 281, 282, 283, 284, 285, 286, 287, 288, 289, 290, 291, 292, 293, 294, 295, 296, 297, 298, 299, 300],
      "LargestImagePixelValue": [39539, 38958, 38696, 37505, 36718, 36680, 37178, 37120, 36452, 37422, 36870, 36834, 37018, 37347, 36534, 37150, 37304, 36429, 36423, 37234, 36469, 36689, 37205, 36692, 36356, 36998, 37381, 37104, 36429, 36848, 37081, 37138, 36612, 36458, 36845, 37119, 36712, 36534, 36496, 36822, 37242, 36165, 36481, 36834, 37162, 36554, 36445, 37587, 37012, 36820, 37368, 37138, 36995, 36662, 37171, 36849, 36809, 37219, 36929, 36858, 36977, 37356, 36600, 37199, 37104, 36896, 37213, 37502, 37013, 37332, 37315, 36690, 36834, 37105, 36405, 37371, 36828, 36516, 37366, 36914, 36608, 37512, 36761, 36602, 37399, 37343, 36751, 37260, 37007, 36998, 37010, 36558, 36730, 37320, 36495, 37167, 36779, 36601, 37230, 36422, 36491, 37082, 36837, 36910, 36839, 36826, 36795, 37164, 36676, 36684, 36982, 36678, 36799, 37051, 36584, 37020, 37179, 36768, 36614, 37083, 36484, 36397, 36959, 36217, 36700, 36957, 36692, 37000, 37232, 36527, 36495, 36561, 36680, 36944, 37033, 37038, 36596, 36542, 37159, 36890, 36574, 36948, 36978, 36697, 36801, 37060, 36898, 36800, 37653, 37087, 37007, 37864, 36943, 36593, 37159, 36854, 36715, 37324, 37246, 36897, 37748, 36927, 36682, 37232, 36655, 36796, 37077, 36809, 36129, 37018, 37280, 37129, 36466, 37164, 37058, 36231, 36799, 36584, 37298, 37176, 36725, 36342, 36678, 37084, 36732, 36504, 37732, 36669, 36994, 37274, 36701, 36352, 36781, 36597, 36768, 36952, 36727, 37004, 37320, 37084, 37407, 36870, 37224, 37096, 36846, 36640, 36911, 37108, 37232, 37141, 37149, 37046, 37328, 37922, 37713, 37494, 37519, 37291, 37367, 38192, 37819, 37429, 37441, 36916, 36750, 36586, 36961, 37301, 37407, 36943, 36652, 39225, 38252, 38199, 37595, 37520, 37660, 37459, 37454, 37412, 37341, 37698, 37548, 37560, 37020, 37198, 37240, 36978, 38063, 37350, 38034, 37521, 37421, 38742, 41760, 38323, 37193, 37280, 37713, 37269, 37029, 37307, 37352, 37856, 37238, 37114, 37016, 37380, 37368, 37414, 37626, 37421, 37513, 37521, 37241, 36873, 37050, 36946, 36776, 37208, 37631, 37657, 37447, 38107, 37749, 37650, 38058, 37676, 37741, 37549, 37524, 37805, 37371, 36971, 37545, 37219, 37468, 38037, 38183, 38022],
      "WindowCenter": [10456.0, 10411.0, 10395.0, 10351.0, 10329.0, 10316.0, 10303.0, 10292.0, 10292.0, 10320.0, 10324.0, 10341.0, 10357.0, 10366.0, 10356.0, 10359.0, 10356.0, 10337.0, 10337.0, 10334.0, 10322.0, 10329.0, 10338.0, 10337.0, 10348.0, 10352.0, 10357.0, 10341.0, 10329.0, 10335.0, 10335.0, 10315.0, 10294.0, 10301.0, 10307.0, 10316.0, 10308.0, 10310.0, 10312.0, 10304.0, 10284.0, 10263.0, 10271.0, 10269.0, 10285.0, 10291.0, 10315.0, 10339.0, 10346.0, 10342.0, 10337.0, 10323.0, 10314.0, 10307.0, 10312.0, 10299.0, 10305.0, 10313.0, 10308.0, 10308.0, 10322.0, 10319.0, 10310.0, 10322.0, 10324.0, 10329.0, 10336.0, 10333.0, 10330.0, 10322.0, 10327.0, 10313.0, 10309.0, 10328.0, 10326.0, 10332.0, 10325.0, 10318.0, 10312.0, 10298.0, 10297.0, 10308.0, 10314.0, 10333.0, 10344.0, 10339.0, 10333.0, 10307.0, 10300.0, 10288.0, 10295.0, 10313.0, 10335.0, 10354.0, 10345.0, 10333.0, 10310.0, 10300.0, 10287.0, 10275.0, 10280.0, 10293.0, 10302.0, 10304.0, 10314.0, 10315.0, 10313.0, 10315.0, 10314.0, 10299.0, 10303.0, 10288.0, 10281.0, 10294.0, 10289.0, 10302.0, 10312.0, 10327.0, 10326.0, 10338.0, 10327.0, 10326.0, 10326.0, 10320.0, 10318.0, 10310.0, 10302.0, 10311.0, 10313.0, 10317.0, 10324.0, 10335.0, 10339.0, 10310.0, 10307.0, 10293.0, 10299.0, 10310.0, 10337.0, 10325.0, 10319.0, 10311.0, 10293.0, 10284.0, 10283.0, 10296.0, 10300.0, 10315.0, 10329.0, 10331.0, 10324.0, 10329.0, 10316.0, 10311.0, 10324.0, 10317.0, 10334.0, 10342.0, 10335.0, 10335.0, 10332.0, 10319.0, 10304.0, 10305.0, 10306.0, 10314.0, 10323.0, 10332.0, 10329.0, 10333.0, 10338.0, 10334.0, 10336.0, 10350.0, 10343.0, 10338.0, 10334.0, 10336.0, 10326.0, 10308.0, 10292.0, 10292.0, 10298.0, 10315.0, 10308.0, 10316.0, 10333.0, 10326.0, 10325.0, 10317.0, 10311.0, 10303.0, 10311.0, 10306.0, 10303.0, 10312.0, 10319.0, 10335.0, 10343.0, 10330.0, 10335.0, 10327.0, 10335.0, 10338.0, 10345.0, 10349.0, 10347.0, 10342.0, 10338.0, 10330.0, 10328.0, 10335.0, 10333.0, 10335.0, 10342.0, 10366.0, 10366.0, 10370.0, 10375.0, 10392.0, 10396.0, 10375.0, 10359.0, 10336.0, 10335.0, 10335.0, 10357.0, 10349.0, 10362.0, 10348.0, 10154.0, 10380.0, 10325.0, 10319.0, 10313.0, 10321.0, 10344.0, 10343.0, 10334.0, 10324.0, 10308.0, 10300.0, 10287.0, 10278.0, 10262.0, 10254.0, 10252.0, 10259.0, 10266.0, 10275.0, 10295.0, 10294.0, 10293.0, 9768.0, 10402.0, 10253.0, 10258.0, 10308.0, 10353.0, 10385.0, 10398.0, 10393.0, 10377.0, 10360.0, 10339.0, 10328.0, 10326.0, 10317.0, 10318.0, 10322.0, 10330.0, 10317.0, 10311.0, 10299.0, 10278.0, 10268.0, 10267.0, 10268.0, 10279.0, 10311.0, 10341.0, 10352.0, 10354.0, 10362.0, 10364.0, 10362.0, 10357.0, 10342.0, 10333.0, 10317.0, 10309.0, 10295.0, 10302.0, 10303.0, 10318.0, 10327.0, 10333.0, 10357.0, 10359.0, 10362.0],
