{
  "AcquisitionMatrixPE": 104,
  "AcquisitionNumber": 1,
  "AcquisitionTime": "14:49:46.627500",
  "BandwidthPerPixelPhaseEncode": 16.297,
  "BaseResolution": 104,
  "BodyPartExamined": "BRAIN",
  "ConsistencyInfo": "N4_VE11C_LATEST_20160120",
  "ConversionSoftware": "dcm2niix",
  "ConversionSoftwareVersion": "v1.0.20210317",
  "DerivedVendorReportedEchoSpacing": 0.000590009,
  "DeviceSerialNumber": "166018",
  "DwellTime": 2.1e-06,
  "EchoTime": 0.0376,
  "EchoTrainLength": 104,
  "EffectiveEchoSpacing": 0.000590009,
  "FlipAngle": 68,
  "ImageComments": "Unaliased MB6/PE3/LB",
  "ImageOrientationPatientDICOM": [0.999725, 0.0231718, 0.00356194, -0.0223378, 0.987615, -0.155299],
  "ImageType": [
    "ORIGINAL",
    "PRIMARY",
    "M",
    "MB",
    "ND",
    "MOSAIC"
],
  "ImagingFrequency": 123.197,
  "InPlanePhaseEncodingDirectionDICOM": "COL",
  "InstitutionAddress": "Washington Place 6,NYC,NYC,US,10003",
  "InstitutionName": "NYU - CBI",
  "InstitutionalDepartmentName": "Department",
  "MRAcquisitionType": "2D",
  "MagneticFieldStrength": 3,
  "Manufacturer": "Siemens",
  "ManufacturersModelName": "Prisma",
  "Modality": "MR",
  "MultibandAccelerationFactor": 6,
  "PartialFourier": 1,
  "PatientPosition": "HFS",
  "PercentPhaseFOV": 100,
  "PercentSampling": 100,
  "PhaseEncodingDirection": "j",
  "PhaseEncodingSteps": 104,
  "PhaseResolution": 1,
  "PixelBandwidth": 2290,
  "ProcedureStepDescription": "Investigators^Winawer",
  "ProtocolName": "cmrr_mbepi_s6_2mm_66sl_PA_task-wedgering1",
  "PulseSequenceDetails": "%CustomerSeq%\\cmrr_mbep2d_bold",
  "ReceiveCoilActiveElements": "HC1-7",
  "ReceiveCoilName": "HeadNeck_64",
  "ReconMatrixPE": 104,
  "RepetitionTime": 1,
  "SAR": 0.079926,
  "ScanOptions": "FS",
  "ScanningSequence": "EP",
  "SequenceName": "epfid2d1_104",
  "SequenceVariant": "SK\\SS",
  "SeriesDescription": "cmrr_mbepi_s6_2mm_66sl_PA_task-wedgering1",
  "SeriesNumber": 10,
  "ShimSetting": [311, -12527, -8503, 393, 47, 115, -115, -19],
  "SliceThickness": 2,
  "SliceTiming": [0, 0.535, 0.09, 0.625, 0.1775, 0.7125, 0.2675, 0.8025, 0.3575, 0.89, 0.445, 0, 0.535, 0.09, 0.625, 0.1775, 0.7125, 0.2675, 0.8025, 0.3575, 0.89, 0.445, 0, 0.535, 0.09, 0.625, 0.1775, 0.7125, 0.2675, 0.8025, 0.3575, 0.89, 0.445, 0, 0.535, 0.09, 0.625, 0.1775, 0.7125, 0.2675, 0.8025, 0.3575, 0.89, 0.445, 0, 0.535, 0.09, 0.625, 0.1775, 0.7125, 0.2675, 0.8025, 0.3575, 0.89, 0.445, 0, 0.535, 0.09, 0.625, 0.1775, 0.7125, 0.2675, 0.8025, 0.3575, 0.89, 0.445],
  "SoftwareVersions": "syngo MR E11",
  "SpacingBetweenSlices": 2,
  "StationName": "AWP166018",
  "TaskName": "wedgering1",
  "TotalReadoutTime": 0.060771,
  "TxRefAmp": 226.467,
  "VendorReportedEchoSpacing": 0.00059,
  "WipMemBlock": "4f18488a-40bc-41eb-b4d2-a80ddc6edd9f||Sequence: R016 ve11c/master r/8780670; Nov 27 2017 15:05:12 by eja",
  "dcmmeta_affine": [
    [-1.9994503259658813, -0.04467553272843361, 0.014232752844691277, 108.60820770263672],
    [-0.04634355381131172, 1.9752298593521118, -0.3103536069393158, -69.26798248291016],
    [0.007123873103410006, 0.31059810519218445, 1.9757221937179565, -61.64011001586914],
    [0.0, 0.0, 0.0, 1.0]
],
  "dcmmeta_reorient_transform": [
    [0.0, -1.0, 0.0, 103.0],
    [1.0, 0.0, 0.0, 0.0],
    [0.0, 0.0, 1.0, 0.0],
    [0.0, 0.0, 0.0, 1.0]
],
  "dcmmeta_shape": [104, 104, 66, 300],
  "dcmmeta_slice_dim": 2,
  "dcmmeta_version": 0.6,
  "global": {
    "const": {
      "AccessionNumber": "Lesyk7be",
      "AcquisitionMatrix": [104, 0, 0, 104],
      "AngioFlag": "N",
      "BitsAllocated": 16,
      "BitsStored": 16,
      "BodyPartExamined": "BRAIN",
      "Columns": 936,
      "EchoNumbers": 1,
      "EchoTime": 37.6,
      "EchoTrainLength": 104,
      "FlipAngle": 68.0,
      "HighBit": 15,
      "ImageOrientationPatient": [0.99972515292378, 0.02317177636514, 0.00356193649675, -0.0223377661658, 0.98761491952668, -0.1552990500004],
      "ImagePositionPatient": [-917.19293522255, -975.15522529969, 96.596773352983],
      "ImageType": [
        "ORIGINAL",
        "PRIMARY",
        "M",
        "MB",
        "ND",
        "MOSAIC"
],
      "ImagedNucleus": "1H",
      "ImagingFrequency": 123.196865,
      "InPlanePhaseEncodingDirection": "COL",
      "MRAcquisitionType": "2D",
      "MagneticFieldStrength": 3.0,
      "Manufacturer": "SIEMENS",
      "ManufacturerModelName": "Prisma",
      "Modality": "MR",
      "NumberOfAverages": 1.0,
      "NumberOfPhaseEncodingSteps": 104,
      "PercentPhaseFieldOfView": 100.0,
      "PercentSampling": 100.0,
      "PerformedProcedureStepStartTime": "143710.221000",
      "PhotometricInterpretation": "MONOCHROME2",
      "PixelBandwidth": 2290.0,
      "PixelRepresentation": 0,
      "PixelSpacing": [2.0, 2.0],
      "ProtocolName": "cmrr_mbepi_s6_2mm_66sl_PA_task-wedgering1",
      "RepetitionTime": 1000.0,
      "Rows": 936,
      "SAR": 0.07992602501546,
      "SamplesPerPixel": 1,
      "ScanOptions": "FS",
      "ScanningSequence": "EP",
      "SequenceName": "epfid2d1_104",
      "SequenceVariant": [
        "SK",
        "SS"
],
      "SeriesDescription": "cmrr_mbepi_s6_2mm_66sl_PA_task-wedgering1",
      "SeriesNumber": 10,
      "SeriesTime": "145052.878000",
      "SliceLocation": -49.370184857626,
      "SliceThickness": 2.0,
      "SmallestImagePixelValue": 0,
      "SoftwareVersions": "syngo MR E11",
      "SpacingBetweenSlices": 1.9999999851331,
      "SpecificCharacterSet": "ISO_IR 100",
      "StudyID": "1",
      "StudyTime": "143710.077000",
      "TransmitCoilName": "Body",
      "VariableFlipAngleFlag": "N",
      "WindowCenterWidthExplanation": "Algo1",
      "dBdt": 0.0},
    "slices": {}
  },
  "time": {
    "samples": {
      "AcquisitionNumber": [1, 2, 3, 4, 5, 6, 7, 8, 9, 10, 11, 12, 13, 14, 15, 16, 17, 18, 19, 20, 21, 22, 23, 24, 25, 26, 27, 28, 29, 30, 31, 32, 33, 34, 35, 36, 37, 38, 39, 40, 41, 42, 43, 44, 45, 46, 47, 48, 49, 50, 51, 52, 53, 54, 55, 56, 57, 58, 59, 60, 61, 62, 63, 64, 65, 66, 67, 68, 69, 70, 71, 72, 73, 74, 75, 76, 77, 78, 79, 80, 81, 82, 83, 84, 85, 86, 87, 88, 89, 90, 91, 92, 93, 94, 95, 96, 97, 98, 99, 100, 101, 102, 103, 104, 105, 106, 107, 108, 109, 110, 111, 112, 113, 114, 115, 116, 117, 118, 119, 120, 121, 122, 123, 124, 125, 126, 127, 128, 129, 130, 131, 132, 133, 134, 135, 136, 137, 138, 139, 140, 141, 142, 143, 144, 145, 146, 147, 148, 149, 150, 151, 152, 153, 154, 155, 156, 157, 158, 159, 160, 161, 162, 163, 164, 165, 166, 167, 168, 169, 170, 171, 172, 173, 174, 175, 176, 177, 178, 179, 180, 181, 182, 183, 184, 185, 186, 187, 188, 189, 190, 191, 192, 193, 194, 195, 196, 197, 198, 199, 200, 201, 202, 203, 204, 205, 206, 207, 208, 209, 210, 211, 212, 213, 214, 215, 216, 217, 218, 219, 220, 221, 222, 223, 224, 225, 226, 227, 228, 229, 230, 231, 232, 233, 234, 235, 236, 237, 238, 239, 240, 241, 242, 243, 244, 245, 246, 247, 248, 249, 250, 251, 252, 253, 254, 255, 256, 257, 258, 259, 260, 261, 262, 263, 264, 265, 266, 267, 268, 269, 270, 271, 272, 273, 274, 275, 276, 277, 278, 279, 280, 281, 282, 283, 284, 285, 286, 287, 288, 289, 290, 291, 292, 293, 294, 295, 296, 297, 298, 299, 300],
      "AcquisitionTime": ["144946.627500", "144947.627500", "144948.627500", "144949.627500", "144950.627500", "144951.627500", "144952.627500", "144953.627500", "144954.627500", "144955.627500", "144956.627500", "144957.627500", "144958.627500", "144959.627500", "145000.627500", "145001.627500", "145002.627500", "145003.627500", "145004.627500", "145005.627500", "145006.627500", "145007.627500", "145008.627500", "145009.627500", "145010.627500", "145011.627500", "145012.627500", "145013.627500", "145014.627500", "145015.627500", "145016.627500", "145017.627500", "145018.627500", "145019.627500", "145020.627500", "145021.627500", "145022.627500", "145023.627500", "145024.627500", "145025.627500", "145026.627500", "145027.627500", "145028.627500", "145029.627500", "145030.627500", "145031.627500", "145032.627500", "145033.627500", "145034.627500", "145035.627500", "145036.627500", "145037.627500", "145038.627500", "145039.627500", "145040.627500", "145041.627500", "145042.627500", "145043.627500", "145044.627500", "145045.627500", "145046.627500", "145047.627500", "145048.627500", "145049.627500", "145050.627500", "145051.627500", "145052.627500", "145053.627500", "145054.627500", "145055.627500", "145056.627500", "145057.627500", "145058.627500", "145059.627500", "145100.627500", "145101.627500", "145102.627500", "145103.627500", "145104.627500", "145105.627500", "145106.627500", "145107.627500", "145108.627500", "145109.627500", "145110.627500", "145111.627500", "145112.627500", "145113.627500", "145114.627500", "145115.627500", "145116.627500", "145117.627500", "145118.627500", "145119.627500", "145120.627500", "145121.627500", "145122.627500", "145123.627500", "145124.627500", "145125.627500", "145126.627500", "145127.627500", "145128.627500", "145129.627500", "145130.627500", "145131.627500", "145132.627500", "145133.627500", "145134.627500", "145135.627500", "145136.627500", "145137.627500", "145138.627500", "145139.627500", "145140.627500", "145141.627500", "145142.627500", "145143.627500", "145144.627500", "145145.627500", "145146.627500", "145147.627500", "145148.627500", "145149.627500", "145150.627500", "145151.627500", "145152.627500", "145153.627500", "145154.627500", "145155.627500", "145156.627500", "145157.627500", "145158.627500", "145159.627500", "145200.627500", "145201.627500", "145202.627500", "145203.627500", "145204.627500", "145205.627500", "145206.627500", "145207.627500", "145208.627500", "145209.627500", "145210.627500", "145211.627500", "145212.627500", "145213.627500", "145214.627500", "145215.627500", "145216.627500", "145217.627500", "145218.627500", "145219.627500", "145220.627500", "145221.627500", "145222.627500", "145223.627500", "145224.627500", "145225.627500", "145226.627500", "145227.627500", "145228.627500", "145229.627500", "145230.627500", "145231.627500", "145232.627500", "145233.627500", "145234.627500", "145235.627500", "145236.627500", "145237.627500", "145238.627500", "145239.627500", "145240.627500", "145241.627500", "145242.627500", "145243.627500", "145244.627500", "145245.627500", "145246.627500", "145247.627500", "145248.627500", "145249.627500", "145250.627500", "145251.627500", "145252.627500", "145253.627500", "145254.627500", "145255.627500", "145256.627500", "145257.627500", "145258.627500", "145259.627500", "145300.627500", "145301.627500", "145302.627500", "145303.627500", "145304.627500", "145305.627500", "145306.627500", "145307.627500", "145308.627500", "145309.627500", "145310.627500", "145311.627500", "145312.627500", "145313.627500", "145314.627500", "145315.627500", "145316.627500", "145317.627500", "145318.627500", "145319.627500", "145320.627500", "145321.627500", "145322.627500", "145323.627500", "145324.627500", "145325.627500", "145326.627500", "145327.627500", "145328.627500", "145329.627500", "145330.627500", "145331.627500", "145332.627500", "145333.627500", "145334.627500", "145335.627500", "145336.627500", "145337.627500", "145338.627500", "145339.627500", "145340.627500", "145341.627500", "145342.627500", "145343.627500", "145344.627500", "145345.627500", "145346.627500", "145347.627500", "145348.627500", "145349.627500", "145350.627500", "145351.627500", "145352.627500", "145353.627500", "145354.627500", "145355.627500", "145356.627500", "145357.627500", "145358.627500", "145359.627500", "145400.627500", "145401.627500", "145402.627500", "145403.627500", "145404.627500", "145405.627500", "145406.627500", "145407.627500", "145408.627500", "145409.627500", "145410.627500", "145411.627500", "145412.627500", "145413.627500", "145414.627500", "145415.627500", "145416.627500", "145417.627500", "145418.627500", "145419.627500", "145420.627500", "145421.627500", "145422.627500", "145423.627500", "145424.627500", "145425.627500", "145426.627500", "145427.627500", "145428.627500", "145429.627500", "145430.627500", "145431.627500", "145432.627500", "145433.627500", "145434.627500", "145435.627500", "145436.627500", "145437.627500", "145438.627500", "145439.627500", "145440.627500", "145441.627500", "145442.627500", "145443.627500", "145444.627500", "145445.627500"],
      "ContentTime": ["145052.881000", "145052.884000", "145052.887000", "145052.890000", "145052.893000", "145052.896000", "145052.899000", "145052.902000", "145052.905000", "145052.908000", "145052.917000", "145052.920000", "145052.923000", "145052.926000", "145052.929000", "145052.932000", "145052.935000", "145052.938000", "145052.941000", "145052.944000", "145052.947000", "145052.950000", "145052.953000", "145052.956000", "145112.835000", "145112.838000", "145112.841000", "145112.844000", "145112.847000", "145112.850000", "145112.853000", "145112.856000", "145112.859000", "145112.862000", "145112.867000", "145112.870000", "145112.873000", "145112.876000", "145112.879000", "145112.882000", "145112.885000", "145112.888000", "145112.891000", "145112.894000", "145112.897000", "145112.900000", "145112.903000", "145112.906000", "145112.909000", "145112.912000", "145112.915000", "145112.918000", "145112.922000", "145132.835000", "145132.838000", "145132.841000", "145132.844000", "145132.847000", "145132.850000", "145132.853000", "145132.856000", "145132.859000", "145132.862000", "145132.866000", "145132.869000", "145132.872000", "145132.875000", "145132.878000", "145132.881000", "145132.884000", "145132.887000", "145132.904000", "145132.907000", "145132.910000", "145132.913000", "145132.916000", "145132.919000", "145132.922000", "145132.925000", "145132.928000", "145132.931000", "145152.836000", "145152.839000", "145152.842000", "145152.845000", "145152.848000", "145152.851000", "145152.854000", "145152.857000", "145152.860000", "145152.863000", "145152.868000", "145152.871000", "145152.874000", "145152.877000", "145152.880000", "145152.883000", "145152.886000", "145152.889000", "145152.892000", "145152.895000", "145152.898000", "145152.906000", "145152.909000", "145152.912000", "145152.915000", "145152.918000", "145152.922000", "145152.925000", "145212.836000", "145212.839000", "145212.842000", "145212.845000", "145212.848000", "145212.851000", "145212.854000", "145212.857000", "145212.860000", "145212.863000", "145212.867000", "145212.870000", "145212.873000", "145212.876000", "145212.879000", "145212.882000", "145212.889000", "145212.892000", "145212.894000", "145212.897000", "145212.901000", "145212.904000", "145212.907000", "145212.910000", "145212.913000", "145212.916000", "145212.919000", "145212.922000", "145232.836000", "145232.839000", "145232.842000", "145232.845000", "145232.848000", "145232.851000", "145232.854000", "145232.857000", "145232.860000", "145232.864000", "145232.868000", "145232.871000", "145232.874000", "145232.877000", "145232.880000", "145232.883000", "145232.886000", "145232.889000", "145232.892000", "145232.895000", "145232.898000", "145232.901000", "145232.904000", "145232.907000", "145232.910000", "145232.913000", "145232.916000", "145232.919000", "145252.835000", "145252.838000", "145252.841000", "145252.844000", "145252.847000", "145252.852000", "145252.855000", "145252.858000", "145252.861000", "145252.865000", "145252.869000", "145252.872000", "145252.875000", "145252.878000", "145252.881000", "145252.884000", "145252.887000", "145252.890000", "145252.893000", "145252.896000", "145312.835000", "145312.838000", "145312.841000", "145312.844000", "145312.847000", "145312.850000", "145312.853000", "145312.856000", "145312.859000", "145312.862000", "145312.867000", "145312.870000", "145312.873000", "145312.876000", "145312.879000", "145312.882000", "145312.885000", "145312.888000", "145312.891000", "145312.894000", "145332.835000", "145332.838000", "145332.841000", "145332.844000", "145332.847000", "145332.850000", "145332.853000", "145332.856000", "145332.859000", "145332.869000", "145332.872000", "145332.875000", "145332.878000", "145332.881000", "145332.884000", "145332.887000", "145332.891000", "145332.894000", "145332.897000", "145332.900000", "145352.835000", "145352.838000", "145352.841000", "145352.844000", "145352.847000", "145352.851000", "145352.854000", "145352.857000", "145352.860000", "145352.864000", "145352.867000", "145352.870000", "145352.873000", "145352.876000", "145352.879000", "145352.883000", "145352.886000", "145352.889000", "145352.892000", "145352.895000", "145412.836000", "145412.839000", "145412.842000", "145412.845000", "145412.848000", "145412.851000", "145412.854000", "145412.857000", "145412.860000", "145412.880000", "145412.883000", "145412.886000", "145412.889000", "145412.892000", "145412.895000", "145412.904000", "145412.907000", "145412.910000", "145412.913000", "145412.917000", "145432.836000", "145432.839000", "145432.842000", "145432.845000", "145432.848000", "145432.851000", "145432.854000", "145432.857000", "145432.860000", "145432.864000", "145432.868000", "145432.871000", "145432.874000", "145432.877000", "145432.880000", "145432.883000", "145432.886000", "145432.889000", "145432.892000", "145432.895000", "145447.062000", "145447.065000", "145447.068000", "145447.071000", "145447.082000", "145447.085000", "145447.088000", "145447.091000", "145447.094000", "145447.097000", "145447.100000", "145447.103000", "145447.106000", "145447.109000", "145447.112000"],
      "InstanceCreationTime": ["145052.881000", "145052.884000", "145052.887000", "145052.890000", "145052.893000", "145052.896000", "145052.899000", "145052.902000", "145052.905000", "145052.908000", "145052.917000", "145052.920000", "145052.923000", "145052.926000", "145052.929000", "145052.932000", "145052.935000", "145052.938000", "145052.941000", "145052.944000", "145052.947000", "145052.950000", "145052.953000", "145052.956000", "145112.835000", "145112.838000", "145112.841000", "145112.844000", "145112.847000", "145112.850000", "145112.853000", "145112.856000", "145112.859000", "145112.862000", "145112.867000", "145112.870000", "145112.873000", "145112.876000", "145112.879000", "145112.882000", "145112.885000", "145112.888000", "145112.891000", "145112.894000", "145112.897000", "145112.900000", "145112.903000", "145112.906000", "145112.909000", "145112.912000", "145112.915000", "145112.918000", "145112.922000", "145132.835000", "145132.838000", "145132.841000", "145132.844000", "145132.847000", "145132.850000", "145132.853000", "145132.856000", "145132.859000", "145132.862000", "145132.866000", "145132.869000", "145132.872000", "145132.875000", "145132.878000", "145132.881000", "145132.884000", "145132.887000", "145132.904000", "145132.907000", "145132.910000", "145132.913000", "145132.916000", "145132.919000", "145132.922000", "145132.925000", "145132.928000", "145132.931000", "145152.836000", "145152.839000", "145152.842000", "145152.845000", "145152.848000", "145152.851000", "145152.854000", "145152.857000", "145152.860000", "145152.863000", "145152.868000", "145152.871000", "145152.874000", "145152.877000", "145152.880000", "145152.883000", "145152.886000", "145152.889000", "145152.892000", "145152.895000", "145152.898000", "145152.906000", "145152.909000", "145152.912000", "145152.915000", "145152.918000", "145152.922000", "145152.925000", "145212.836000", "145212.839000", "145212.842000", "145212.845000", "145212.848000", "145212.851000", "145212.854000", "145212.857000", "145212.860000", "145212.863000", "145212.867000", "145212.870000", "145212.873000", "145212.876000", "145212.879000", "145212.882000", "145212.889000", "145212.892000", "145212.894000", "145212.897000", "145212.901000", "145212.904000", "145212.907000", "145212.910000", "145212.913000", "145212.916000", "145212.919000", "145212.922000", "145232.836000", "145232.839000", "145232.842000", "145232.845000", "145232.848000", "145232.851000", "145232.854000", "145232.857000", "145232.860000", "145232.864000", "145232.868000", "145232.871000", "145232.874000", "145232.877000", "145232.880000", "145232.883000", "145232.886000", "145232.889000", "145232.892000", "145232.895000", "145232.898000", "145232.901000", "145232.904000", "145232.907000", "145232.910000", "145232.913000", "145232.916000", "145232.919000", "145252.835000", "145252.838000", "145252.841000", "145252.844000", "145252.847000", "145252.852000", "145252.855000", "145252.858000", "145252.861000", "145252.865000", "145252.869000", "145252.872000", "145252.875000", "145252.878000", "145252.881000", "145252.884000", "145252.887000", "145252.890000", "145252.893000", "145252.896000", "145312.835000", "145312.838000", "145312.841000", "145312.844000", "145312.847000", "145312.850000", "145312.853000", "145312.856000", "145312.859000", "145312.862000", "145312.867000", "145312.870000", "145312.873000", "145312.876000", "145312.879000", "145312.882000", "145312.885000", "145312.888000", "145312.891000", "145312.894000", "145332.835000", "145332.838000", "145332.841000", "145332.844000", "145332.847000", "145332.850000", "145332.853000", "145332.856000", "145332.859000", "145332.869000", "145332.872000", "145332.875000", "145332.878000", "145332.881000", "145332.884000", "145332.887000", "145332.891000", "145332.894000", "145332.897000", "145332.900000", "145352.835000", "145352.838000", "145352.841000", "145352.844000", "145352.847000", "145352.851000", "145352.854000", "145352.857000", "145352.860000", "145352.864000", "145352.867000", "145352.870000", "145352.873000", "145352.876000", "145352.879000", "145352.883000", "145352.886000", "145352.889000", "145352.892000", "145352.895000", "145412.836000", "145412.839000", "145412.842000", "145412.845000", "145412.848000", "145412.851000", "145412.854000", "145412.857000", "145412.860000", "145412.880000", "145412.883000", "145412.886000", "145412.889000", "145412.892000", "145412.895000", "145412.904000", "145412.907000", "145412.910000", "145412.913000", "145412.917000", "145432.836000", "145432.839000", "145432.842000", "145432.845000", "145432.848000", "145432.851000", "145432.854000", "145432.857000", "145432.860000", "145432.864000", "145432.868000", "145432.871000", "145432.874000", "145432.877000", "145432.880000", "145432.883000", "145432.886000", "145432.889000", "145432.892000", "145432.895000", "145447.062000", "145447.065000", "145447.068000", "145447.071000", "145447.082000", "145447.085000", "145447.088000", "145447.091000", "145447.094000", "145447.097000", "145447.100000", "145447.103000", "145447.106000", "145447.109000", "145447.112000"],
      "InstanceNumber": [1, 2, 3, 4, 5, 6, 7, 8, 9, 10, 11, 12, 13, 14, 15, 16, 17, 18, 19, 20, 21, 22, 23, 24, 25, 26, 27, 28, 29, 30, 31, 32, 33, 34, 35, 36, 37, 38, 39, 40, 41, 42, 43, 44, 45, 46, 47, 48, 49, 50, 51, 52, 53, 54, 55, 56, 57, 58, 59, 60, 61, 62, 63, 64, 65, 66, 67, 68, 69, 70, 71, 72, 73, 74, 75, 76, 77, 78, 79, 80, 81, 82, 83, 84, 85, 86, 87, 88, 89, 90, 91, 92, 93, 94, 95, 96, 97, 98, 99, 100, 101, 102, 103, 104, 105, 106, 107, 108, 109, 110, 111, 112, 113, 114, 115, 116, 117, 118, 119, 120, 121, 122, 123, 124, 125, 126, 127, 128, 129, 130, 131, 132, 133, 134, 135, 136, 137, 138, 139, 140, 141, 142, 143, 144, 145, 146, 147, 148, 149, 150, 151, 152, 153, 154, 155, 156, 157, 158, 159, 160, 161, 162, 163, 164, 165, 166, 167, 168, 169, 170, 171, 172, 173, 174, 175, 176, 177, 178, 179, 180, 181, 182, 183, 184, 185, 186, 187, 188, 189, 190, 191, 192, 193, 194, 195, 196, 197, 198, 199, 200, 201, 202, 203, 204, 205, 206, 207, 208, 209, 210, 211, 212, 213, 214, 215, 216, 217, 218, 219, 220, 221, 222, 223, 224, 225, 226, 227, 228, 229, 230, 231, 232, 233, 234, 235, 236, 237, 238, 239, 240, 241, 242, 243, 244, 245, 246, 247, 248, 249, 250, 251, 252, 253, 254, 255, 256, 257, 258, 259, 260, 261, 262, 263, 264, 265, 266, 267, 268, 269, 270, 271, 272, 273, 274, 275, 276, 277, 278, 279, 280, 281, 282, 283, 284, 285, 286, 287, 288, 289, 290, 291, 292, 293, 294, 295, 296, 297, 298, 299, 300],
      "LargestImagePixelValue": [40199, 39005, 38733, 37905, 37850, 38356, 37915, 37477, 37868, 38061, 37904, 37611, 37191, 37370, 37738, 37731, 37580, 37711, 37523, 37084, 37755, 37344, 37102, 37518, 37608, 37168, 37606, 37622, 37265, 37253, 37451, 37333, 37286, 37753, 37592, 37031, 36940, 37510, 37925, 37045, 37118, 37389, 36869, 37273, 37323, 37161, 37515, 37275, 37250, 37302, 37325, 37110, 37018, 37144, 36408, 37073, 37340, 36744, 36839, 37175, 36626, 37118, 37317, 36551, 36787, 37156, 36906, 36647, 36908, 36716, 37140, 36780, 36766, 36662, 36799, 36865, 37029, 36851, 36586, 36694, 36923, 36621, 36438, 36666, 36605, 36621, 36407, 37021, 36897, 36494, 36693, 37566, 37041, 36958, 37057, 37109, 36679, 37011, 37061, 36990, 37161, 36749, 36763, 37122, 36439, 37026, 37128, 36938, 36736, 37029, 36841, 36704, 36590, 37065, 36816, 37086, 36602, 36433, 36918, 37191, 36691, 36516, 36925, 37095, 37187, 37149, 36827, 37043, 37589, 36863, 37203, 36998, 36921, 36994, 36581, 37146, 37346, 37090, 36777, 37025, 36794, 36939, 36679, 36874, 36934, 36821, 37126, 36709, 36823, 37110, 36550, 36832, 36992, 36585, 36842, 37422, 36741, 36704, 37643, 36792, 36417, 37167, 36672, 36814, 36681, 37221, 36760, 36635, 36930, 36655, 36675, 37005, 36979, 36384, 36707, 36824, 36657, 36855, 36654, 36388, 36603, 36996, 36799, 36627, 37116, 36638, 36657, 36749, 37087, 36781, 36343, 37176, 37013, 36523, 36666, 37529, 36450, 36587, 37070, 36563, 36563, 36665, 37295, 36520, 36430, 36604, 36960, 36561, 36864, 37104, 36516, 36749, 36902, 37262, 36593, 36269, 36969, 36804, 36738, 37047, 36638, 36530, 36862, 36824, 36740, 36811, 36967, 36932, 37325, 36577, 37009, 37215, 36715, 36700, 37087, 37028, 36803, 37122, 36690, 36247, 37142, 37039, 36151, 37194, 37120, 36465, 36769, 37530, 36627, 36762, 37178, 36398, 36182, 37166, 36797, 36381, 37085, 36801, 36230, 37256, 36311, 36366, 37343, 36598, 36346, 36534, 36735, 36495, 36830, 37196, 36777, 36492, 37042, 36678, 36345, 36762, 36624, 36629, 36732, 36652, 36778, 36432, 36695, 36551, 36673, 36709, 36816, 36961, 36783, 36716, 36794, 36933, 36579, 37107, 36762, 36482, 36276, 36839, 37035, 36273],
      "WindowCenter": [10472.0, 10430.0, 10405.0, 10380.0, 10377.0, 10375.0, 10364.0, 10362.0, 10374.0, 10395.0, 10403.0, 10406.0, 10383.0, 10373.0, 10346.0, 10320.0, 10310.0, 10308.0, 10307.0, 10316.0, 10324.0, 10329.0, 10336.0, 10336.0, 10340.0, 10345.0, 10356.0, 10357.0, 10347.0, 10352.0, 10352.0, 10359.0, 10368.0, 10385.0, 10377.0, 10364.0, 10356.0, 10344.0, 10341.0, 10342.0, 10354.0, 10368.0, 10357.0, 10356.0, 10346.0, 10323.0, 10326.0, 10320.0, 10320.0, 10339.0, 10348.0, 10336.0, 10328.0, 10320.0, 10300.0, 10311.0, 10302.0, 10304.0, 10312.0, 10319.0, 10314.0, 10327.0, 10318.0, 10313.0, 10320.0, 10328.0, 10332.0, 10340.0, 10340.0, 10333.0, 10329.0, 10322.0, 10316.0, 10321.0, 10331.0, 10323.0, 10322.0, 10324.0, 10315.0, 10313.0, 10314.0, 10307.0, 10316.0, 10329.0, 10332.0, 10342.0, 10350.0, 10354.0, 10339.0, 10325.0, 10330.0, 10334.0, 10322.0, 10329.0, 10344.0, 10345.0, 10341.0, 10350.0, 10346.0, 10344.0, 10325.0, 10323.0, 10327.0, 10328.0, 10325.0, 10342.0, 10340.0, 10333.0, 10339.0, 10337.0, 10323.0, 10321.0, 10307.0, 10305.0, 10305.0, 10318.0, 10324.0, 10340.0, 10352.0, 10357.0, 10350.0, 10335.0, 10339.0, 10322.0, 10312.0, 10327.0, 10337.0, 10344.0, 10339.0, 10324.0, 10322.0, 10311.0, 10320.0, 10334.0, 10347.0, 10369.0, 10370.0, 10357.0, 10336.0, 10327.0, 10310.0, 10312.0, 10316.0, 10325.0, 10333.0, 10332.0, 10339.0, 10333.0, 10330.0, 10332.0, 10329.0, 10336.0, 10340.0, 10338.0, 10357.0, 10366.0, 10360.0, 10352.0, 10363.0, 10344.0, 10343.0, 10351.0, 10352.0, 10356.0, 10350.0, 10343.0, 10334.0, 10328.0, 10342.0, 10349.0, 10350.0, 10358.0, 10344.0, 10337.0, 10334.0, 10319.0, 10315.0, 10323.0, 10325.0, 10318.0, 10324.0, 10325.0, 10317.0, 10318.0, 10316.0, 10318.0, 10330.0, 10318.0, 10333.0, 10334.0, 10336.0, 10341.0, 10333.0, 10327.0, 10334.0, 10349.0, 10338.0, 10347.0, 10344.0, 10324.0, 10307.0, 10307.0, 10306.0, 10288.0, 10303.0, 10319.0, 10318.0, 10313.0, 10317.0, 10325.0, 10312.0, 10325.0, 10323.0, 10333.0, 10321.0, 10323.0, 10342.0, 10339.0, 10337.0, 10344.0, 10332.0, 10336.0, 10339.0, 10346.0, 10350.0, 10351.0, 10359.0, 10362.0, 10364.0, 10347.0, 10344.0, 10340.0, 10342.0, 10349.0, 10349.0, 10341.0, 10327.0, 10323.0, 10317.0, 10312.0, 10321.0, 10324.0, 10319.0, 10330.0, 10334.0, 10335.0, 10340.0, 10349.0, 10330.0, 10332.0, 10328.0, 10313.0, 10313.0, 10331.0, 10327.0, 10334.0, 10355.0, 10350.0, 10344.0, 10345.0, 10331.0, 10328.0, 10331.0, 10305.0, 10301.0, 10302.0, 10317.0, 10327.0, 10342.0, 10350.0, 10337.0, 10328.0, 10316.0, 10295.0, 10295.0, 10299.0, 10308.0, 10311.0, 10336.0, 10336.0, 10342.0, 10334.0, 10326.0, 10312.0, 10308.0, 10310.0, 10323.0, 10331.0, 10335.0, 10340.0, 10329.0, 10336.0, 10336.0, 10342.0, 10336.0, 10329.0, 10323.0, 10319.0, 10323.0, 10319.0],
