{
  "AcquisitionMatrixPE": 104,
  "AcquisitionNumber": 1,
  "AcquisitionTime": "09:32:35.255000",
  "BandwidthPerPixelPhaseEncode": 16.297,
  "BaseResolution": 104,
  "BodyPartExamined": "BRAIN",
  "ConsistencyInfo": "N4_VE11C_LATEST_20160120",
  "ConversionSoftware": "dcm2niix",
  "ConversionSoftwareVersion": "v1.0.20210317",
  "DerivedVendorReportedEchoSpacing": 0.000590009,
  "DeviceSerialNumber": "166018",
  "DwellTime": 2.1e-06,
  "EchoTime": 0.0376,
  "EchoTrainLength": 104,
  "EffectiveEchoSpacing": 0.000590009,
  "FlipAngle": 68,
  "ImageComments": "Unaliased MB6/PE3/LB",
  "ImageOrientationPatientDICOM": [0.999422, -0.0214468, -0.0263772, 0.0160491, 0.981642, -0.190058],
  "ImageType": [
    "ORIGINAL",
    "PRIMARY",
    "M",
    "MB",
    "ND",
    "MOSAIC"
],
  "ImagingFrequency": 123.197,
  "InPlanePhaseEncodingDirectionDICOM": "COL",
  "InstitutionAddress": "Washington Place 6,NYC,NYC,US,10003",
  "InstitutionName": "NYU - CBI",
  "InstitutionalDepartmentName": "Department",
  "MRAcquisitionType": "2D",
  "MagneticFieldStrength": 3,
  "Manufacturer": "Siemens",
  "ManufacturersModelName": "Prisma",
  "Modality": "MR",
  "MultibandAccelerationFactor": 6,
  "PartialFourier": 1,
  "PatientPosition": "HFS",
  "PercentPhaseFOV": 100,
  "PercentSampling": 100,
  "PhaseEncodingDirection": "j",
  "PhaseEncodingSteps": 104,
  "PhaseResolution": 1,
  "PixelBandwidth": 2290,
  "ProcedureStepDescription": "Investigators^Winawer",
  "ProtocolName": "cmrr_mbepi_s6_2mm_66sl_PA_task-wedgering2",
  "PulseSequenceDetails": "%CustomerSeq%\\cmrr_mbep2d_bold",
  "ReceiveCoilActiveElements": "HC1-7",
  "ReceiveCoilName": "HeadNeck_64",
  "ReconMatrixPE": 104,
  "RepetitionTime": 1,
  "SAR": 0.0751782,
  "ScanOptions": "FS",
  "ScanningSequence": "EP",
  "SequenceName": "epfid2d1_104",
  "SequenceVariant": "SK\\SS",
  "SeriesDescription": "cmrr_mbepi_s6_2mm_66sl_PA_task-wedgering2",
  "SeriesNumber": 14,
  "ShimSetting": [294, -12656, -8497, 199, 16, -115, -64, 8],
  "SliceThickness": 2,
  "SliceTiming": [0, 0.535, 0.0875, 0.6225, 0.1775, 0.7125, 0.2675, 0.8025, 0.355, 0.89, 0.445, 0, 0.535, 0.0875, 0.6225, 0.1775, 0.7125, 0.2675, 0.8025, 0.355, 0.89, 0.445, 0, 0.535, 0.0875, 0.6225, 0.1775, 0.7125, 0.2675, 0.8025, 0.355, 0.89, 0.445, 0, 0.535, 0.0875, 0.6225, 0.1775, 0.7125, 0.2675, 0.8025, 0.355, 0.89, 0.445, 0, 0.535, 0.0875, 0.6225, 0.1775, 0.7125, 0.2675, 0.8025, 0.355, 0.89, 0.445, 0, 0.535, 0.0875, 0.6225, 0.1775, 0.7125, 0.2675, 0.8025, 0.355, 0.89, 0.445],
  "SoftwareVersions": "syngo MR E11",
  "SpacingBetweenSlices": 2,
  "StationName": "AWP166018",
  "TaskName": "wedgering2",
  "TotalReadoutTime": 0.060771,
  "TxRefAmp": 242.968,
  "VendorReportedEchoSpacing": 0.00059,
  "WipMemBlock": "23cdc283-576e-45fb-90a8-83c420ee5586||Sequence: R016 ve11c/master r/8780670; Nov 27 2017 15:05:12 by eja",
  "dcmmeta_affine": [
    [-1.9988439083099365, 0.03209828585386276, -0.059938233345746994, 105.57099914550781],
    [0.04289361461997032, 1.9632831811904907, -0.3790505528450012, -72.3161392211914],
    [-0.05275442823767662, 0.38011693954467773, 1.962836742401123, -54.328765869140625],
    [0.0, 0.0, 0.0, 1.0]
],
  "dcmmeta_reorient_transform": [
    [0.0, -1.0, 0.0, 103.0],
    [1.0, 0.0, 0.0, 0.0],
    [0.0, 0.0, 1.0, 0.0],
    [0.0, 0.0, 0.0, 1.0]
],
  "dcmmeta_shape": [104, 104, 66, 300],
  "dcmmeta_slice_dim": 2,
  "dcmmeta_version": 0.6,
  "global": {
    "const": {
      "AccessionNumber": "Lerfni0t",
      "AcquisitionMatrix": [104, 0, 0, 104],
      "AngioFlag": "N",
      "BitsAllocated": 16,
      "BitsStored": 16,
      "BodyPartExamined": "BRAIN",
      "Columns": 936,
      "EchoNumbers": 1,
      "EchoTime": 37.6,
      "EchoTrainLength": 104,
      "FlipAngle": 68.0,
      "HighBit": 15,
      "ImageOrientationPatient": [0.99942197143835, -0.02144680783, -0.0263772144129, 0.01604914228256, 0.9816415857263, -0.1900584704893],
      "ImagePositionPatient": [-953.74908821525, -928.78408113863, 164.89776972697],
      "ImageType": [
        "ORIGINAL",
        "PRIMARY",
        "M",
        "MB",
        "ND",
        "MOSAIC"
],
      "ImagedNucleus": "1H",
      "ImagingFrequency": 123.196816,
      "InPlanePhaseEncodingDirection": "COL",
      "MRAcquisitionType": "2D",
      "MagneticFieldStrength": 3.0,
      "Manufacturer": "SIEMENS",
      "ManufacturerModelName": "Prisma",
      "Modality": "MR",
      "NumberOfAverages": 1.0,
      "NumberOfPhaseEncodingSteps": 104,
      "PercentPhaseFieldOfView": 100.0,
      "PercentSampling": 100.0,
      "PerformedProcedureStepStartTime": "085354.283000",
      "PhotometricInterpretation": "MONOCHROME2",
      "PixelBandwidth": 2290.0,
      "PixelRepresentation": 0,
      "PixelSpacing": [2.0, 2.0],
      "ProtocolName": "cmrr_mbepi_s6_2mm_66sl_PA_task-wedgering2",
      "RepetitionTime": 1000.0,
      "Rows": 936,
      "SAR": 0.07517815611415,
      "SamplesPerPixel": 1,
      "ScanOptions": "FS",
      "ScanningSequence": "EP",
      "SequenceName": "epfid2d1_104",
      "SequenceVariant": [
        "SK",
        "SS"
],
      "SeriesDescription": "cmrr_mbepi_s6_2mm_66sl_PA_task-wedgering2",
      "SeriesNumber": 14,
      "SeriesTime": "093338.430000",
      "SliceLocation": -42.777381037677,
      "SliceThickness": 2.0,
      "SmallestImagePixelValue": 0,
      "SoftwareVersions": "syngo MR E11",
      "SpacingBetweenSlices": 1.9999999490726,
      "SpecificCharacterSet": "ISO_IR 100",
      "StudyID": "1",
      "StudyTime": "085354.170000",
      "TransmitCoilName": "Body",
      "VariableFlipAngleFlag": "N",
      "WindowCenterWidthExplanation": "Algo1",
      "dBdt": 0.0},
    "slices": {}
  },
  "time": {
    "samples": {
      "AcquisitionNumber": [1, 2, 3, 4, 5, 6, 7, 8, 9, 10, 11, 12, 13, 14, 15, 16, 17, 18, 19, 20, 21, 22, 23, 24, 25, 26, 27, 28, 29, 30, 31, 32, 33, 34, 35, 36, 37, 38, 39, 40, 41, 42, 43, 44, 45, 46, 47, 48, 49, 50, 51, 52, 53, 54, 55, 56, 57, 58, 59, 60, 61, 62, 63, 64, 65, 66, 67, 68, 69, 70, 71, 72, 73, 74, 75, 76, 77, 78, 79, 80, 81, 82, 83, 84, 85, 86, 87, 88, 89, 90, 91, 92, 93, 94, 95, 96, 97, 98, 99, 100, 101, 102, 103, 104, 105, 106, 107, 108, 109, 110, 111, 112, 113, 114, 115, 116, 117, 118, 119, 120, 121, 122, 123, 124, 125, 126, 127, 128, 129, 130, 131, 132, 133, 134, 135, 136, 137, 138, 139, 140, 141, 142, 143, 144, 145, 146, 147, 148, 149, 150, 151, 152, 153, 154, 155, 156, 157, 158, 159, 160, 161, 162, 163, 164, 165, 166, 167, 168, 169, 170, 171, 172, 173, 174, 175, 176, 177, 178, 179, 180, 181, 182, 183, 184, 185, 186, 187, 188, 189, 190, 191, 192, 193, 194, 195, 196, 197, 198, 199, 200, 201, 202, 203, 204, 205, 206, 207, 208, 209, 210, 211, 212, 213, 214, 215, 216, 217, 218, 219, 220, 221, 222, 223, 224, 225, 226, 227, 228, 229, 230, 231, 232, 233, 234, 235, 236, 237, 238, 239, 240, 241, 242, 243, 244, 245, 246, 247, 248, 249, 250, 251, 252, 253, 254, 255, 256, 257, 258, 259, 260, 261, 262, 263, 264, 265, 266, 267, 268, 269, 270, 271, 272, 273, 274, 275, 276, 277, 278, 279, 280, 281, 282, 283, 284, 285, 286, 287, 288, 289, 290, 291, 292, 293, 294, 295, 296, 297, 298, 299, 300],
      "AcquisitionTime": ["093235.255000", "093236.255000", "093237.255000", "093238.255000", "093239.255000", "093240.255000", "093241.255000", "093242.255000", "093243.255000", "093244.255000", "093245.255000", "093246.255000", "093247.255000", "093248.255000", "093249.255000", "093250.255000", "093251.255000", "093252.255000", "093253.255000", "093254.255000", "093255.255000", "093256.255000", "093257.255000", "093258.255000", "093259.255000", "093300.255000", "093301.255000", "093302.255000", "093303.255000", "093304.255000", "093305.255000", "093306.255000", "093307.255000", "093308.255000", "093309.255000", "093310.255000", "093311.255000", "093312.255000", "093313.255000", "093314.255000", "093315.255000", "093316.255000", "093317.255000", "093318.255000", "093319.255000", "093320.255000", "093321.255000", "093322.255000", "093323.255000", "093324.255000", "093325.255000", "093326.255000", "093327.255000", "093328.255000", "093329.255000", "093330.255000", "093331.255000", "093332.255000", "093333.255000", "093334.255000", "093335.255000", "093336.255000", "093337.255000", "093338.255000", "093339.255000", "093340.255000", "093341.255000", "093342.255000", "093343.255000", "093344.255000", "093345.255000", "093346.255000", "093347.255000", "093348.255000", "093349.255000", "093350.255000", "093351.255000", "093352.255000", "093353.255000", "093354.255000", "093355.255000", "093356.255000", "093357.255000", "093358.255000", "093359.255000", "093400.255000", "093401.255000", "093402.255000", "093403.255000", "093404.255000", "093405.255000", "093406.255000", "093407.255000", "093408.255000", "093409.255000", "093410.255000", "093411.255000", "093412.255000", "093413.255000", "093414.255000", "093415.255000", "093416.255000", "093417.255000", "093418.255000", "093419.255000", "093420.255000", "093421.255000", "093422.255000", "093423.255000", "093424.255000", "093425.255000", "093426.255000", "093427.255000", "093428.255000", "093429.255000", "093430.255000", "093431.255000", "093432.255000", "093433.255000", "093434.255000", "093435.255000", "093436.255000", "093437.255000", "093438.255000", "093439.255000", "093440.255000", "093441.255000", "093442.255000", "093443.255000", "093444.255000", "093445.255000", "093446.255000", "093447.255000", "093448.255000", "093449.255000", "093450.255000", "093451.255000", "093452.255000", "093453.255000", "093454.255000", "093455.255000", "093456.255000", "093457.255000", "093458.255000", "093459.255000", "093500.255000", "093501.255000", "093502.255000", "093503.255000", "093504.255000", "093505.255000", "093506.255000", "093507.255000", "093508.255000", "093509.255000", "093510.255000", "093511.255000", "093512.255000", "093513.255000", "093514.255000", "093515.255000", "093516.255000", "093517.255000", "093518.255000", "093519.255000", "093520.255000", "093521.255000", "093522.255000", "093523.255000", "093524.255000", "093525.255000", "093526.255000", "093527.255000", "093528.255000", "093529.255000", "093530.255000", "093531.255000", "093532.255000", "093533.255000", "093534.255000", "093535.255000", "093536.255000", "093537.255000", "093538.255000", "093539.255000", "093540.255000", "093541.255000", "093542.255000", "093543.255000", "093544.255000", "093545.255000", "093546.255000", "093547.255000", "093548.255000", "093549.255000", "093550.255000", "093551.255000", "093552.255000", "093553.255000", "093554.255000", "093555.255000", "093556.255000", "093557.255000", "093558.255000", "093559.255000", "093600.255000", "093601.255000", "093602.255000", "093603.255000", "093604.255000", "093605.255000", "093606.255000", "093607.255000", "093608.255000", "093609.255000", "093610.255000", "093611.255000", "093612.255000", "093613.255000", "093614.255000", "093615.255000", "093616.255000", "093617.255000", "093618.255000", "093619.255000", "093620.255000", "093621.255000", "093622.255000", "093623.255000", "093624.255000", "093625.255000", "093626.255000", "093627.255000", "093628.255000", "093629.255000", "093630.255000", "093631.255000", "093632.255000", "093633.255000", "093634.255000", "093635.255000", "093636.255000", "093637.255000", "093638.255000", "093639.255000", "093640.255000", "093641.255000", "093642.255000", "093643.255000", "093644.255000", "093645.255000", "093646.255000", "093647.255000", "093648.255000", "093649.255000", "093650.255000", "093651.255000", "093652.255000", "093653.255000", "093654.255000", "093655.255000", "093656.255000", "093657.255000", "093658.255000", "093659.255000", "093700.255000", "093701.255000", "093702.255000", "093703.255000", "093704.255000", "093705.255000", "093706.255000", "093707.255000", "093708.255000", "093709.255000", "093710.255000", "093711.255000", "093712.255000", "093713.255000", "093714.255000", "093715.255000", "093716.255000", "093717.255000", "093718.255000", "093719.255000", "093720.255000", "093721.255000", "093722.255000", "093723.255000", "093724.255000", "093725.255000", "093726.255000", "093727.255000", "093728.255000", "093729.255000", "093730.255000", "093731.255000", "093732.255000", "093733.255000", "093734.255000"],
      "ContentTime": ["093338.433000", "093338.436000", "093338.439000", "093338.459000", "093338.462000", "093338.464000", "093338.472000", "093338.475000", "093338.478000", "093338.481000", "093338.484000", "093338.487000", "093338.490000", "093338.493000", "093338.496000", "093338.499000", "093338.502000", "093338.505000", "093338.508000", "093338.511000", "093358.394000", "093358.397000", "093358.400000", "093358.403000", "093358.406000", "093358.409000", "093358.412000", "093358.415000", "093358.421000", "093358.429000", "093358.432000", "093358.435000", "093358.438000", "093358.441000", "093358.444000", "093358.460000", "093358.469000", "093358.472000", "093358.474000", "093358.477000", "093358.481000", "093358.483000", "093358.486000", "093358.489000", "093358.493000", "093358.495000", "093358.498000", "093358.501000", "093358.505000", "093418.394000", "093418.397000", "093418.400000", "093418.403000", "093418.406000", "093418.409000", "093418.412000", "093418.415000", "093418.418000", "093418.421000", "093418.424000", "093418.427000", "093418.430000", "093418.433000", "093418.436000", "093418.439000", "093418.442000", "093418.445000", "093418.448000", "093418.451000", "093418.454000", "093418.457000", "093418.460000", "093418.463000", "093418.466000", "093418.469000", "093418.472000", "093418.475000", "093438.394000", "093438.397000", "093438.400000", "093438.403000", "093438.406000", "093438.409000", "093438.412000", "093438.415000", "093438.418000", "093438.421000", "093438.424000", "093438.427000", "093438.430000", "093438.433000", "093438.436000", "093438.439000", "093438.442000", "093438.445000", "093438.448000", "093438.451000", "093438.454000", "093438.463000", "093438.466000", "093438.469000", "093438.472000", "093438.475000", "093438.478000", "093438.481000", "093458.393000", "093458.396000", "093458.399000", "093458.402000", "093458.405000", "093458.427000", "093458.430000", "093458.433000", "093458.436000", "093458.439000", "093458.442000", "093458.445000", "093458.448000", "093458.451000", "093458.454000", "093458.458000", "093458.461000", "093458.464000", "093458.467000", "093458.470000", "093458.473000", "093458.476000", "093458.479000", "093458.482000", "093458.485000", "093458.488000", "093458.491000", "093458.494000", "093518.393000", "093518.396000", "093518.399000", "093518.402000", "093518.405000", "093518.408000", "093518.411000", "093518.414000", "093518.417000", "093518.420000", "093518.423000", "093518.426000", "093518.429000", "093518.432000", "093518.435000", "093518.438000", "093518.441000", "093518.444000", "093518.447000", "093518.450000", "093518.453000", "093518.456000", "093518.459000", "093518.462000", "093518.465000", "093518.468000", "093518.471000", "093518.474000", "093518.477000", "093538.393000", "093538.396000", "093538.399000", "093538.402000", "093538.405000", "093538.408000", "093538.411000", "093538.414000", "093538.417000", "093538.420000", "093538.423000", "093538.426000", "093538.429000", "093538.432000", "093538.435000", "093538.438000", "093538.441000", "093538.444000", "093538.447000", "093538.450000", "093558.393000", "093558.396000", "093558.399000", "093558.402000", "093558.405000", "093558.408000", "093558.411000", "093558.414000", "093558.417000", "093558.420000", "093558.423000", "093558.427000", "093558.430000", "093558.433000", "093558.436000", "093558.439000", "093558.442000", "093558.445000", "093558.447000", "093558.450000", "093618.394000", "093618.397000", "093618.400000", "093618.403000", "093618.406000", "093618.409000", "093618.412000", "093618.415000", "093618.418000", "093618.421000", "093618.424000", "093618.427000", "093618.430000", "093618.433000", "093618.436000", "093618.454000", "093618.457000", "093618.460000", "093618.463000", "093618.466000", "093638.394000", "093638.397000", "093638.400000", "093638.403000", "093638.406000", "093638.409000", "093638.412000", "093638.415000", "093638.418000", "093638.421000", "093638.424000", "093638.427000", "093638.430000", "093638.433000", "093638.436000", "093638.439000", "093638.442000", "093638.445000", "093638.448000", "093638.451000", "093658.394000", "093658.397000", "093658.400000", "093658.403000", "093658.406000", "093658.409000", "093658.412000", "093658.415000", "093658.418000", "093658.421000", "093658.424000", "093658.427000", "093658.430000", "093658.433000", "093658.436000", "093658.439000", "093658.442000", "093658.445000", "093658.448000", "093658.451000", "093718.393000", "093718.396000", "093718.399000", "093718.402000", "093718.405000", "093718.408000", "093718.411000", "093718.414000", "093718.417000", "093718.420000", "093718.423000", "093718.426000", "093718.429000", "093718.432000", "093718.435000", "093718.438000", "093718.442000", "093718.445000", "093718.447000", "093718.450000", "093736.093000", "093736.097000", "093736.100000", "093736.102000", "093736.116000", "093736.119000", "093736.122000", "093736.125000", "093736.128000", "093736.132000", "093736.134000", "093736.137000", "093736.141000", "093736.144000", "093736.147000", "093736.150000", "093736.153000", "093736.156000"],
      "InstanceCreationTime": ["093338.433000", "093338.436000", "093338.439000", "093338.459000", "093338.462000", "093338.464000", "093338.472000", "093338.475000", "093338.478000", "093338.481000", "093338.484000", "093338.487000", "093338.490000", "093338.493000", "093338.496000", "093338.499000", "093338.502000", "093338.505000", "093338.508000", "093338.511000", "093358.394000", "093358.397000", "093358.400000", "093358.403000", "093358.406000", "093358.409000", "093358.412000", "093358.415000", "093358.421000", "093358.429000", "093358.432000", "093358.435000", "093358.438000", "093358.441000", "093358.444000", "093358.460000", "093358.469000", "093358.472000", "093358.474000", "093358.477000", "093358.481000", "093358.483000", "093358.486000", "093358.489000", "093358.493000", "093358.495000", "093358.498000", "093358.501000", "093358.505000", "093418.394000", "093418.397000", "093418.400000", "093418.403000", "093418.406000", "093418.409000", "093418.412000", "093418.415000", "093418.418000", "093418.421000", "093418.424000", "093418.427000", "093418.430000", "093418.433000", "093418.436000", "093418.439000", "093418.442000", "093418.445000", "093418.448000", "093418.451000", "093418.454000", "093418.457000", "093418.460000", "093418.463000", "093418.466000", "093418.469000", "093418.472000", "093418.475000", "093438.394000", "093438.397000", "093438.400000", "093438.403000", "093438.406000", "093438.409000", "093438.412000", "093438.415000", "093438.418000", "093438.421000", "093438.424000", "093438.427000", "093438.430000", "093438.433000", "093438.436000", "093438.439000", "093438.442000", "093438.445000", "093438.448000", "093438.451000", "093438.454000", "093438.463000", "093438.466000", "093438.469000", "093438.472000", "093438.475000", "093438.478000", "093438.481000", "093458.393000", "093458.396000", "093458.399000", "093458.402000", "093458.405000", "093458.427000", "093458.430000", "093458.433000", "093458.436000", "093458.439000", "093458.442000", "093458.445000", "093458.448000", "093458.451000", "093458.454000", "093458.458000", "093458.461000", "093458.464000", "093458.467000", "093458.470000", "093458.473000", "093458.476000", "093458.479000", "093458.482000", "093458.485000", "093458.488000", "093458.491000", "093458.494000", "093518.393000", "093518.396000", "093518.399000", "093518.402000", "093518.405000", "093518.408000", "093518.411000", "093518.414000", "093518.417000", "093518.420000", "093518.423000", "093518.426000", "093518.429000", "093518.432000", "093518.435000", "093518.438000", "093518.441000", "093518.444000", "093518.447000", "093518.450000", "093518.453000", "093518.456000", "093518.459000", "093518.462000", "093518.465000", "093518.468000", "093518.471000", "093518.474000", "093518.477000", "093538.393000", "093538.396000", "093538.399000", "093538.402000", "093538.405000", "093538.408000", "093538.411000", "093538.414000", "093538.417000", "093538.420000", "093538.423000", "093538.426000", "093538.429000", "093538.432000", "093538.435000", "093538.438000", "093538.441000", "093538.444000", "093538.447000", "093538.450000", "093558.393000", "093558.396000", "093558.399000", "093558.402000", "093558.405000", "093558.408000", "093558.411000", "093558.414000", "093558.417000", "093558.420000", "093558.423000", "093558.427000", "093558.430000", "093558.433000", "093558.436000", "093558.439000", "093558.442000", "093558.445000", "093558.447000", "093558.450000", "093618.394000", "093618.397000", "093618.400000", "093618.403000", "093618.406000", "093618.409000", "093618.412000", "093618.415000", "093618.418000", "093618.421000", "093618.424000", "093618.427000", "093618.430000", "093618.433000", "093618.436000", "093618.454000", "093618.457000", "093618.460000", "093618.463000", "093618.466000", "093638.394000", "093638.397000", "093638.400000", "093638.403000", "093638.406000", "093638.409000", "093638.412000", "093638.415000", "093638.418000", "093638.421000", "093638.424000", "093638.427000", "093638.430000", "093638.433000", "093638.436000", "093638.439000", "093638.442000", "093638.445000", "093638.448000", "093638.451000", "093658.394000", "093658.397000", "093658.400000", "093658.403000", "093658.406000", "093658.409000", "093658.412000", "093658.415000", "093658.418000", "093658.421000", "093658.424000", "093658.427000", "093658.430000", "093658.433000", "093658.436000", "093658.439000", "093658.442000", "093658.445000", "093658.448000", "093658.451000", "093718.393000", "093718.396000", "093718.399000", "093718.402000", "093718.405000", "093718.408000", "093718.411000", "093718.414000", "093718.417000", "093718.420000", "093718.423000", "093718.426000", "093718.429000", "093718.432000", "093718.435000", "093718.438000", "093718.442000", "093718.445000", "093718.447000", "093718.450000", "093736.093000", "093736.097000", "093736.100000", "093736.102000", "093736.116000", "093736.119000", "093736.122000", "093736.125000", "093736.128000", "093736.132000", "093736.134000", "093736.137000", "093736.141000", "093736.144000", "093736.147000", "093736.150000", "093736.153000", "093736.156000"],
      "InstanceNumber": [1, 2, 3, 4, 5, 6, 7, 8, 9, 10, 11, 12, 13, 14, 15, 16, 17, 18, 19, 20, 21, 22, 23, 24, 25, 26, 27, 28, 29, 30, 31, 32, 33, 34, 35, 36, 37, 38, 39, 40, 41, 42, 43, 44, 45, 46, 47, 48, 49, 50, 51, 52, 53, 54, 55, 56, 57, 58, 59, 60, 61, 62, 63, 64, 65, 66, 67, 68, 69, 70, 71, 72, 73, 74, 75, 76, 77, 78, 79, 80, 81, 82, 83, 84, 85, 86, 87, 88, 89, 90, 91, 92, 93, 94, 95, 96, 97, 98, 99, 100, 101, 102, 103, 104, 105, 106, 107, 108, 109, 110, 111, 112, 113, 114, 115, 116, 117, 118, 119, 120, 121, 122, 123, 124, 125, 126, 127, 128, 129, 130, 131, 132, 133, 134, 135, 136, 137, 138, 139, 140, 141, 142, 143, 144, 145, 146, 147, 148, 149, 150, 151, 152, 153, 154, 155, 156, 157, 158, 159, 160, 161, 162, 163, 164, 165, 166, 167, 168, 169, 170, 171, 172, 173, 174, 175, 176, 177, 178, 179, 180, 181, 182, 183, 184, 185, 186, 187, 188, 189, 190, 191, 192, 193, 194, 195, 196, 197, 198, 199, 200, 201, 202, 203, 204, 205, 206, 207, 208, 209, 210, 211, 212, 213, 214, 215, 216, 217, 218, 219, 220, 221, 222, 223, 224, 225, 226, 227, 228, 229, 230, 231, 232, 233, 234, 235, 236, 237, 238, 239, 240, 241, 242, 243, 244, 245, 246, 247, 248, 249, 250, 251, 252, 253, 254, 255, 256, 257, 258, 259, 260, 261, 262, 263, 264, 265, 266, 267, 268, 269, 270, 271, 272, 273, 274, 275, 276, 277, 278, 279, 280, 281, 282, 283, 284, 285, 286, 287, 288, 289, 290, 291, 292, 293, 294, 295, 296, 297, 298, 299, 300],
      "LargestImagePixelValue": [32363, 31600, 31370, 30427, 30992, 30475, 30193, 30394, 29826, 30111, 29761, 30005, 30278, 29940, 29978, 30267, 30609, 30888, 30113, 29753, 30696, 30219, 29894, 29684, 29628, 29349, 29595, 29787, 29752, 29495, 29902, 30265, 30236, 30102, 30436, 29998, 29860, 30216, 30550, 30487, 30790, 30540, 30671, 30371, 30491, 30233, 29819, 30596, 30704, 30603, 30631, 30645, 30457, 30662, 30299, 30236, 30285, 30238, 30133, 30003, 30337, 29656, 29522, 30661, 30747, 29953, 29775, 29828, 29926, 29056, 29888, 30221, 30398, 29942, 34636, 30338, 29815, 30066, 29643, 29692, 29386, 29237, 29168, 29197, 28751, 28597, 28601, 29862, 28484, 29216, 29218, 29175, 29343, 29584, 29839, 29433, 29482, 29422, 29247, 28958, 29332, 28741, 28703, 29060, 29034, 28720, 29467, 29884, 29109, 29301, 29365, 29110, 29374, 29826, 30030, 29177, 29213, 29654, 29961, 29018, 29786, 29669, 30190, 30323, 31378, 29808, 29226, 29402, 29941, 29476, 30134, 29999, 29771, 29368, 29942, 30893, 29866, 29627, 29545, 29779, 29444, 30415, 31158, 30686, 30067, 29978, 30565, 29639, 29774, 29961, 29840, 30145, 30296, 30272, 29612, 29925, 29618, 29585, 30187, 30966, 29811, 29895, 29879, 29329, 29799, 29631, 29748, 36282, 31008, 31362, 30293, 30279, 30594, 37360, 30507, 30298, 30412, 30261, 30125, 29770, 30132, 30289, 30545, 30895, 30495, 30703, 30766, 29715, 30281, 30498, 30343, 30320, 31125, 30662, 30717, 30933, 31079, 29782, 29818, 29711, 29832, 30307, 31019, 30820, 30953, 31134, 31772, 30791, 31595, 30421, 31081, 30682, 31699, 30743, 30935, 30964, 30977, 31083, 31229, 31081, 31032, 29914, 30113, 30292, 30693, 31140, 30408, 30844, 30680, 31031, 31346, 30297, 30611, 30788, 30566, 30186, 30921, 30793, 30690, 30629, 30560, 30517, 30924, 30731, 30682, 30965, 30954, 30690, 30259, 30632, 31490, 30729, 30890, 31252, 31212, 31979, 32177, 31635, 30828, 31021, 30431, 30776, 30903, 31588, 31684, 31113, 31037, 31039, 31532, 31417, 31158, 31330, 31599, 31339, 31100, 31333, 30612, 30236, 30577, 29543, 28777, 29405, 29476, 29811, 29680, 30005, 30215, 30279, 30669, 31170, 30689, 30721, 30748, 30117, 30411, 30424, 30912, 30423, 30224, 30072],
      "WindowCenter": [9049.0, 9018.0, 9008.0, 8997.0, 9002.0, 8996.0, 8988.0, 8985.0, 8962.0, 8959.0, 8940.0, 8929.0, 8926.0, 8919.0, 8937.0, 8966.0, 9004.0, 9039.0, 9047.0, 9021.0, 9003.0, 8971.0, 8952.0, 8943.0, 8941.0, 8935.0, 8943.0, 8961.0, 8973.0, 8976.0, 8991.0, 8988.0, 8972.0, 8960.0, 8966.0, 8960.0, 8970.0, 8989.0, 9004.0, 9007.0, 9009.0, 8993.0, 8982.0, 8975.0, 8975.0, 8976.0, 8987.0, 9003.0, 9018.0, 9019.0, 9020.0, 9020.0, 9013.0, 9001.0, 8985.0, 8976.0, 8974.0, 8973.0, 8977.0, 8986.0, 8994.0, 8972.0, 8963.0, 8973.0, 8969.0, 8955.0, 8949.0, 8949.0, 8949.0, 8945.0, 8968.0, 8967.0, 8973.0, 8974.0, 9035.0, 8980.0, 8971.0, 8985.0, 8980.0, 8979.0, 8963.0, 8952.0, 8935.0, 8934.0, 8927.0, 8920.0, 8928.0, 8947.0, 8927.0, 8941.0, 8945.0, 8948.0, 8962.0, 8964.0, 8977.0, 8962.0, 8959.0, 8951.0, 8944.0, 8931.0, 8944.0, 8940.0, 8938.0, 8936.0, 8937.0, 8930.0, 8942.0, 8940.0, 8934.0, 8934.0, 8941.0, 8936.0, 8944.0, 8952.0, 8960.0, 8956.0, 8957.0, 8963.0, 8976.0, 8949.0, 8951.0, 8943.0, 8950.0, 8967.0, 8991.0, 8983.0, 8972.0, 8971.0, 8974.0, 8957.0, 8953.0, 8952.0, 8953.0, 8956.0, 8969.0, 8982.0, 8963.0, 8956.0, 8939.0, 8945.0, 8935.0, 8938.0, 8959.0, 8960.0, 8952.0, 8962.0, 8976.0, 8971.0, 8973.0, 8981.0, 8974.0, 8980.0, 8969.0, 8967.0, 8953.0, 8952.0, 8952.0, 8946.0, 8959.0, 8981.0, 8977.0, 8980.0, 8974.0, 8964.0, 8961.0, 8953.0, 8951.0, 9042.0, 8965.0, 8963.0, 8949.0, 8951.0, 8967.0, 9069.0, 8981.0, 8989.0, 8982.0, 8982.0, 8972.0, 8950.0, 8944.0, 8934.0, 8940.0, 8947.0, 8944.0, 8960.0, 8970.0, 8959.0, 8965.0, 8963.0, 8952.0, 8943.0, 8954.0, 8949.0, 8951.0, 8974.0, 8986.0, 8979.0, 8981.0, 8980.0, 8972.0, 8982.0, 8987.0, 8979.0, 8984.0, 8977.0, 8990.0, 8979.0, 8999.0, 8982.0, 8980.0, 8978.0, 8990.0, 8969.0, 8967.0, 8958.0, 8956.0, 8948.0, 8954.0, 8966.0, 8977.0, 8976.0, 8978.0, 8982.0, 8979.0, 8977.0, 8962.0, 8967.0, 8967.0, 8973.0, 8982.0, 8969.0, 8968.0, 8958.0, 8947.0, 8933.0, 8953.0, 8956.0, 8968.0, 8979.0, 8982.0, 8985.0, 8991.0, 8985.0, 8981.0, 8981.0, 8982.0, 8973.0, 8973.0, 8973.0, 8978.0, 8952.0, 8948.0, 8936.0, 8934.0, 8948.0, 8968.0, 8989.0, 8981.0, 8990.0, 8983.0, 8981.0, 8970.0, 8965.0, 8953.0, 8945.0, 8953.0, 8965.0, 8986.0, 8971.0, 8954.0, 8943.0, 8930.0, 8904.0, 8876.0, 8864.0, 8841.0, 8834.0, 8798.0, 8829.0, 8802.0, 8844.0, 8868.0, 8907.0, 8940.0, 8945.0, 8947.0, 8965.0, 8971.0, 8978.0, 8963.0, 8962.0, 8972.0, 8975.0, 8985.0, 8986.0, 9008.0, 8998.0, 9004.0, 8995.0],
