{
  "AcquisitionMatrixPE": 104,
  "AcquisitionNumber": 1,
  "AcquisitionTime": "09:26:28.675000",
  "BandwidthPerPixelPhaseEncode": 16.297,
  "BaseResolution": 104,
  "BodyPartExamined": "BRAIN",
  "ConsistencyInfo": "N4_VE11C_LATEST_20160120",
  "ConversionSoftware": "dcm2niix",
  "ConversionSoftwareVersion": "v1.0.20210317",
  "DerivedVendorReportedEchoSpacing": 0.000590009,
  "DeviceSerialNumber": "166018",
  "DwellTime": 2.1e-06,
  "EchoTime": 0.0376,
  "EchoTrainLength": 104,
  "EffectiveEchoSpacing": 0.000590009,
  "FlipAngle": 68,
  "ImageComments": "Unaliased MB6/PE3/LB",
  "ImageOrientationPatientDICOM": [0.999422, -0.0214468, -0.0263772, 0.0160491, 0.981642, -0.190058],
  "ImageType": [
    "ORIGINAL",
    "PRIMARY",
    "M",
    "MB",
    "ND",
    "MOSAIC"
],
  "ImagingFrequency": 123.197,
  "InPlanePhaseEncodingDirectionDICOM": "COL",
  "InstitutionAddress": "Washington Place 6,NYC,NYC,US,10003",
  "InstitutionName": "NYU - CBI",
  "InstitutionalDepartmentName": "Department",
  "MRAcquisitionType": "2D",
  "MagneticFieldStrength": 3,
  "Manufacturer": "Siemens",
  "ManufacturersModelName": "Prisma",
  "Modality": "MR",
  "MultibandAccelerationFactor": 6,
  "PartialFourier": 1,
  "PatientPosition": "HFS",
  "PercentPhaseFOV": 100,
  "PercentSampling": 100,
  "PhaseEncodingDirection": "j",
  "PhaseEncodingSteps": 104,
  "PhaseResolution": 1,
  "PixelBandwidth": 2290,
  "ProcedureStepDescription": "Investigators^Winawer",
  "ProtocolName": "cmrr_mbepi_s6_2mm_66sl_PA_task-bar2",
  "PulseSequenceDetails": "%CustomerSeq%\\cmrr_mbep2d_bold",
  "ReceiveCoilActiveElements": "HC1-7",
  "ReceiveCoilName": "HeadNeck_64",
  "ReconMatrixPE": 104,
  "RepetitionTime": 1,
  "SAR": 0.0751782,
  "ScanOptions": "FS",
  "ScanningSequence": "EP",
  "SequenceName": "epfid2d1_104",
  "SequenceVariant": "SK\\SS",
  "SeriesDescription": "cmrr_mbepi_s6_2mm_66sl_PA_task-bar2",
  "SeriesNumber": 12,
  "ShimSetting": [294, -12656, -8497, 199, 16, -115, -64, 8],
  "SliceThickness": 2,
  "SliceTiming": [0, 0.535, 0.09, 0.625, 0.18, 0.7125, 0.2675, 0.8025, 0.3575, 0.8925, 0.445, 0, 0.535, 0.09, 0.625, 0.18, 0.7125, 0.2675, 0.8025, 0.3575, 0.8925, 0.445, 0, 0.535, 0.09, 0.625, 0.18, 0.7125, 0.2675, 0.8025, 0.3575, 0.8925, 0.445, 0, 0.535, 0.09, 0.625, 0.18, 0.7125, 0.2675, 0.8025, 0.3575, 0.8925, 0.445, 0, 0.535, 0.09, 0.625, 0.18, 0.7125, 0.2675, 0.8025, 0.3575, 0.8925, 0.445, 0, 0.535, 0.09, 0.625, 0.18, 0.7125, 0.2675, 0.8025, 0.3575, 0.8925, 0.445],
  "SoftwareVersions": "syngo MR E11",
  "SpacingBetweenSlices": 2,
  "StationName": "AWP166018",
  "TaskName": "bar2",
  "TotalReadoutTime": 0.060771,
  "TxRefAmp": 242.968,
  "VendorReportedEchoSpacing": 0.00059,
  "WipMemBlock": "f964c81d-22e2-4386-bb8f-97f4d3e61006||Sequence: R016 ve11c/master r/8780670; Nov 27 2017 15:05:12 by eja",
  "dcmmeta_affine": [
    [-1.9988439083099365, 0.03209828585386276, -0.059938233345746994, 105.57099914550781],
    [0.04289361461997032, 1.9632831811904907, -0.3790505528450012, -72.3161392211914],
    [-0.05275442823767662, 0.38011693954467773, 1.962836742401123, -54.328765869140625],
    [0.0, 0.0, 0.0, 1.0]
],
  "dcmmeta_reorient_transform": [
    [0.0, -1.0, 0.0, 103.0],
    [1.0, 0.0, 0.0, 0.0],
    [0.0, 0.0, 1.0, 0.0],
    [0.0, 0.0, 0.0, 1.0]
],
  "dcmmeta_shape": [104, 104, 66, 300],
  "dcmmeta_slice_dim": 2,
  "dcmmeta_version": 0.6,
  "global": {
    "const": {
      "AccessionNumber": "Lerfni0t",
      "AcquisitionMatrix": [104, 0, 0, 104],
      "AngioFlag": "N",
      "BitsAllocated": 16,
      "BitsStored": 16,
      "BodyPartExamined": "BRAIN",
      "Columns": 936,
      "EchoNumbers": 1,
      "EchoTime": 37.6,
      "EchoTrainLength": 104,
      "FlipAngle": 68.0,
      "HighBit": 15,
      "ImageOrientationPatient": [0.99942197143835, -0.02144680783, -0.0263772144129, 0.01604914228256, 0.9816415857263, -0.1900584704893],
      "ImagePositionPatient": [-953.74908821525, -928.78408113863, 164.89776972697],
      "ImageType": [
        "ORIGINAL",
        "PRIMARY",
        "M",
        "MB",
        "ND",
        "MOSAIC"
],
      "ImagedNucleus": "1H",
      "ImagingFrequency": 123.196814,
      "InPlanePhaseEncodingDirection": "COL",
      "MRAcquisitionType": "2D",
      "MagneticFieldStrength": 3.0,
      "Manufacturer": "SIEMENS",
      "ManufacturerModelName": "Prisma",
      "Modality": "MR",
      "NumberOfAverages": 1.0,
      "NumberOfPhaseEncodingSteps": 104,
      "PercentPhaseFieldOfView": 100.0,
      "PercentSampling": 100.0,
      "PerformedProcedureStepStartTime": "085354.283000",
      "PhotometricInterpretation": "MONOCHROME2",
      "PixelBandwidth": 2290.0,
      "PixelRepresentation": 0,
      "PixelSpacing": [2.0, 2.0],
      "ProtocolName": "cmrr_mbepi_s6_2mm_66sl_PA_task-bar2",
      "RepetitionTime": 1000.0,
      "Rows": 936,
      "SAR": 0.07517815611415,
      "SamplesPerPixel": 1,
      "ScanOptions": "FS",
      "ScanningSequence": "EP",
      "SequenceName": "epfid2d1_104",
      "SequenceVariant": [
        "SK",
        "SS"
],
      "SeriesDescription": "cmrr_mbepi_s6_2mm_66sl_PA_task-bar2",
      "SeriesNumber": 12,
      "SeriesTime": "092738.368000",
      "SliceLocation": -42.777381037677,
      "SliceThickness": 2.0,
      "SmallestImagePixelValue": 0,
      "SoftwareVersions": "syngo MR E11",
      "SpacingBetweenSlices": 1.9999999490726,
      "SpecificCharacterSet": "ISO_IR 100",
      "StudyID": "1",
      "StudyTime": "085354.170000",
      "TransmitCoilName": "Body",
      "VariableFlipAngleFlag": "N",
      "WindowCenterWidthExplanation": "Algo1",
      "dBdt": 0.0},
    "slices": {}
  },
  "time": {
    "samples": {
      "AcquisitionNumber": [1, 2, 3, 4, 5, 6, 7, 8, 9, 10, 11, 12, 13, 14, 15, 16, 17, 18, 19, 20, 21, 22, 23, 24, 25, 26, 27, 28, 29, 30, 31, 32, 33, 34, 35, 36, 37, 38, 39, 40, 41, 42, 43, 44, 45, 46, 47, 48, 49, 50, 51, 52, 53, 54, 55, 56, 57, 58, 59, 60, 61, 62, 63, 64, 65, 66, 67, 68, 69, 70, 71, 72, 73, 74, 75, 76, 77, 78, 79, 80, 81, 82, 83, 84, 85, 86, 87, 88, 89, 90, 91, 92, 93, 94, 95, 96, 97, 98, 99, 100, 101, 102, 103, 104, 105, 106, 107, 108, 109, 110, 111, 112, 113, 114, 115, 116, 117, 118, 119, 120, 121, 122, 123, 124, 125, 126, 127, 128, 129, 130, 131, 132, 133, 134, 135, 136, 137, 138, 139, 140, 141, 142, 143, 144, 145, 146, 147, 148, 149, 150, 151, 152, 153, 154, 155, 156, 157, 158, 159, 160, 161, 162, 163, 164, 165, 166, 167, 168, 169, 170, 171, 172, 173, 174, 175, 176, 177, 178, 179, 180, 181, 182, 183, 184, 185, 186, 187, 188, 189, 190, 191, 192, 193, 194, 195, 196, 197, 198, 199, 200, 201, 202, 203, 204, 205, 206, 207, 208, 209, 210, 211, 212, 213, 214, 215, 216, 217, 218, 219, 220, 221, 222, 223, 224, 225, 226, 227, 228, 229, 230, 231, 232, 233, 234, 235, 236, 237, 238, 239, 240, 241, 242, 243, 244, 245, 246, 247, 248, 249, 250, 251, 252, 253, 254, 255, 256, 257, 258, 259, 260, 261, 262, 263, 264, 265, 266, 267, 268, 269, 270, 271, 272, 273, 274, 275, 276, 277, 278, 279, 280, 281, 282, 283, 284, 285, 286, 287, 288, 289, 290, 291, 292, 293, 294, 295, 296, 297, 298, 299, 300],
      "AcquisitionTime": ["092628.675000", "092629.675000", "092630.675000", "092631.675000", "092632.675000", "092633.675000", "092634.675000", "092635.675000", "092636.675000", "092637.675000", "092638.675000", "092639.675000", "092640.675000", "092641.675000", "092642.675000", "092643.675000", "092644.675000", "092645.675000", "092646.675000", "092647.675000", "092648.675000", "092649.675000", "092650.675000", "092651.675000", "092652.675000", "092653.675000", "092654.675000", "092655.675000", "092656.675000", "092657.675000", "092658.675000", "092659.675000", "092700.675000", "092701.675000", "092702.675000", "092703.675000", "092704.675000", "092705.675000", "092706.675000", "092707.675000", "092708.675000", "092709.675000", "092710.675000", "092711.675000", "092712.675000", "092713.675000", "092714.675000", "092715.675000", "092716.675000", "092717.675000", "092718.675000", "092719.675000", "092720.675000", "092721.675000", "092722.675000", "092723.675000", "092724.675000", "092725.675000", "092726.675000", "092727.675000", "092728.675000", "092729.675000", "092730.675000", "092731.675000", "092732.675000", "092733.675000", "092734.675000", "092735.675000", "092736.675000", "092737.675000", "092738.675000", "092739.675000", "092740.675000", "092741.675000", "092742.675000", "092743.675000", "092744.675000", "092745.675000", "092746.675000", "092747.675000", "092748.675000", "092749.675000", "092750.675000", "092751.675000", "092752.675000", "092753.675000", "092754.675000", "092755.675000", "092756.675000", "092757.675000", "092758.675000", "092759.675000", "092800.675000", "092801.675000", "092802.675000", "092803.675000", "092804.675000", "092805.675000", "092806.675000", "092807.675000", "092808.675000", "092809.675000", "092810.675000", "092811.675000", "092812.675000", "092813.675000", "092814.675000", "092815.675000", "092816.675000", "092817.675000", "092818.675000", "092819.675000", "092820.675000", "092821.675000", "092822.675000", "092823.675000", "092824.675000", "092825.675000", "092826.675000", "092827.675000", "092828.675000", "092829.675000", "092830.675000", "092831.675000", "092832.675000", "092833.675000", "092834.675000", "092835.675000", "092836.675000", "092837.675000", "092838.675000", "092839.675000", "092840.675000", "092841.675000", "092842.675000", "092843.675000", "092844.675000", "092845.675000", "092846.675000", "092847.675000", "092848.675000", "092849.675000", "092850.675000", "092851.675000", "092852.675000", "092853.675000", "092854.675000", "092855.675000", "092856.675000", "092857.675000", "092858.675000", "092859.675000", "092900.675000", "092901.675000", "092902.675000", "092903.675000", "092904.675000", "092905.675000", "092906.675000", "092907.675000", "092908.675000", "092909.675000", "092910.675000", "092911.675000", "092912.675000", "092913.675000", "092914.675000", "092915.675000", "092916.675000", "092917.675000", "092918.675000", "092919.675000", "092920.675000", "092921.675000", "092922.675000", "092923.675000", "092924.675000", "092925.675000", "092926.675000", "092927.675000", "092928.675000", "092929.675000", "092930.675000", "092931.675000", "092932.675000", "092933.675000", "092934.675000", "092935.675000", "092936.675000", "092937.675000", "092938.675000", "092939.675000", "092940.675000", "092941.675000", "092942.675000", "092943.675000", "092944.675000", "092945.675000", "092946.675000", "092947.675000", "092948.675000", "092949.675000", "092950.675000", "092951.675000", "092952.675000", "092953.675000", "092954.675000", "092955.675000", "092956.675000", "092957.675000", "092958.675000", "092959.675000", "093000.675000", "093001.675000", "093002.675000", "093003.675000", "093004.675000", "093005.675000", "093006.675000", "093007.675000", "093008.675000", "093009.675000", "093010.675000", "093011.675000", "093012.675000", "093013.675000", "093014.675000", "093015.675000", "093016.675000", "093017.675000", "093018.675000", "093019.675000", "093020.675000", "093021.675000", "093022.675000", "093023.675000", "093024.675000", "093025.675000", "093026.675000", "093027.675000", "093028.675000", "093029.675000", "093030.675000", "093031.675000", "093032.675000", "093033.675000", "093034.675000", "093035.675000", "093036.675000", "093037.675000", "093038.675000", "093039.675000", "093040.675000", "093041.675000", "093042.675000", "093043.675000", "093044.675000", "093045.675000", "093046.675000", "093047.675000", "093048.675000", "093049.675000", "093050.675000", "093051.675000", "093052.675000", "093053.675000", "093054.675000", "093055.675000", "093056.675000", "093057.675000", "093058.675000", "093059.675000", "093100.675000", "093101.675000", "093102.675000", "093103.675000", "093104.675000", "093105.675000", "093106.675000", "093107.675000", "093108.675000", "093109.675000", "093110.675000", "093111.675000", "093112.675000", "093113.675000", "093114.675000", "093115.675000", "093116.675000", "093117.675000", "093118.675000", "093119.675000", "093120.675000", "093121.675000", "093122.675000", "093123.675000", "093124.675000", "093125.675000", "093126.675000", "093127.675000"],
      "ContentTime": ["092738.371000", "092738.374000", "092738.377000", "092738.384000", "092738.387000", "092738.390000", "092738.393000", "092738.396000", "092738.399000", "092738.402000", "092738.405000", "092738.408000", "092738.417000", "092738.420000", "092738.423000", "092738.426000", "092738.429000", "092738.432000", "092738.435000", "092738.438000", "092738.441000", "092738.444000", "092738.447000", "092738.452000", "092738.455000", "092738.458000", "092738.461000", "092738.464000", "092758.320000", "092758.323000", "092758.326000", "092758.329000", "092758.332000", "092758.335000", "092758.338000", "092758.341000", "092758.344000", "092758.347000", "092758.350000", "092758.353000", "092758.356000", "092758.359000", "092758.362000", "092758.365000", "092758.368000", "092758.371000", "092758.374000", "092758.377000", "092758.380000", "092758.383000", "092758.386000", "092758.393000", "092758.396000", "092758.399000", "092758.402000", "092758.405000", "092818.320000", "092818.323000", "092818.326000", "092818.329000", "092818.332000", "092818.335000", "092818.338000", "092818.341000", "092818.344000", "092818.347000", "092818.350000", "092818.353000", "092818.356000", "092818.359000", "092818.362000", "092818.365000", "092818.368000", "092818.371000", "092818.374000", "092818.377000", "092818.380000", "092818.383000", "092818.386000", "092818.389000", "092818.392000", "092818.395000", "092818.398000", "092818.401000", "092818.404000", "092838.320000", "092838.323000", "092838.326000", "092838.329000", "092838.332000", "092838.335000", "092838.338000", "092838.341000", "092838.344000", "092838.347000", "092838.350000", "092838.353000", "092838.356000", "092838.359000", "092838.362000", "092838.365000", "092838.371000", "092838.374000", "092838.377000", "092838.380000", "092838.383000", "092838.386000", "092838.389000", "092838.392000", "092838.395000", "092838.398000", "092838.401000", "092838.405000", "092858.320000", "092858.323000", "092858.326000", "092858.329000", "092858.332000", "092858.335000", "092858.338000", "092858.341000", "092858.344000", "092858.347000", "092858.350000", "092858.353000", "092858.356000", "092858.359000", "092858.362000", "092858.365000", "092858.368000", "092858.371000", "092858.374000", "092858.377000", "092858.380000", "092858.383000", "092858.386000", "092858.389000", "092858.392000", "092858.395000", "092858.398000", "092858.402000", "092918.320000", "092918.323000", "092918.326000", "092918.330000", "092918.333000", "092918.336000", "092918.339000", "092918.342000", "092918.345000", "092918.348000", "092918.351000", "092918.354000", "092918.357000", "092918.360000", "092918.363000", "092918.366000", "092918.369000", "092918.372000", "092918.375000", "092918.378000", "092918.381000", "092918.384000", "092918.387000", "092918.390000", "092918.393000", "092918.396000", "092918.399000", "092918.403000", "092938.321000", "092938.324000", "092938.327000", "092938.330000", "092938.333000", "092938.336000", "092938.339000", "092938.342000", "092938.345000", "092938.348000", "092938.351000", "092938.355000", "092938.368000", "092938.371000", "092938.373000", "092938.377000", "092938.380000", "092938.383000", "092938.385000", "092938.388000", "092958.321000", "092958.324000", "092958.327000", "092958.330000", "092958.333000", "092958.336000", "092958.339000", "092958.342000", "092958.345000", "092958.348000", "092958.351000", "092958.354000", "092958.357000", "092958.360000", "092958.363000", "092958.373000", "092958.376000", "092958.379000", "092958.382000", "092958.385000", "093018.320000", "093018.323000", "093018.326000", "093018.329000", "093018.332000", "093018.335000", "093018.338000", "093018.341000", "093018.344000", "093018.347000", "093018.350000", "093018.353000", "093018.356000", "093018.359000", "093018.362000", "093018.365000", "093018.368000", "093018.371000", "093018.374000", "093018.382000", "093038.320000", "093038.323000", "093038.326000", "093038.329000", "093038.332000", "093038.335000", "093038.338000", "093038.341000", "093038.344000", "093038.347000", "093038.350000", "093038.353000", "093038.356000", "093038.359000", "093038.362000", "093038.365000", "093038.368000", "093038.371000", "093038.374000", "093038.377000", "093058.320000", "093058.323000", "093058.326000", "093058.329000", "093058.332000", "093058.335000", "093058.338000", "093058.341000", "093058.344000", "093058.347000", "093058.350000", "093058.353000", "093058.356000", "093058.359000", "093058.362000", "093058.366000", "093058.369000", "093058.372000", "093058.375000", "093058.378000", "093118.320000", "093118.326000", "093118.329000", "093118.332000", "093118.335000", "093118.338000", "093118.341000", "093118.344000", "093118.347000", "093118.350000", "093118.353000", "093118.356000", "093118.359000", "093118.362000", "093118.365000", "093118.368000", "093118.371000", "093118.374000", "093118.377000", "093118.380000", "093129.103000", "093129.107000", "093129.110000", "093129.120000", "093129.123000", "093129.126000", "093129.129000", "093129.132000", "093129.135000", "093129.138000", "093129.141000"],
      "InstanceCreationTime": ["092738.371000", "092738.374000", "092738.377000", "092738.384000", "092738.387000", "092738.390000", "092738.393000", "092738.396000", "092738.399000", "092738.402000", "092738.405000", "092738.408000", "092738.417000", "092738.420000", "092738.423000", "092738.426000", "092738.429000", "092738.432000", "092738.435000", "092738.438000", "092738.441000", "092738.444000", "092738.447000", "092738.452000", "092738.455000", "092738.458000", "092738.461000", "092738.464000", "092758.320000", "092758.323000", "092758.326000", "092758.329000", "092758.332000", "092758.335000", "092758.338000", "092758.341000", "092758.344000", "092758.347000", "092758.350000", "092758.353000", "092758.356000", "092758.359000", "092758.362000", "092758.365000", "092758.368000", "092758.371000", "092758.374000", "092758.377000", "092758.380000", "092758.383000", "092758.386000", "092758.393000", "092758.396000", "092758.399000", "092758.402000", "092758.405000", "092818.320000", "092818.323000", "092818.326000", "092818.329000", "092818.332000", "092818.335000", "092818.338000", "092818.341000", "092818.344000", "092818.347000", "092818.350000", "092818.353000", "092818.356000", "092818.359000", "092818.362000", "092818.365000", "092818.368000", "092818.371000", "092818.374000", "092818.377000", "092818.380000", "092818.383000", "092818.386000", "092818.389000", "092818.392000", "092818.395000", "092818.398000", "092818.401000", "092818.404000", "092838.320000", "092838.323000", "092838.326000", "092838.329000", "092838.332000", "092838.335000", "092838.338000", "092838.341000", "092838.344000", "092838.347000", "092838.350000", "092838.353000", "092838.356000", "092838.359000", "092838.362000", "092838.365000", "092838.371000", "092838.374000", "092838.377000", "092838.380000", "092838.383000", "092838.386000", "092838.389000", "092838.392000", "092838.395000", "092838.398000", "092838.401000", "092838.405000", "092858.320000", "092858.323000", "092858.326000", "092858.329000", "092858.332000", "092858.335000", "092858.338000", "092858.341000", "092858.344000", "092858.347000", "092858.350000", "092858.353000", "092858.356000", "092858.359000", "092858.362000", "092858.365000", "092858.368000", "092858.371000", "092858.374000", "092858.377000", "092858.380000", "092858.383000", "092858.386000", "092858.389000", "092858.392000", "092858.395000", "092858.398000", "092858.402000", "092918.320000", "092918.323000", "092918.326000", "092918.330000", "092918.333000", "092918.336000", "092918.339000", "092918.342000", "092918.345000", "092918.348000", "092918.351000", "092918.354000", "092918.357000", "092918.360000", "092918.363000", "092918.366000", "092918.369000", "092918.372000", "092918.375000", "092918.378000", "092918.381000", "092918.384000", "092918.387000", "092918.390000", "092918.393000", "092918.396000", "092918.399000", "092918.403000", "092938.321000", "092938.324000", "092938.327000", "092938.330000", "092938.333000", "092938.336000", "092938.339000", "092938.342000", "092938.345000", "092938.348000", "092938.351000", "092938.355000", "092938.368000", "092938.371000", "092938.373000", "092938.377000", "092938.380000", "092938.383000", "092938.385000", "092938.388000", "092958.321000", "092958.324000", "092958.327000", "092958.330000", "092958.333000", "092958.336000", "092958.339000", "092958.342000", "092958.345000", "092958.348000", "092958.351000", "092958.354000", "092958.357000", "092958.360000", "092958.363000", "092958.373000", "092958.376000", "092958.379000", "092958.382000", "092958.385000", "093018.320000", "093018.323000", "093018.326000", "093018.329000", "093018.332000", "093018.335000", "093018.338000", "093018.341000", "093018.344000", "093018.347000", "093018.350000", "093018.353000", "093018.356000", "093018.359000", "093018.362000", "093018.365000", "093018.368000", "093018.371000", "093018.374000", "093018.382000", "093038.320000", "093038.323000", "093038.326000", "093038.329000", "093038.332000", "093038.335000", "093038.338000", "093038.341000", "093038.344000", "093038.347000", "093038.350000", "093038.353000", "093038.356000", "093038.359000", "093038.362000", "093038.365000", "093038.368000", "093038.371000", "093038.374000", "093038.377000", "093058.320000", "093058.323000", "093058.326000", "093058.329000", "093058.332000", "093058.335000", "093058.338000", "093058.341000", "093058.344000", "093058.347000", "093058.350000", "093058.353000", "093058.356000", "093058.359000", "093058.362000", "093058.366000", "093058.369000", "093058.372000", "093058.375000", "093058.378000", "093118.320000", "093118.326000", "093118.329000", "093118.332000", "093118.335000", "093118.338000", "093118.341000", "093118.344000", "093118.347000", "093118.350000", "093118.353000", "093118.356000", "093118.359000", "093118.362000", "093118.365000", "093118.368000", "093118.371000", "093118.374000", "093118.377000", "093118.380000", "093129.103000", "093129.107000", "093129.110000", "093129.120000", "093129.123000", "093129.126000", "093129.129000", "093129.132000", "093129.135000", "093129.138000", "093129.141000"],
      "InstanceNumber": [1, 2, 3, 4, 5, 6, 7, 8, 9, 10, 11, 12, 13, 14, 15, 16, 17, 18, 19, 20, 21, 22, 23, 24, 25, 26, 27, 28, 29, 30, 31, 32, 33, 34, 35, 36, 37, 38, 39, 40, 41, 42, 43, 44, 45, 46, 47, 48, 49, 50, 51, 52, 53, 54, 55, 56, 57, 58, 59, 60, 61, 62, 63, 64, 65, 66, 67, 68, 69, 70, 71, 72, 73, 74, 75, 76, 77, 78, 79, 80, 81, 82, 83, 84, 85, 86, 87, 88, 89, 90, 91, 92, 93, 94, 95, 96, 97, 98, 99, 100, 101, 102, 103, 104, 105, 106, 107, 108, 109, 110, 111, 112, 113, 114, 115, 116, 117, 118, 119, 120, 121, 122, 123, 124, 125, 126, 127, 128, 129, 130, 131, 132, 133, 134, 135, 136, 137, 138, 139, 140, 141, 142, 143, 144, 145, 146, 147, 148, 149, 150, 151, 152, 153, 154, 155, 156, 157, 158, 159, 160, 161, 162, 163, 164, 165, 166, 167, 168, 169, 170, 171, 172, 173, 174, 175, 176, 177, 178, 179, 180, 181, 182, 183, 184, 185, 186, 187, 188, 189, 190, 191, 192, 193, 194, 195, 196, 197, 198, 199, 200, 201, 202, 203, 204, 205, 206, 207, 208, 209, 210, 211, 212, 213, 214, 215, 216, 217, 218, 219, 220, 221, 222, 223, 224, 225, 226, 227, 228, 229, 230, 231, 232, 233, 234, 235, 236, 237, 238, 239, 240, 241, 242, 243, 244, 245, 246, 247, 248, 249, 250, 251, 252, 253, 254, 255, 256, 257, 258, 259, 260, 261, 262, 263, 264, 265, 266, 267, 268, 269, 270, 271, 272, 273, 274, 275, 276, 277, 278, 279, 280, 281, 282, 283, 284, 285, 286, 287, 288, 289, 290, 291, 292, 293, 294, 295, 296, 297, 298, 299, 300],
      "LargestImagePixelValue": [29200, 28901, 29285, 28788, 27599, 29571, 28026, 29177, 29497, 28240, 30296, 31041, 30111, 30487, 29361, 29381, 29621, 29850, 29573, 29578, 29611, 29326, 29667, 29381, 30234, 28918, 29266, 28977, 29103, 28750, 28847, 29980, 29401, 30244, 29546, 30397, 29696, 30576, 30527, 29946, 30681, 30770, 30832, 30855, 30560, 30401, 30887, 31099, 30581, 29950, 30911, 30225, 29476, 29962, 31258, 30921, 30640, 31295, 30944, 30358, 30387, 30658, 30248, 30811, 31125, 30808, 30893, 30836, 30695, 30486, 31004, 30607, 30634, 30319, 30145, 30379, 30058, 30580, 30547, 30558, 29853, 30376, 30742, 30388, 30613, 30421, 31042, 31093, 30387, 29904, 30235, 29632, 29063, 29760, 30046, 29653, 30046, 30306, 30775, 30131, 30581, 30443, 30709, 30311, 30517, 29779, 29439, 29638, 29985, 29627, 29302, 29466, 29344, 28905, 29892, 30148, 30104, 30366, 30506, 31047, 30379, 30467, 30249, 29658, 29715, 29152, 29284, 29370, 29723, 29775, 29709, 29579, 29846, 29865, 30444, 29692, 29827, 29843, 30067, 29983, 29653, 29698, 29977, 29269, 29560, 30015, 30081, 29983, 30179, 30488, 30456, 29833, 30487, 30463, 30176, 33169, 29900, 30038, 30140, 30035, 29722, 29339, 30051, 30706, 30236, 30122, 30348, 30567, 29997, 30292, 30276, 29720, 29849, 29989, 29947, 29644, 29845, 30314, 29933, 29936, 29785, 30039, 30926, 29795, 29943, 30590, 30640, 29921, 29925, 30484, 30275, 30613, 30032, 30264, 30640, 29888, 29684, 30023, 30176, 30275, 30039, 30133, 30314, 29802, 30042, 30415, 30068, 29840, 30317, 33471, 29834, 30059, 30434, 30161, 30488, 30832, 30093, 30191, 30591, 30693, 30294, 30989, 30647, 30736, 31312, 30325, 30531, 30269, 30482, 30851, 30538, 30599, 30647, 30227, 30386, 30959, 30300, 30376, 30914, 30464, 30296, 30316, 30663, 30334, 30276, 30027, 30284, 30524, 30817, 30392, 30950, 30257, 30962, 30793, 30179, 30151, 30552, 30144, 30399, 30574, 30876, 32859, 31007, 30861, 34030, 30422, 30520, 30917, 30674, 31332, 30548, 30333, 30652, 30816, 30586, 30035, 30693, 30175, 30637, 31286, 30854, 30615, 30493, 30931, 30456, 30049, 30986, 31020, 30734, 30768, 31032, 30589, 30228, 31046, 30534, 30402, 30377, 30201, 30449, 30953],
      "WindowCenter": [9035.0, 9006.0, 8990.0, 8958.0, 8938.0, 8967.0, 8949.0, 8960.0, 8957.0, 8929.0, 8966.0, 8963.0, 8991.0, 8987.0, 8985.0, 9004.0, 9012.0, 9014.0, 9015.0, 9006.0, 9002.0, 8986.0, 8984.0, 8975.0, 8988.0, 8972.0, 8987.0, 8988.0, 8988.0, 8980.0, 8973.0, 8990.0, 8985.0, 9007.0, 8998.0, 9018.0, 9014.0, 9019.0, 8993.0, 8982.0, 8986.0, 8986.0, 9011.0, 9026.0, 9043.0, 9039.0, 9033.0, 9015.0, 8996.0, 8982.0, 8983.0, 8992.0, 8990.0, 9012.0, 9041.0, 9032.0, 9008.0, 9010.0, 9002.0, 8989.0, 8996.0, 8995.0, 8996.0, 9003.0, 9009.0, 9003.0, 9009.0, 9010.0, 9014.0, 9016.0, 9031.0, 9027.0, 9020.0, 9018.0, 9001.0, 8990.0, 8975.0, 8977.0, 8970.0, 8977.0, 8972.0, 8989.0, 9005.0, 9012.0, 9037.0, 9030.0, 9026.0, 9013.0, 8982.0, 8958.0, 8951.0, 8943.0, 8930.0, 8952.0, 8970.0, 8985.0, 9001.0, 9017.0, 9017.0, 9003.0, 9008.0, 8991.0, 8989.0, 8982.0, 8987.0, 8973.0, 8968.0, 8973.0, 8964.0, 8955.0, 8947.0, 8956.0, 8967.0, 8973.0, 9002.0, 9003.0, 9013.0, 9020.0, 9011.0, 9016.0, 8990.0, 8979.0, 8971.0, 8957.0, 8956.0, 8954.0, 8978.0, 8979.0, 8984.0, 8976.0, 8966.0, 8957.0, 8956.0, 8955.0, 8972.0, 8969.0, 8986.0, 8995.0, 8996.0, 8985.0, 8970.0, 8967.0, 8965.0, 8952.0, 8961.0, 8984.0, 8993.0, 8997.0, 9003.0, 9002.0, 8993.0, 8970.0, 8981.0, 8974.0, 8975.0, 9034.0, 8978.0, 8986.0, 8992.0, 8985.0, 8980.0, 8980.0, 8987.0, 8998.0, 8985.0, 8985.0, 8974.0, 8979.0, 8965.0, 8971.0, 8971.0, 8966.0, 8975.0, 8984.0, 8992.0, 8986.0, 8977.0, 8981.0, 8973.0, 8972.0, 8968.0, 8985.0, 9008.0, 8989.0, 8997.0, 9000.0, 8990.0, 8969.0, 8958.0, 8970.0, 8961.0, 8968.0, 8962.0, 8963.0, 8978.0, 8976.0, 8977.0, 8992.0, 9000.0, 8998.0, 8986.0, 8991.0, 8999.0, 8985.0, 8992.0, 8990.0, 8983.0, 8975.0, 8980.0, 9022.0, 8973.0, 8980.0, 8988.0, 8989.0, 8989.0, 8988.0, 8971.0, 8970.0, 8976.0, 8975.0, 8976.0, 8989.0, 8992.0, 8993.0, 9014.0, 8996.0, 8987.0, 8988.0, 8994.0, 8984.0, 8985.0, 8992.0, 8985.0, 8979.0, 8985.0, 8991.0, 8977.0, 8983.0, 8982.0, 8977.0, 8978.0, 8994.0, 9000.0, 8994.0, 8987.0, 8973.0, 8969.0, 8966.0, 8964.0, 8959.0, 8970.0, 8969.0, 8989.0, 8991.0, 8981.0, 8980.0, 8979.0, 8972.0, 8977.0, 8969.0, 8967.0, 9015.0, 8986.0, 8989.0, 9038.0, 8989.0, 8988.0, 8992.0, 8996.0, 9001.0, 8989.0, 8990.0, 8998.0, 8997.0, 8995.0, 8984.0, 8980.0, 8971.0, 8967.0, 8972.0, 8967.0, 8975.0, 8975.0, 8981.0, 8957.0, 8942.0, 8951.0, 8941.0, 8943.0, 8944.0, 8952.0, 8952.0, 8950.0, 8963.0, 8956.0, 8965.0, 8960.0, 8960.0, 8976.0, 8984.0],
