{
  "AcquisitionMatrixPE": 104,
  "AcquisitionNumber": 1,
  "AcquisitionTime": "09:44:35.952500",
  "BandwidthPerPixelPhaseEncode": 16.297,
  "BaseResolution": 104,
  "BodyPartExamined": "BRAIN",
  "ConsistencyInfo": "N4_VE11C_LATEST_20160120",
  "ConversionSoftware": "dcm2niix",
  "ConversionSoftwareVersion": "v1.0.20210317",
  "DerivedVendorReportedEchoSpacing": 0.000590009,
  "DeviceSerialNumber": "166018",
  "DwellTime": 2.1e-06,
  "EchoTime": 0.0376,
  "EchoTrainLength": 104,
  "EffectiveEchoSpacing": 0.000590009,
  "FlipAngle": 68,
  "ImageComments": "Unaliased MB6/PE3/LB",
  "ImageOrientationPatientDICOM": [0.999422, -0.0214468, -0.0263772, 0.0160491, 0.981642, -0.190058],
  "ImageType": [
    "ORIGINAL",
    "PRIMARY",
    "M",
    "MB",
    "ND",
    "MOSAIC"
],
  "ImagingFrequency": 123.197,
  "InPlanePhaseEncodingDirectionDICOM": "COL",
  "InstitutionAddress": "Washington Place 6,NYC,NYC,US,10003",
  "InstitutionName": "NYU - CBI",
  "InstitutionalDepartmentName": "Department",
  "MRAcquisitionType": "2D",
  "MagneticFieldStrength": 3,
  "Manufacturer": "Siemens",
  "ManufacturersModelName": "Prisma",
  "Modality": "MR",
  "MultibandAccelerationFactor": 6,
  "PartialFourier": 1,
  "PatientPosition": "HFS",
  "PercentPhaseFOV": 100,
  "PercentSampling": 100,
  "PhaseEncodingDirection": "j",
  "PhaseEncodingSteps": 104,
  "PhaseResolution": 1,
  "PixelBandwidth": 2290,
  "ProcedureStepDescription": "Investigators^Winawer",
  "ProtocolName": "cmrr_mbepi_s6_2mm_66sl_PA_task-wedgering3",
  "PulseSequenceDetails": "%CustomerSeq%\\cmrr_mbep2d_bold",
  "ReceiveCoilActiveElements": "HC1-7",
  "ReceiveCoilName": "HeadNeck_64",
  "ReconMatrixPE": 104,
  "RepetitionTime": 1,
  "SAR": 0.0751782,
  "ScanOptions": "FS",
  "ScanningSequence": "EP",
  "SequenceName": "epfid2d1_104",
  "SequenceVariant": "SK\\SS",
  "SeriesDescription": "cmrr_mbepi_s6_2mm_66sl_PA_task-wedgering3",
  "SeriesNumber": 18,
  "ShimSetting": [294, -12656, -8497, 199, 16, -115, -64, 8],
  "SliceThickness": 2,
  "SliceTiming": [0, 0.535, 0.09, 0.6225, 0.1775, 0.7125, 0.2675, 0.8025, 0.3575, 0.89, 0.445, 0, 0.535, 0.09, 0.6225, 0.1775, 0.7125, 0.2675, 0.8025, 0.3575, 0.89, 0.445, 0, 0.535, 0.09, 0.6225, 0.1775, 0.7125, 0.2675, 0.8025, 0.3575, 0.89, 0.445, 0, 0.535, 0.09, 0.6225, 0.1775, 0.7125, 0.2675, 0.8025, 0.3575, 0.89, 0.445, 0, 0.535, 0.09, 0.6225, 0.1775, 0.7125, 0.2675, 0.8025, 0.3575, 0.89, 0.445, 0, 0.535, 0.09, 0.6225, 0.1775, 0.7125, 0.2675, 0.8025, 0.3575, 0.89, 0.445],
  "SoftwareVersions": "syngo MR E11",
  "SpacingBetweenSlices": 2,
  "StationName": "AWP166018",
  "TaskName": "wedgering3",
  "TotalReadoutTime": 0.060771,
  "TxRefAmp": 242.968,
  "VendorReportedEchoSpacing": 0.00059,
  "WipMemBlock": "d2eb6a75-7c38-4c95-afad-cd3738066211||Sequence: R016 ve11c/master r/8780670; Nov 27 2017 15:05:12 by eja",
  "dcmmeta_affine": [
    [-1.9988439083099365, 0.03209828585386276, -0.059938233345746994, 105.57099914550781],
    [0.04289361461997032, 1.9632831811904907, -0.3790505528450012, -72.3161392211914],
    [-0.05275442823767662, 0.38011693954467773, 1.962836742401123, -54.328765869140625],
    [0.0, 0.0, 0.0, 1.0]
],
  "dcmmeta_reorient_transform": [
    [0.0, -1.0, 0.0, 103.0],
    [1.0, 0.0, 0.0, 0.0],
    [0.0, 0.0, 1.0, 0.0],
    [0.0, 0.0, 0.0, 1.0]
],
  "dcmmeta_shape": [104, 104, 66, 300],
  "dcmmeta_slice_dim": 2,
  "dcmmeta_version": 0.6,
  "global": {
    "const": {
      "AccessionNumber": "Lerfni0t",
      "AcquisitionMatrix": [104, 0, 0, 104],
      "AngioFlag": "N",
      "BitsAllocated": 16,
      "BitsStored": 16,
      "BodyPartExamined": "BRAIN",
      "Columns": 936,
      "EchoNumbers": 1,
      "EchoTime": 37.6,
      "EchoTrainLength": 104,
      "FlipAngle": 68.0,
      "HighBit": 15,
      "ImageOrientationPatient": [0.99942197143835, -0.02144680783, -0.0263772144129, 0.01604914228256, 0.9816415857263, -0.1900584704893],
      "ImagePositionPatient": [-953.74908821525, -928.78408113863, 164.89776972697],
      "ImageType": [
        "ORIGINAL",
        "PRIMARY",
        "M",
        "MB",
        "ND",
        "MOSAIC"
],
      "ImagedNucleus": "1H",
      "ImagingFrequency": 123.196819,
      "InPlanePhaseEncodingDirection": "COL",
      "MRAcquisitionType": "2D",
      "MagneticFieldStrength": 3.0,
      "Manufacturer": "SIEMENS",
      "ManufacturerModelName": "Prisma",
      "Modality": "MR",
      "NumberOfAverages": 1.0,
      "NumberOfPhaseEncodingSteps": 104,
      "PercentPhaseFieldOfView": 100.0,
      "PercentSampling": 100.0,
      "PerformedProcedureStepStartTime": "085354.283000",
      "PhotometricInterpretation": "MONOCHROME2",
      "PixelBandwidth": 2290.0,
      "PixelRepresentation": 0,
      "PixelSpacing": [2.0, 2.0],
      "ProtocolName": "cmrr_mbepi_s6_2mm_66sl_PA_task-wedgering3",
      "RepetitionTime": 1000.0,
      "Rows": 936,
      "SAR": 0.07517815611415,
      "SamplesPerPixel": 1,
      "ScanOptions": "FS",
      "ScanningSequence": "EP",
      "SequenceName": "epfid2d1_104",
      "SequenceVariant": [
        "SK",
        "SS"
],
      "SeriesDescription": "cmrr_mbepi_s6_2mm_66sl_PA_task-wedgering3",
      "SeriesNumber": 18,
      "SeriesTime": "094558.371000",
      "SliceLocation": -42.777381037677,
      "SliceThickness": 2.0,
      "SmallestImagePixelValue": 0,
      "SoftwareVersions": "syngo MR E11",
      "SpacingBetweenSlices": 1.9999999490726,
      "SpecificCharacterSet": "ISO_IR 100",
      "StudyID": "1",
      "StudyTime": "085354.170000",
      "TransmitCoilName": "Body",
      "VariableFlipAngleFlag": "N",
      "WindowCenterWidthExplanation": "Algo1",
      "dBdt": 0.0},
    "slices": {}
  },
  "time": {
    "samples": {
      "AcquisitionNumber": [1, 2, 3, 4, 5, 6, 7, 8, 9, 10, 11, 12, 13, 14, 15, 16, 17, 18, 19, 20, 21, 22, 23, 24, 25, 26, 27, 28, 29, 30, 31, 32, 33, 34, 35, 36, 37, 38, 39, 40, 41, 42, 43, 44, 45, 46, 47, 48, 49, 50, 51, 52, 53, 54, 55, 56, 57, 58, 59, 60, 61, 62, 63, 64, 65, 66, 67, 68, 69, 70, 71, 72, 73, 74, 75, 76, 77, 78, 79, 80, 81, 82, 83, 84, 85, 86, 87, 88, 89, 90, 91, 92, 93, 94, 95, 96, 97, 98, 99, 100, 101, 102, 103, 104, 105, 106, 107, 108, 109, 110, 111, 112, 113, 114, 115, 116, 117, 118, 119, 120, 121, 122, 123, 124, 125, 126, 127, 128, 129, 130, 131, 132, 133, 134, 135, 136, 137, 138, 139, 140, 141, 142, 143, 144, 145, 146, 147, 148, 149, 150, 151, 152, 153, 154, 155, 156, 157, 158, 159, 160, 161, 162, 163, 164, 165, 166, 167, 168, 169, 170, 171, 172, 173, 174, 175, 176, 177, 178, 179, 180, 181, 182, 183, 184, 185, 186, 187, 188, 189, 190, 191, 192, 193, 194, 195, 196, 197, 198, 199, 200, 201, 202, 203, 204, 205, 206, 207, 208, 209, 210, 211, 212, 213, 214, 215, 216, 217, 218, 219, 220, 221, 222, 223, 224, 225, 226, 227, 228, 229, 230, 231, 232, 233, 234, 235, 236, 237, 238, 239, 240, 241, 242, 243, 244, 245, 246, 247, 248, 249, 250, 251, 252, 253, 254, 255, 256, 257, 258, 259, 260, 261, 262, 263, 264, 265, 266, 267, 268, 269, 270, 271, 272, 273, 274, 275, 276, 277, 278, 279, 280, 281, 282, 283, 284, 285, 286, 287, 288, 289, 290, 291, 292, 293, 294, 295, 296, 297, 298, 299, 300],
      "AcquisitionTime": ["094435.952500", "094436.952500", "094437.952500", "094438.952500", "094439.952500", "094440.952500", "094441.952500", "094442.952500", "094443.952500", "094444.952500", "094445.952500", "094446.952500", "094447.952500", "094448.952500", "094449.952500", "094450.952500", "094451.952500", "094452.952500", "094453.952500", "094454.952500", "094455.952500", "094456.952500", "094457.952500", "094458.952500", "094459.952500", "094500.952500", "094501.952500", "094502.952500", "094503.952500", "094504.952500", "094505.952500", "094506.952500", "094507.952500", "094508.952500", "094509.952500", "094510.952500", "094511.952500", "094512.952500", "094513.952500", "094514.952500", "094515.952500", "094516.952500", "094517.952500", "094518.952500", "094519.952500", "094520.952500", "094521.952500", "094522.952500", "094523.952500", "094524.952500", "094525.952500", "094526.952500", "094527.952500", "094528.952500", "094529.952500", "094530.952500", "094531.952500", "094532.952500", "094533.952500", "094534.952500", "094535.952500", "094536.952500", "094537.952500", "094538.952500", "094539.952500", "094540.952500", "094541.952500", "094542.952500", "094543.952500", "094544.952500", "094545.952500", "094546.952500", "094547.952500", "094548.952500", "094549.952500", "094550.952500", "094551.952500", "094552.952500", "094553.952500", "094554.952500", "094555.952500", "094556.952500", "094557.952500", "094558.952500", "094559.952500", "094600.952500", "094601.952500", "094602.952500", "094603.952500", "094604.952500", "094605.952500", "094606.952500", "094607.952500", "094608.952500", "094609.952500", "094610.952500", "094611.952500", "094612.952500", "094613.952500", "094614.952500", "094615.952500", "094616.952500", "094617.952500", "094618.952500", "094619.952500", "094620.952500", "094621.952500", "094622.952500", "094623.952500", "094624.952500", "094625.952500", "094626.952500", "094627.952500", "094628.952500", "094629.952500", "094630.952500", "094631.952500", "094632.952500", "094633.952500", "094634.952500", "094635.952500", "094636.952500", "094637.952500", "094638.952500", "094639.952500", "094640.952500", "094641.952500", "094642.952500", "094643.952500", "094644.952500", "094645.952500", "094646.952500", "094647.952500", "094648.952500", "094649.952500", "094650.952500", "094651.952500", "094652.952500", "094653.952500", "094654.952500", "094655.952500", "094656.952500", "094657.952500", "094658.952500", "094659.952500", "094700.952500", "094701.952500", "094702.952500", "094703.952500", "094704.952500", "094705.952500", "094706.952500", "094707.952500", "094708.952500", "094709.952500", "094710.952500", "094711.952500", "094712.952500", "094713.952500", "094714.952500", "094715.952500", "094716.952500", "094717.952500", "094718.952500", "094719.952500", "094720.952500", "094721.952500", "094722.952500", "094723.952500", "094724.952500", "094725.952500", "094726.952500", "094727.952500", "094728.952500", "094729.952500", "094730.952500", "094731.952500", "094732.952500", "094733.952500", "094734.952500", "094735.952500", "094736.952500", "094737.952500", "094738.952500", "094739.952500", "094740.952500", "094741.952500", "094742.952500", "094743.952500", "094744.952500", "094745.952500", "094746.952500", "094747.952500", "094748.952500", "094749.952500", "094750.952500", "094751.952500", "094752.952500", "094753.952500", "094754.952500", "094755.952500", "094756.952500", "094757.952500", "094758.952500", "094759.952500", "094800.952500", "094801.952500", "094802.952500", "094803.952500", "094804.952500", "094805.952500", "094806.952500", "094807.952500", "094808.952500", "094809.952500", "094810.952500", "094811.952500", "094812.952500", "094813.952500", "094814.952500", "094815.952500", "094816.952500", "094817.952500", "094818.952500", "094819.952500", "094820.952500", "094821.952500", "094822.952500", "094823.952500", "094824.952500", "094825.952500", "094826.952500", "094827.952500", "094828.952500", "094829.952500", "094830.952500", "094831.952500", "094832.952500", "094833.952500", "094834.952500", "094835.952500", "094836.952500", "094837.952500", "094838.952500", "094839.952500", "094840.952500", "094841.952500", "094842.952500", "094843.952500", "094844.952500", "094845.952500", "094846.952500", "094847.952500", "094848.952500", "094849.952500", "094850.952500", "094851.952500", "094852.952500", "094853.952500", "094854.952500", "094855.952500", "094856.952500", "094857.952500", "094858.952500", "094859.952500", "094900.952500", "094901.952500", "094902.952500", "094903.952500", "094904.952500", "094905.952500", "094906.952500", "094907.952500", "094908.952500", "094909.952500", "094910.952500", "094911.952500", "094912.952500", "094913.952500", "094914.952500", "094915.952500", "094916.952500", "094917.952500", "094918.952500", "094919.952500", "094920.952500", "094921.952500", "094922.952500", "094923.952500", "094924.952500", "094925.952500", "094926.952500", "094927.952500", "094928.952500", "094929.952500", "094930.952500", "094931.952500", "094932.952500", "094933.952500", "094934.952500"],
      "ContentTime": ["094558.374000", "094558.377000", "094558.380000", "094558.383000", "094558.386000", "094558.390000", "094558.393000", "094558.396000", "094558.399000", "094558.402000", "094558.405000", "094558.408000", "094558.411000", "094558.426000", "094558.429000", "094558.432000", "094558.435000", "094558.438000", "094558.441000", "094558.444000", "094558.447000", "094558.450000", "094558.453000", "094558.456000", "094558.459000", "094558.462000", "094558.465000", "094558.468000", "094558.471000", "094558.474000", "094558.477000", "094558.480000", "094558.483000", "094558.487000", "094558.489000", "094558.493000", "094558.495000", "094558.501000", "094558.504000", "094558.507000", "094558.510000", "094558.513000", "094558.516000", "094558.519000", "094558.522000", "094558.525000", "094558.528000", "094618.321000", "094618.324000", "094618.327000", "094618.330000", "094618.333000", "094618.336000", "094618.352000", "094618.355000", "094618.358000", "094618.361000", "094618.364000", "094618.367000", "094618.370000", "094618.373000", "094618.376000", "094618.379000", "094618.382000", "094618.385000", "094618.394000", "094618.397000", "094618.400000", "094618.403000", "094618.406000", "094618.409000", "094618.412000", "094618.415000", "094618.418000", "094618.421000", "094638.320000", "094638.323000", "094638.326000", "094638.330000", "094638.333000", "094638.336000", "094638.339000", "094638.342000", "094638.345000", "094638.353000", "094638.356000", "094638.359000", "094638.362000", "094638.365000", "094638.368000", "094638.371000", "094638.374000", "094638.377000", "094638.380000", "094638.383000", "094638.386000", "094638.389000", "094638.392000", "094638.395000", "094638.398000", "094638.401000", "094638.404000", "094638.407000", "094658.320000", "094658.323000", "094658.326000", "094658.329000", "094658.332000", "094658.335000", "094658.338000", "094658.341000", "094658.344000", "094658.347000", "094658.350000", "094658.353000", "094658.356000", "094658.359000", "094658.362000", "094658.365000", "094658.368000", "094658.382000", "094658.385000", "094658.388000", "094658.391000", "094658.394000", "094658.397000", "094658.400000", "094658.403000", "094658.406000", "094658.408000", "094658.412000", "094658.415000", "094718.320000", "094718.323000", "094718.326000", "094718.329000", "094718.332000", "094718.335000", "094718.338000", "094718.341000", "094718.344000", "094718.347000", "094718.350000", "094718.353000", "094718.356000", "094718.359000", "094718.362000", "094718.365000", "094718.368000", "094718.371000", "094718.374000", "094718.377000", "094718.380000", "094718.383000", "094718.386000", "094718.389000", "094718.392000", "094718.395000", "094718.398000", "094718.401000", "094738.320000", "094738.323000", "094738.326000", "094738.338000", "094738.340000", "094738.343000", "094738.346000", "094738.349000", "094738.352000", "094738.355000", "094738.358000", "094738.361000", "094738.364000", "094738.367000", "094738.370000", "094738.373000", "094738.376000", "094738.379000", "094738.382000", "094738.385000", "094738.388000", "094738.391000", "094758.321000", "094758.324000", "094758.327000", "094758.330000", "094758.333000", "094758.336000", "094758.339000", "094758.342000", "094758.345000", "094758.348000", "094758.351000", "094758.354000", "094758.362000", "094758.365000", "094758.368000", "094758.371000", "094758.374000", "094758.377000", "094758.380000", "094758.383000", "094818.321000", "094818.324000", "094818.327000", "094818.330000", "094818.333000", "094818.336000", "094818.339000", "094818.342000", "094818.345000", "094818.348000", "094818.351000", "094818.354000", "094818.357000", "094818.360000", "094818.363000", "094818.366000", "094818.369000", "094818.372000", "094818.375000", "094818.378000", "094838.321000", "094838.324000", "094838.327000", "094838.330000", "094838.333000", "094838.336000", "094838.339000", "094838.342000", "094838.345000", "094838.348000", "094838.351000", "094838.354000", "094838.357000", "094838.360000", "094838.363000", "094838.366000", "094838.369000", "094838.372000", "094838.375000", "094838.379000", "094858.320000", "094858.323000", "094858.326000", "094858.329000", "094858.332000", "094858.335000", "094858.338000", "094858.341000", "094858.344000", "094858.347000", "094858.350000", "094858.353000", "094858.356000", "094858.359000", "094858.362000", "094858.365000", "094858.368000", "094858.371000", "094858.374000", "094858.377000", "094918.320000", "094918.323000", "094918.326000", "094918.329000", "094918.332000", "094918.335000", "094918.338000", "094918.341000", "094918.344000", "094918.347000", "094918.350000", "094918.353000", "094918.356000", "094918.359000", "094918.362000", "094918.365000", "094918.368000", "094918.371000", "094918.374000", "094918.377000", "094936.273000", "094936.277000", "094936.280000", "094936.283000", "094936.286000", "094936.289000", "094936.292000", "094936.295000", "094936.310000", "094936.313000", "094936.316000", "094936.319000", "094936.322000", "094936.325000", "094936.328000", "094936.331000", "094936.334000", "094936.337000"],
      "InstanceCreationTime": ["094558.374000", "094558.377000", "094558.380000", "094558.383000", "094558.386000", "094558.390000", "094558.393000", "094558.396000", "094558.399000", "094558.402000", "094558.405000", "094558.408000", "094558.411000", "094558.426000", "094558.429000", "094558.432000", "094558.435000", "094558.438000", "094558.441000", "094558.444000", "094558.447000", "094558.450000", "094558.453000", "094558.456000", "094558.459000", "094558.462000", "094558.465000", "094558.468000", "094558.471000", "094558.474000", "094558.477000", "094558.480000", "094558.483000", "094558.487000", "094558.489000", "094558.493000", "094558.495000", "094558.501000", "094558.504000", "094558.507000", "094558.510000", "094558.513000", "094558.516000", "094558.519000", "094558.522000", "094558.525000", "094558.528000", "094618.321000", "094618.324000", "094618.327000", "094618.330000", "094618.333000", "094618.336000", "094618.352000", "094618.355000", "094618.358000", "094618.361000", "094618.364000", "094618.367000", "094618.370000", "094618.373000", "094618.376000", "094618.379000", "094618.382000", "094618.385000", "094618.394000", "094618.397000", "094618.400000", "094618.403000", "094618.406000", "094618.409000", "094618.412000", "094618.415000", "094618.418000", "094618.421000", "094638.320000", "094638.323000", "094638.326000", "094638.330000", "094638.333000", "094638.336000", "094638.339000", "094638.342000", "094638.345000", "094638.353000", "094638.356000", "094638.359000", "094638.362000", "094638.365000", "094638.368000", "094638.371000", "094638.374000", "094638.377000", "094638.380000", "094638.383000", "094638.386000", "094638.389000", "094638.392000", "094638.395000", "094638.398000", "094638.401000", "094638.404000", "094638.407000", "094658.320000", "094658.323000", "094658.326000", "094658.329000", "094658.332000", "094658.335000", "094658.338000", "094658.341000", "094658.344000", "094658.347000", "094658.350000", "094658.353000", "094658.356000", "094658.359000", "094658.362000", "094658.365000", "094658.368000", "094658.382000", "094658.385000", "094658.388000", "094658.391000", "094658.394000", "094658.397000", "094658.400000", "094658.403000", "094658.406000", "094658.408000", "094658.412000", "094658.415000", "094718.320000", "094718.323000", "094718.326000", "094718.329000", "094718.332000", "094718.335000", "094718.338000", "094718.341000", "094718.344000", "094718.347000", "094718.350000", "094718.353000", "094718.356000", "094718.359000", "094718.362000", "094718.365000", "094718.368000", "094718.371000", "094718.374000", "094718.377000", "094718.380000", "094718.383000", "094718.386000", "094718.389000", "094718.392000", "094718.395000", "094718.398000", "094718.401000", "094738.320000", "094738.323000", "094738.326000", "094738.338000", "094738.340000", "094738.343000", "094738.346000", "094738.349000", "094738.352000", "094738.355000", "094738.358000", "094738.361000", "094738.364000", "094738.367000", "094738.370000", "094738.373000", "094738.376000", "094738.379000", "094738.382000", "094738.385000", "094738.388000", "094738.391000", "094758.321000", "094758.324000", "094758.327000", "094758.330000", "094758.333000", "094758.336000", "094758.339000", "094758.342000", "094758.345000", "094758.348000", "094758.351000", "094758.354000", "094758.362000", "094758.365000", "094758.368000", "094758.371000", "094758.374000", "094758.377000", "094758.380000", "094758.383000", "094818.321000", "094818.324000", "094818.327000", "094818.330000", "094818.333000", "094818.336000", "094818.339000", "094818.342000", "094818.345000", "094818.348000", "094818.351000", "094818.354000", "094818.357000", "094818.360000", "094818.363000", "094818.366000", "094818.369000", "094818.372000", "094818.375000", "094818.378000", "094838.321000", "094838.324000", "094838.327000", "094838.330000", "094838.333000", "094838.336000", "094838.339000", "094838.342000", "094838.345000", "094838.348000", "094838.351000", "094838.354000", "094838.357000", "094838.360000", "094838.363000", "094838.366000", "094838.369000", "094838.372000", "094838.375000", "094838.379000", "094858.320000", "094858.323000", "094858.326000", "094858.329000", "094858.332000", "094858.335000", "094858.338000", "094858.341000", "094858.344000", "094858.347000", "094858.350000", "094858.353000", "094858.356000", "094858.359000", "094858.362000", "094858.365000", "094858.368000", "094858.371000", "094858.374000", "094858.377000", "094918.320000", "094918.323000", "094918.326000", "094918.329000", "094918.332000", "094918.335000", "094918.338000", "094918.341000", "094918.344000", "094918.347000", "094918.350000", "094918.353000", "094918.356000", "094918.359000", "094918.362000", "094918.365000", "094918.368000", "094918.371000", "094918.374000", "094918.377000", "094936.273000", "094936.277000", "094936.280000", "094936.283000", "094936.286000", "094936.289000", "094936.292000", "094936.295000", "094936.310000", "094936.313000", "094936.316000", "094936.319000", "094936.322000", "094936.325000", "094936.328000", "094936.331000", "094936.334000", "094936.337000"],
      "InstanceNumber": [1, 2, 3, 4, 5, 6, 7, 8, 9, 10, 11, 12, 13, 14, 15, 16, 17, 18, 19, 20, 21, 22, 23, 24, 25, 26, 27, 28, 29, 30, 31, 32, 33, 34, 35, 36, 37, 38, 39, 40, 41, 42, 43, 44, 45, 46, 47, 48, 49, 50, 51, 52, 53, 54, 55, 56, 57, 58, 59, 60, 61, 62, 63, 64, 65, 66, 67, 68, 69, 70, 71, 72, 73, 74, 75, 76, 77, 78, 79, 80, 81, 82, 83, 84, 85, 86, 87, 88, 89, 90, 91, 92, 93, 94, 95, 96, 97, 98, 99, 100, 101, 102, 103, 104, 105, 106, 107, 108, 109, 110, 111, 112, 113, 114, 115, 116, 117, 118, 119, 120, 121, 122, 123, 124, 125, 126, 127, 128, 129, 130, 131, 132, 133, 134, 135, 136, 137, 138, 139, 140, 141, 142, 143, 144, 145, 146, 147, 148, 149, 150, 151, 152, 153, 154, 155, 156, 157, 158, 159, 160, 161, 162, 163, 164, 165, 166, 167, 168, 169, 170, 171, 172, 173, 174, 175, 176, 177, 178, 179, 180, 181, 182, 183, 184, 185, 186, 187, 188, 189, 190, 191, 192, 193, 194, 195, 196, 197, 198, 199, 200, 201, 202, 203, 204, 205, 206, 207, 208, 209, 210, 211, 212, 213, 214, 215, 216, 217, 218, 219, 220, 221, 222, 223, 224, 225, 226, 227, 228, 229, 230, 231, 232, 233, 234, 235, 236, 237, 238, 239, 240, 241, 242, 243, 244, 245, 246, 247, 248, 249, 250, 251, 252, 253, 254, 255, 256, 257, 258, 259, 260, 261, 262, 263, 264, 265, 266, 267, 268, 269, 270, 271, 272, 273, 274, 275, 276, 277, 278, 279, 280, 281, 282, 283, 284, 285, 286, 287, 288, 289, 290, 291, 292, 293, 294, 295, 296, 297, 298, 299, 300],
      "LargestImagePixelValue": [30568, 29601, 29481, 27997, 32411, 29232, 29847, 28274, 27971, 31277, 28062, 27888, 28534, 27713, 28835, 28144, 32917, 29186, 28686, 27586, 28536, 30585, 27888, 28290, 29129, 28975, 27590, 29095, 28310, 28347, 27932, 28159, 28973, 28619, 28502, 28047, 27738, 27407, 30979, 29713, 28361, 30698, 28148, 28646, 29644, 29722, 27857, 28114, 29421, 28948, 28882, 28844, 27479, 28043, 29162, 29783, 28495, 29082, 28330, 30807, 28596, 28199, 27930, 27690, 28673, 29329, 28363, 29026, 29128, 31404, 28748, 29057, 29452, 28908, 29662, 30081, 29788, 28702, 29220, 29977, 29419, 28870, 29618, 29432, 29134, 29709, 29697, 29251, 28157, 29488, 29765, 29621, 30658, 30844, 30932, 29864, 30269, 30543, 30310, 28811, 29277, 29155, 29187, 29323, 30233, 30553, 29976, 29367, 29350, 29419, 29788, 29720, 29363, 30712, 29861, 29413, 29073, 28002, 28308, 28959, 29450, 29403, 28928, 28916, 29486, 29174, 30592, 28840, 29021, 29081, 29059, 28360, 28812, 28971, 28365, 29495, 28746, 29478, 28553, 28999, 29110, 29480, 29989, 30507, 30765, 29594, 30150, 30086, 30188, 30439, 30119, 30080, 29793, 30659, 29189, 29316, 29170, 29483, 28841, 29323, 29562, 29640, 28927, 29571, 29703, 29520, 29687, 29478, 29028, 29019, 30261, 30083, 30004, 29674, 30847, 29685, 29502, 29760, 30099, 29406, 29282, 29687, 30012, 29259, 29427, 29255, 28708, 29609, 31434, 30691, 30705, 29589, 30476, 29613, 28900, 29449, 29893, 29392, 29751, 30617, 29896, 30292, 30261, 29876, 30165, 29023, 30935, 30149, 30123, 29815, 29734, 29767, 30596, 30045, 30331, 31500, 30582, 30396, 29706, 29978, 30150, 29491, 30185, 30447, 29752, 30565, 30541, 30554, 30199, 30823, 30773, 30560, 29692, 30531, 30860, 30541, 31435, 31206, 31191, 30372, 31150, 30919, 30402, 30196, 30075, 29667, 30385, 30533, 30333, 30131, 30632, 30825, 30279, 30158, 30264, 30188, 29891, 30911, 30980, 31600, 30283, 31207, 30927, 30044, 30133, 29742, 29549, 29828, 30402, 30795, 29744, 30487, 30289, 30009, 29617, 29584, 30523, 29888, 29586, 31052, 28443, 29393, 28226, 28400, 28802, 28430, 28682, 28586, 28886, 28947, 28281, 28912, 28377, 28851, 29154, 29062, 29580, 29392, 29267, 29051],
      "WindowCenter": [9018.0, 8994.0, 8974.0, 8943.0, 8999.0, 8946.0, 8953.0, 8927.0, 8912.0, 8959.0, 8896.0, 8891.0, 8882.0, 8867.0, 8893.0, 8894.0, 8981.0, 8925.0, 8946.0, 8933.0, 8962.0, 8966.0, 8909.0, 8907.0, 8918.0, 8919.0, 8895.0, 8938.0, 8921.0, 8928.0, 8921.0, 8919.0, 8928.0, 8913.0, 8905.0, 8907.0, 8903.0, 8904.0, 8964.0, 8960.0, 8937.0, 8980.0, 8925.0, 8924.0, 8942.0, 8942.0, 8927.0, 8927.0, 8951.0, 8941.0, 8939.0, 8932.0, 8927.0, 8933.0, 8953.0, 8966.0, 8938.0, 8978.0, 8943.0, 8972.0, 8940.0, 8924.0, 8914.0, 8905.0, 8915.0, 8921.0, 8927.0, 8941.0, 8940.0, 8973.0, 8925.0, 8923.0, 8912.0, 8897.0, 8918.0, 8934.0, 8937.0, 8933.0, 8922.0, 8923.0, 8904.0, 8884.0, 8893.0, 8887.0, 8891.0, 8905.0, 8924.0, 8912.0, 8903.0, 8918.0, 8905.0, 8893.0, 8903.0, 8903.0, 8899.0, 8881.0, 8900.0, 8916.0, 8918.0, 8916.0, 8912.0, 8914.0, 8922.0, 8922.0, 8935.0, 8936.0, 8928.0, 8914.0, 8903.0, 8892.0, 8896.0, 8897.0, 8902.0, 8931.0, 8957.0, 8964.0, 8967.0, 8947.0, 8938.0, 8931.0, 8925.0, 8915.0, 8891.0, 8889.0, 8901.0, 8893.0, 8929.0, 8906.0, 8914.0, 8922.0, 8917.0, 8909.0, 8905.0, 8911.0, 8900.0, 8930.0, 8928.0, 8951.0, 8940.0, 8944.0, 8936.0, 8942.0, 8946.0, 8952.0, 8959.0, 8940.0, 8945.0, 8946.0, 8946.0, 8951.0, 8935.0, 8934.0, 8938.0, 8951.0, 8941.0, 8941.0, 8933.0, 8928.0, 8907.0, 8911.0, 8911.0, 8910.0, 8898.0, 8919.0, 8928.0, 8922.0, 8930.0, 8924.0, 8918.0, 8917.0, 8935.0, 8937.0, 8938.0, 8939.0, 8952.0, 8932.0, 8923.0, 8921.0, 8919.0, 8913.0, 8907.0, 8923.0, 8939.0, 8928.0, 8943.0, 8925.0, 8899.0, 8911.0, 8926.0, 8920.0, 8929.0, 8930.0, 8954.0, 8952.0, 8939.0, 8935.0, 8924.0, 8914.0, 8909.0, 8911.0, 8899.0, 8919.0, 8921.0, 8926.0, 8933.0, 8915.0, 8927.0, 8875.0, 8870.0, 8865.0, 8922.0, 8902.0, 8881.0, 8903.0, 8899.0, 8929.0, 8927.0, 8931.0, 8905.0, 8902.0, 8897.0, 8892.0, 8906.0, 8913.0, 8907.0, 8919.0, 8911.0, 8902.0, 8901.0, 8909.0, 8909.0, 8908.0, 8898.0, 8911.0, 8920.0, 8915.0, 8927.0, 8925.0, 8923.0, 8912.0, 8928.0, 8946.0, 8952.0, 8957.0, 8967.0, 8949.0, 8953.0, 8944.0, 8932.0, 8923.0, 8939.0, 8949.0, 8953.0, 8956.0, 8964.0, 8957.0, 8948.0, 8949.0, 8947.0, 8950.0, 8924.0, 8952.0, 8957.0, 8935.0, 8922.0, 8894.0, 8883.0, 8872.0, 8879.0, 8885.0, 8873.0, 8888.0, 8896.0, 8892.0, 8874.0, 8862.0, 8910.0, 8843.0, 8865.0, 8930.0, 8893.0, 8938.0, 8897.0, 8922.0, 8921.0, 8895.0, 8879.0, 8870.0, 8890.0, 8864.0, 8848.0, 8859.0, 8873.0, 8884.0, 8871.0, 8872.0, 8898.0, 8929.0, 8942.0, 8953.0],
