{
  "AcquisitionMatrixPE": 104,
  "AcquisitionNumber": 1,
  "AcquisitionTime": "10:08:54.340000",
  "BandwidthPerPixelPhaseEncode": 16.297,
  "BaseResolution": 104,
  "BodyPartExamined": "BRAIN",
  "ConsistencyInfo": "N4_VE11C_LATEST_20160120",
  "ConversionSoftware": "dcm2niix",
  "ConversionSoftwareVersion": "v1.0.20210317",
  "DerivedVendorReportedEchoSpacing": 0.000590009,
  "DeviceSerialNumber": "166018",
  "DwellTime": 2.1e-06,
  "EchoTime": 0.0376,
  "EchoTrainLength": 104,
  "EffectiveEchoSpacing": 0.000590009,
  "FlipAngle": 68,
  "ImageComments": "Unaliased MB6/PE3/LB",
  "ImageOrientationPatientDICOM": [0.998797, -0.0489328, 0.00316731, 0.0488493, 0.987311, -0.151097],
  "ImageType": [
    "ORIGINAL",
    "PRIMARY",
    "M",
    "MB",
    "ND",
    "MOSAIC"
],
  "ImagingFrequency": 123.197,
  "InPlanePhaseEncodingDirectionDICOM": "COL",
  "InstitutionAddress": "Washington Place 6,NYC,NYC,US,10003",
  "InstitutionName": "NYU - CBI",
  "InstitutionalDepartmentName": "Department",
  "MRAcquisitionType": "2D",
  "MagneticFieldStrength": 3,
  "Manufacturer": "Siemens",
  "ManufacturersModelName": "Prisma",
  "Modality": "MR",
  "MultibandAccelerationFactor": 6,
  "PartialFourier": 1,
  "PatientPosition": "HFS",
  "PercentPhaseFOV": 100,
  "PercentSampling": 100,
  "PhaseEncodingDirection": "j",
  "PhaseEncodingSteps": 104,
  "PhaseResolution": 1,
  "PixelBandwidth": 2290,
  "ProcedureStepDescription": "Investigators^Winawer",
  "ProtocolName": "cmrr_mbepi_s6_2mm_66sl_PA_task-wedgering1",
  "PulseSequenceDetails": "%CustomerSeq%\\cmrr_mbep2d_bold",
  "ReceiveCoilActiveElements": "HC1-7",
  "ReceiveCoilName": "HeadNeck_64",
  "ReconMatrixPE": 104,
  "RepetitionTime": 1,
  "SAR": 0.0835456,
  "ScanOptions": "FS",
  "ScanningSequence": "EP",
  "SequenceName": "epfid2d1_104",
  "SequenceVariant": "SK\\SS",
  "SeriesDescription": "cmrr_mbepi_s6_2mm_66sl_PA_task-wedgering1",
  "SeriesNumber": 10,
  "ShimSetting": [269, -12675, -8475, 292, -63, -139, -184, 51],
  "SliceThickness": 2,
  "SliceTiming": [0, 0.5325, 0.0875, 0.6225, 0.1775, 0.7125, 0.2675, 0.8, 0.355, 0.89, 0.445, 0, 0.5325, 0.0875, 0.6225, 0.1775, 0.7125, 0.2675, 0.8, 0.355, 0.89, 0.445, 0, 0.5325, 0.0875, 0.6225, 0.1775, 0.7125, 0.2675, 0.8, 0.355, 0.89, 0.445, 0, 0.5325, 0.0875, 0.6225, 0.1775, 0.7125, 0.2675, 0.8, 0.355, 0.89, 0.445, 0, 0.5325, 0.0875, 0.6225, 0.1775, 0.7125, 0.2675, 0.8, 0.355, 0.89, 0.445, 0, 0.5325, 0.0875, 0.6225, 0.1775, 0.7125, 0.2675, 0.8, 0.355, 0.89, 0.445],
  "SoftwareVersions": "syngo MR E11",
  "SpacingBetweenSlices": 2,
  "StationName": "AWP166018",
  "TaskName": "wedgering1",
  "TotalReadoutTime": 0.060771,
  "TxRefAmp": 211.063,
  "VendorReportedEchoSpacing": 0.00059,
  "WipMemBlock": "2b4262cd-98a5-4a4a-b919-a5aab108a673||Sequence: R016 ve11c/master r/8780670; Nov 27 2017 15:05:12 by eja",
  "dcmmeta_affine": [
    [-1.9975941181182861, 0.09769852459430695, -0.008532923646271229, 101.85900115966797],
    [0.09786564856767654, 1.9746226072311401, -0.3021390736103058, -77.12189483642578],
    [0.006334618199616671, 0.30219313502311707, 1.9770278930664062, -48.13188934326172],
    [0.0, 0.0, 0.0, 1.0]
],
  "dcmmeta_reorient_transform": [
    [0.0, -1.0, 0.0, 103.0],
    [1.0, 0.0, 0.0, 0.0],
    [0.0, 0.0, 1.0, 0.0],
    [0.0, 0.0, 0.0, 1.0]
],
  "dcmmeta_shape": [104, 104, 66, 300],
  "dcmmeta_slice_dim": 2,
  "dcmmeta_version": 0.6,
  "global": {
    "const": {
      "AccessionNumber": "LekLmswf",
      "AcquisitionMatrix": [104, 0, 0, 104],
      "AngioFlag": "N",
      "BitsAllocated": 16,
      "BitsStored": 16,
      "BodyPartExamined": "BRAIN",
      "Columns": 936,
      "EchoNumbers": 1,
      "EchoTime": 37.6,
      "EchoTrainLength": 104,
      "FlipAngle": 68.0,
      "HighBit": 15,
      "ImageOrientationPatient": [0.99879704993033, -0.0489328233817, 0.00316730901195, 0.04884926153802, 0.98731128598273, -0.1510965724903],
      "ImagePositionPatient": [-983.56368289739, -906.99511353792, 106.07115035695],
      "ImageType": [
        "ORIGINAL",
        "PRIMARY",
        "M",
        "MB",
        "ND",
        "MOSAIC"
],
      "ImagedNucleus": "1H",
      "ImagingFrequency": 123.196817,
      "InPlanePhaseEncodingDirection": "COL",
      "MRAcquisitionType": "2D",
      "MagneticFieldStrength": 3.0,
      "Manufacturer": "SIEMENS",
      "ManufacturerModelName": "Prisma",
      "Modality": "MR",
      "NumberOfAverages": 1.0,
      "NumberOfPhaseEncodingSteps": 104,
      "PercentPhaseFieldOfView": 100.0,
      "PercentSampling": 100.0,
      "PerformedProcedureStepStartTime": "094851.153000",
      "PhotometricInterpretation": "MONOCHROME2",
      "PixelBandwidth": 2290.0,
      "PixelRepresentation": 0,
      "PixelSpacing": [2.0, 2.0],
      "ProtocolName": "cmrr_mbepi_s6_2mm_66sl_PA_task-wedgering1",
      "RepetitionTime": 1000.0,
      "Rows": 936,
      "SAR": 0.08354559146894,
      "SamplesPerPixel": 1,
      "ScanOptions": "FS",
      "ScanningSequence": "EP",
      "SequenceName": "epfid2d1_104",
      "SequenceVariant": [
        "SK",
        "SS"
],
      "SeriesDescription": "cmrr_mbepi_s6_2mm_66sl_PA_task-wedgering1",
      "SeriesNumber": 10,
      "SeriesTime": "101005.288000",
      "SliceLocation": -36.362854052414,
      "SliceThickness": 2.0,
      "SmallestImagePixelValue": 0,
      "SoftwareVersions": "syngo MR E11",
      "SpacingBetweenSlices": 2.0000000284228,
      "SpecificCharacterSet": "ISO_IR 100",
      "StudyID": "1",
      "StudyTime": "094851.095000",
      "TransmitCoilName": "Body",
      "VariableFlipAngleFlag": "N",
      "WindowCenterWidthExplanation": "Algo1",
      "dBdt": 0.0},
    "slices": {}
  },
  "time": {
    "samples": {
      "AcquisitionNumber": [1, 2, 3, 4, 5, 6, 7, 8, 9, 10, 11, 12, 13, 14, 15, 16, 17, 18, 19, 20, 21, 22, 23, 24, 25, 26, 27, 28, 29, 30, 31, 32, 33, 34, 35, 36, 37, 38, 39, 40, 41, 42, 43, 44, 45, 46, 47, 48, 49, 50, 51, 52, 53, 54, 55, 56, 57, 58, 59, 60, 61, 62, 63, 64, 65, 66, 67, 68, 69, 70, 71, 72, 73, 74, 75, 76, 77, 78, 79, 80, 81, 82, 83, 84, 85, 86, 87, 88, 89, 90, 91, 92, 93, 94, 95, 96, 97, 98, 99, 100, 101, 102, 103, 104, 105, 106, 107, 108, 109, 110, 111, 112, 113, 114, 115, 116, 117, 118, 119, 120, 121, 122, 123, 124, 125, 126, 127, 128, 129, 130, 131, 132, 133, 134, 135, 136, 137, 138, 139, 140, 141, 142, 143, 144, 145, 146, 147, 148, 149, 150, 151, 152, 153, 154, 155, 156, 157, 158, 159, 160, 161, 162, 163, 164, 165, 166, 167, 168, 169, 170, 171, 172, 173, 174, 175, 176, 177, 178, 179, 180, 181, 182, 183, 184, 185, 186, 187, 188, 189, 190, 191, 192, 193, 194, 195, 196, 197, 198, 199, 200, 201, 202, 203, 204, 205, 206, 207, 208, 209, 210, 211, 212, 213, 214, 215, 216, 217, 218, 219, 220, 221, 222, 223, 224, 225, 226, 227, 228, 229, 230, 231, 232, 233, 234, 235, 236, 237, 238, 239, 240, 241, 242, 243, 244, 245, 246, 247, 248, 249, 250, 251, 252, 253, 254, 255, 256, 257, 258, 259, 260, 261, 262, 263, 264, 265, 266, 267, 268, 269, 270, 271, 272, 273, 274, 275, 276, 277, 278, 279, 280, 281, 282, 283, 284, 285, 286, 287, 288, 289, 290, 291, 292, 293, 294, 295, 296, 297, 298, 299, 300],
      "AcquisitionTime": ["100854.340000", "100855.340000", "100856.340000", "100857.340000", "100858.340000", "100859.340000", "100900.340000", "100901.340000", "100902.340000", "100903.340000", "100904.340000", "100905.340000", "100906.340000", "100907.340000", "100908.340000", "100909.340000", "100910.340000", "100911.340000", "100912.340000", "100913.340000", "100914.340000", "100915.340000", "100916.340000", "100917.340000", "100918.340000", "100919.340000", "100920.340000", "100921.340000", "100922.340000", "100923.340000", "100924.340000", "100925.340000", "100926.340000", "100927.340000", "100928.340000", "100929.340000", "100930.340000", "100931.340000", "100932.340000", "100933.340000", "100934.340000", "100935.340000", "100936.340000", "100937.340000", "100938.340000", "100939.340000", "100940.340000", "100941.340000", "100942.340000", "100943.340000", "100944.340000", "100945.340000", "100946.340000", "100947.340000", "100948.340000", "100949.340000", "100950.340000", "100951.340000", "100952.340000", "100953.340000", "100954.340000", "100955.340000", "100956.340000", "100957.340000", "100958.340000", "100959.340000", "101000.340000", "101001.340000", "101002.340000", "101003.340000", "101004.340000", "101005.340000", "101006.340000", "101007.340000", "101008.340000", "101009.340000", "101010.340000", "101011.340000", "101012.340000", "101013.340000", "101014.340000", "101015.340000", "101016.340000", "101017.340000", "101018.340000", "101019.340000", "101020.340000", "101021.340000", "101022.340000", "101023.340000", "101024.340000", "101025.340000", "101026.340000", "101027.340000", "101028.340000", "101029.340000", "101030.340000", "101031.340000", "101032.340000", "101033.340000", "101034.340000", "101035.340000", "101036.340000", "101037.340000", "101038.340000", "101039.340000", "101040.340000", "101041.340000", "101042.340000", "101043.340000", "101044.340000", "101045.340000", "101046.340000", "101047.340000", "101048.340000", "101049.340000", "101050.340000", "101051.340000", "101052.340000", "101053.340000", "101054.340000", "101055.340000", "101056.340000", "101057.340000", "101058.340000", "101059.340000", "101100.340000", "101101.340000", "101102.340000", "101103.340000", "101104.340000", "101105.340000", "101106.340000", "101107.340000", "101108.340000", "101109.340000", "101110.340000", "101111.340000", "101112.340000", "101113.340000", "101114.340000", "101115.340000", "101116.340000", "101117.340000", "101118.340000", "101119.340000", "101120.340000", "101121.340000", "101122.340000", "101123.340000", "101124.340000", "101125.340000", "101126.340000", "101127.340000", "101128.340000", "101129.340000", "101130.340000", "101131.340000", "101132.340000", "101133.340000", "101134.340000", "101135.340000", "101136.340000", "101137.340000", "101138.340000", "101139.340000", "101140.340000", "101141.340000", "101142.340000", "101143.340000", "101144.340000", "101145.340000", "101146.340000", "101147.340000", "101148.340000", "101149.340000", "101150.340000", "101151.340000", "101152.340000", "101153.340000", "101154.340000", "101155.340000", "101156.340000", "101157.340000", "101158.340000", "101159.340000", "101200.340000", "101201.340000", "101202.340000", "101203.340000", "101204.340000", "101205.340000", "101206.340000", "101207.340000", "101208.340000", "101209.340000", "101210.340000", "101211.340000", "101212.340000", "101213.340000", "101214.340000", "101215.340000", "101216.340000", "101217.340000", "101218.340000", "101219.340000", "101220.340000", "101221.340000", "101222.340000", "101223.340000", "101224.340000", "101225.340000", "101226.340000", "101227.340000", "101228.340000", "101229.340000", "101230.340000", "101231.340000", "101232.340000", "101233.340000", "101234.340000", "101235.340000", "101236.340000", "101237.340000", "101238.340000", "101239.340000", "101240.340000", "101241.340000", "101242.340000", "101243.340000", "101244.340000", "101245.340000", "101246.340000", "101247.340000", "101248.340000", "101249.340000", "101250.340000", "101251.340000", "101252.340000", "101253.340000", "101254.340000", "101255.340000", "101256.340000", "101257.340000", "101258.340000", "101259.340000", "101300.340000", "101301.340000", "101302.340000", "101303.340000", "101304.340000", "101305.340000", "101306.340000", "101307.340000", "101308.340000", "101309.340000", "101310.340000", "101311.340000", "101312.340000", "101313.340000", "101314.340000", "101315.340000", "101316.340000", "101317.340000", "101318.340000", "101319.340000", "101320.340000", "101321.340000", "101322.340000", "101323.340000", "101324.340000", "101325.340000", "101326.340000", "101327.340000", "101328.340000", "101329.340000", "101330.340000", "101331.340000", "101332.340000", "101333.340000", "101334.340000", "101335.340000", "101336.340000", "101337.340000", "101338.340000", "101339.340000", "101340.340000", "101341.340000", "101342.340000", "101343.340000", "101344.340000", "101345.340000", "101346.340000", "101347.340000", "101348.340000", "101349.340000", "101350.340000", "101351.340000", "101352.340000", "101353.340000"],
      "ContentTime": ["101005.290000", "101005.294000", "101005.297000", "101005.300000", "101005.303000", "101005.306000", "101005.309000", "101005.312000", "101005.315000", "101005.320000", "101005.323000", "101005.327000", "101005.330000", "101005.333000", "101005.341000", "101005.344000", "101005.347000", "101005.350000", "101005.353000", "101005.356000", "101005.359000", "101005.362000", "101025.255000", "101025.258000", "101025.261000", "101025.264000", "101025.267000", "101025.270000", "101025.277000", "101025.280000", "101025.283000", "101025.286000", "101025.289000", "101025.292000", "101025.295000", "101025.298000", "101025.301000", "101025.304000", "101025.307000", "101025.311000", "101025.314000", "101025.317000", "101025.320000", "101025.323000", "101025.326000", "101025.329000", "101025.332000", "101025.335000", "101025.338000", "101025.341000", "101025.344000", "101045.255000", "101045.258000", "101045.261000", "101045.264000", "101045.267000", "101045.270000", "101045.273000", "101045.276000", "101045.279000", "101045.282000", "101045.285000", "101045.288000", "101045.291000", "101045.294000", "101045.297000", "101045.300000", "101045.303000", "101045.306000", "101045.309000", "101045.312000", "101045.326000", "101045.329000", "101045.332000", "101045.335000", "101045.338000", "101045.341000", "101045.344000", "101045.347000", "101105.255000", "101105.258000", "101105.261000", "101105.264000", "101105.268000", "101105.271000", "101105.274000", "101105.277000", "101105.280000", "101105.283000", "101105.286000", "101105.289000", "101105.292000", "101105.295000", "101105.298000", "101105.301000", "101105.304000", "101105.307000", "101105.310000", "101105.313000", "101105.316000", "101105.319000", "101105.322000", "101105.325000", "101105.328000", "101105.331000", "101105.334000", "101105.337000", "101125.256000", "101125.259000", "101125.262000", "101125.265000", "101125.268000", "101125.271000", "101125.274000", "101125.277000", "101125.280000", "101125.283000", "101125.286000", "101125.290000", "101125.293000", "101125.296000", "101125.299000", "101125.302000", "101125.305000", "101125.308000", "101125.311000", "101125.319000", "101125.322000", "101125.325000", "101125.328000", "101125.331000", "101125.335000", "101125.338000", "101125.341000", "101125.344000", "101145.256000", "101145.259000", "101145.262000", "101145.265000", "101145.268000", "101145.271000", "101145.274000", "101145.277000", "101145.280000", "101145.283000", "101145.287000", "101145.290000", "101145.293000", "101145.295000", "101145.298000", "101145.306000", "101145.309000", "101145.312000", "101145.315000", "101145.318000", "101145.321000", "101145.324000", "101145.327000", "101145.330000", "101145.333000", "101145.336000", "101145.339000", "101145.342000", "101145.345000", "101205.256000", "101205.259000", "101205.262000", "101205.265000", "101205.268000", "101205.271000", "101205.275000", "101205.278000", "101205.281000", "101205.284000", "101205.287000", "101205.290000", "101205.293000", "101205.296000", "101205.299000", "101205.302000", "101205.305000", "101205.308000", "101205.311000", "101205.314000", "101205.317000", "101205.320000", "101205.323000", "101205.326000", "101205.329000", "101205.332000", "101225.255000", "101225.258000", "101225.261000", "101225.264000", "101225.268000", "101225.271000", "101225.274000", "101225.277000", "101225.280000", "101225.283000", "101225.286000", "101225.297000", "101225.300000", "101225.303000", "101225.306000", "101225.309000", "101225.312000", "101225.315000", "101225.318000", "101225.321000", "101245.255000", "101245.258000", "101245.261000", "101245.264000", "101245.267000", "101245.270000", "101245.273000", "101245.277000", "101245.280000", "101245.283000", "101245.286000", "101245.289000", "101245.292000", "101245.295000", "101245.298000", "101245.301000", "101245.304000", "101245.307000", "101245.310000", "101245.313000", "101305.255000", "101305.258000", "101305.261000", "101305.264000", "101305.267000", "101305.270000", "101305.273000", "101305.276000", "101305.280000", "101305.283000", "101305.286000", "101305.289000", "101305.292000", "101305.295000", "101305.303000", "101305.306000", "101305.309000", "101305.312000", "101305.315000", "101305.318000", "101325.255000", "101325.258000", "101325.261000", "101325.264000", "101325.267000", "101325.270000", "101325.273000", "101325.276000", "101325.279000", "101325.282000", "101325.285000", "101325.289000", "101325.292000", "101325.295000", "101325.298000", "101325.301000", "101325.304000", "101325.307000", "101325.310000", "101325.313000", "101345.256000", "101345.259000", "101345.262000", "101345.265000", "101345.268000", "101345.271000", "101345.274000", "101345.277000", "101345.281000", "101345.284000", "101345.287000", "101345.290000", "101345.293000", "101345.296000", "101345.299000", "101345.302000", "101345.305000", "101345.308000", "101345.311000", "101345.314000", "101354.721000", "101354.725000", "101354.728000", "101354.731000", "101354.734000", "101354.737000", "101354.740000", "101354.743000", "101354.746000", "101354.749000"],
      "InstanceCreationTime": ["101005.290000", "101005.294000", "101005.297000", "101005.300000", "101005.303000", "101005.306000", "101005.309000", "101005.312000", "101005.315000", "101005.320000", "101005.323000", "101005.327000", "101005.330000", "101005.333000", "101005.341000", "101005.344000", "101005.347000", "101005.350000", "101005.353000", "101005.356000", "101005.359000", "101005.362000", "101025.255000", "101025.258000", "101025.261000", "101025.264000", "101025.267000", "101025.270000", "101025.277000", "101025.280000", "101025.283000", "101025.286000", "101025.289000", "101025.292000", "101025.295000", "101025.298000", "101025.301000", "101025.304000", "101025.307000", "101025.311000", "101025.314000", "101025.317000", "101025.320000", "101025.323000", "101025.326000", "101025.329000", "101025.332000", "101025.335000", "101025.338000", "101025.341000", "101025.344000", "101045.255000", "101045.258000", "101045.261000", "101045.264000", "101045.267000", "101045.270000", "101045.273000", "101045.276000", "101045.279000", "101045.282000", "101045.285000", "101045.288000", "101045.291000", "101045.294000", "101045.297000", "101045.300000", "101045.303000", "101045.306000", "101045.309000", "101045.312000", "101045.326000", "101045.329000", "101045.332000", "101045.335000", "101045.338000", "101045.341000", "101045.344000", "101045.347000", "101105.255000", "101105.258000", "101105.261000", "101105.264000", "101105.268000", "101105.271000", "101105.274000", "101105.277000", "101105.280000", "101105.283000", "101105.286000", "101105.289000", "101105.292000", "101105.295000", "101105.298000", "101105.301000", "101105.304000", "101105.307000", "101105.310000", "101105.313000", "101105.316000", "101105.319000", "101105.322000", "101105.325000", "101105.328000", "101105.331000", "101105.334000", "101105.337000", "101125.256000", "101125.259000", "101125.262000", "101125.265000", "101125.268000", "101125.271000", "101125.274000", "101125.277000", "101125.280000", "101125.283000", "101125.286000", "101125.290000", "101125.293000", "101125.296000", "101125.299000", "101125.302000", "101125.305000", "101125.308000", "101125.311000", "101125.319000", "101125.322000", "101125.325000", "101125.328000", "101125.331000", "101125.335000", "101125.338000", "101125.341000", "101125.344000", "101145.256000", "101145.259000", "101145.262000", "101145.265000", "101145.268000", "101145.271000", "101145.274000", "101145.277000", "101145.280000", "101145.283000", "101145.287000", "101145.290000", "101145.293000", "101145.295000", "101145.298000", "101145.306000", "101145.309000", "101145.312000", "101145.315000", "101145.318000", "101145.321000", "101145.324000", "101145.327000", "101145.330000", "101145.333000", "101145.336000", "101145.339000", "101145.342000", "101145.345000", "101205.256000", "101205.259000", "101205.262000", "101205.265000", "101205.268000", "101205.271000", "101205.275000", "101205.278000", "101205.281000", "101205.284000", "101205.287000", "101205.290000", "101205.293000", "101205.296000", "101205.299000", "101205.302000", "101205.305000", "101205.308000", "101205.311000", "101205.314000", "101205.317000", "101205.320000", "101205.323000", "101205.326000", "101205.329000", "101205.332000", "101225.255000", "101225.258000", "101225.261000", "101225.264000", "101225.268000", "101225.271000", "101225.274000", "101225.277000", "101225.280000", "101225.283000", "101225.286000", "101225.297000", "101225.300000", "101225.303000", "101225.306000", "101225.309000", "101225.312000", "101225.315000", "101225.318000", "101225.321000", "101245.255000", "101245.258000", "101245.261000", "101245.264000", "101245.267000", "101245.270000", "101245.273000", "101245.277000", "101245.280000", "101245.283000", "101245.286000", "101245.289000", "101245.292000", "101245.295000", "101245.298000", "101245.301000", "101245.304000", "101245.307000", "101245.310000", "101245.313000", "101305.255000", "101305.258000", "101305.261000", "101305.264000", "101305.267000", "101305.270000", "101305.273000", "101305.276000", "101305.280000", "101305.283000", "101305.286000", "101305.289000", "101305.292000", "101305.295000", "101305.303000", "101305.306000", "101305.309000", "101305.312000", "101305.315000", "101305.318000", "101325.255000", "101325.258000", "101325.261000", "101325.264000", "101325.267000", "101325.270000", "101325.273000", "101325.276000", "101325.279000", "101325.282000", "101325.285000", "101325.289000", "101325.292000", "101325.295000", "101325.298000", "101325.301000", "101325.304000", "101325.307000", "101325.310000", "101325.313000", "101345.256000", "101345.259000", "101345.262000", "101345.265000", "101345.268000", "101345.271000", "101345.274000", "101345.277000", "101345.281000", "101345.284000", "101345.287000", "101345.290000", "101345.293000", "101345.296000", "101345.299000", "101345.302000", "101345.305000", "101345.308000", "101345.311000", "101345.314000", "101354.721000", "101354.725000", "101354.728000", "101354.731000", "101354.734000", "101354.737000", "101354.740000", "101354.743000", "101354.746000", "101354.749000"],
      "InstanceNumber": [1, 2, 3, 4, 5, 6, 7, 8, 9, 10, 11, 12, 13, 14, 15, 16, 17, 18, 19, 20, 21, 22, 23, 24, 25, 26, 27, 28, 29, 30, 31, 32, 33, 34, 35, 36, 37, 38, 39, 40, 41, 42, 43, 44, 45, 46, 47, 48, 49, 50, 51, 52, 53, 54, 55, 56, 57, 58, 59, 60, 61, 62, 63, 64, 65, 66, 67, 68, 69, 70, 71, 72, 73, 74, 75, 76, 77, 78, 79, 80, 81, 82, 83, 84, 85, 86, 87, 88, 89, 90, 91, 92, 93, 94, 95, 96, 97, 98, 99, 100, 101, 102, 103, 104, 105, 106, 107, 108, 109, 110, 111, 112, 113, 114, 115, 116, 117, 118, 119, 120, 121, 122, 123, 124, 125, 126, 127, 128, 129, 130, 131, 132, 133, 134, 135, 136, 137, 138, 139, 140, 141, 142, 143, 144, 145, 146, 147, 148, 149, 150, 151, 152, 153, 154, 155, 156, 157, 158, 159, 160, 161, 162, 163, 164, 165, 166, 167, 168, 169, 170, 171, 172, 173, 174, 175, 176, 177, 178, 179, 180, 181, 182, 183, 184, 185, 186, 187, 188, 189, 190, 191, 192, 193, 194, 195, 196, 197, 198, 199, 200, 201, 202, 203, 204, 205, 206, 207, 208, 209, 210, 211, 212, 213, 214, 215, 216, 217, 218, 219, 220, 221, 222, 223, 224, 225, 226, 227, 228, 229, 230, 231, 232, 233, 234, 235, 236, 237, 238, 239, 240, 241, 242, 243, 244, 245, 246, 247, 248, 249, 250, 251, 252, 253, 254, 255, 256, 257, 258, 259, 260, 261, 262, 263, 264, 265, 266, 267, 268, 269, 270, 271, 272, 273, 274, 275, 276, 277, 278, 279, 280, 281, 282, 283, 284, 285, 286, 287, 288, 289, 290, 291, 292, 293, 294, 295, 296, 297, 298, 299, 300],
      "LargestImagePixelValue": [49426, 48586, 47204, 46940, 46611, 46584, 45788, 45911, 46661, 45089, 45597, 46013, 45596, 45718, 45905, 45467, 45352, 46127, 45243, 45378, 46632, 45465, 46091, 45980, 45874, 45704, 46154, 45714, 46430, 46089, 45475, 45586, 46019, 45550, 45197, 46219, 46026, 45391, 46620, 46296, 46140, 46150, 46131, 45792, 46382, 46142, 46175, 46328, 45798, 46134, 46102, 45881, 46249, 46182, 46244, 46153, 46286, 46014, 46049, 46482, 46344, 46005, 46466, 46294, 46536, 46218, 46087, 46394, 46407, 46432, 46138, 46308, 46151, 45743, 46692, 46724, 45924, 46283, 46310, 45725, 46115, 46088, 46128, 46058, 46637, 45521, 45830, 46161, 45305, 45207, 46007, 45748, 45613, 45914, 45536, 45815, 46121, 45553, 45927, 45637, 45635, 45720, 45984, 45619, 45879, 46248, 45562, 45624, 46359, 46054, 45646, 45893, 45800, 45661, 46280, 45545, 45744, 46707, 45910, 45801, 45897, 45824, 45306, 45091, 45280, 45394, 45617, 45974, 45826, 45718, 45295, 45214, 45818, 45733, 45779, 45744, 45938, 45885, 45293, 45773, 46421, 45295, 45696, 46453, 46026, 45995, 46163, 45733, 45664, 46244, 45735, 45561, 46352, 46143, 46316, 45970, 45714, 46074, 46200, 45706, 45443, 46050, 45900, 45582, 46135, 46026, 45831, 46163, 46234, 46033, 46352, 46353, 45660, 46276, 46375, 45620, 46103, 45655, 45892, 46618, 45781, 46083, 46648, 45883, 46078, 46516, 46522, 46411, 46294, 46107, 46310, 46194, 46370, 46468, 46028, 45884, 46036, 45910, 46161, 46050, 46105, 45945, 46742, 46011, 46442, 46401, 45265, 46140, 46139, 46145, 46376, 45906, 46198, 46416, 45881, 46031, 46492, 46150, 45932, 46374, 46324, 45449, 46323, 45993, 45493, 45764, 46327, 45754, 46576, 46476, 45430, 46079, 45867, 45896, 46106, 45999, 46092, 45899, 46607, 45879, 45636, 46575, 45613, 45703, 46287, 45451, 45415, 46648, 46254, 45793, 46699, 46061, 46204, 46589, 45989, 45752, 46215, 45960, 46102, 45931, 45507, 45994, 46336, 45530, 46276, 46570, 45632, 46111, 46192, 45404, 46357, 46123, 45428, 46637, 46163, 46122, 46030, 45853, 46038, 46488, 45578, 46697, 46519, 45838, 46435, 46175, 45882, 46558, 46569, 46376, 46406, 47099, 46179, 46684, 46809, 46155, 46882, 46552, 46325, 46552],
      "WindowCenter": [10549.0, 10517.0, 10497.0, 10489.0, 10482.0, 10476.0, 10464.0, 10457.0, 10465.0, 10452.0, 10456.0, 10466.0, 10458.0, 10461.0, 10462.0, 10462.0, 10463.0, 10467.0, 10463.0, 10463.0, 10472.0, 10463.0, 10472.0, 10468.0, 10462.0, 10467.0, 10468.0, 10463.0, 10471.0, 10468.0, 10469.0, 10464.0, 10474.0, 10466.0, 10465.0, 10475.0, 10474.0, 10470.0, 10477.0, 10473.0, 10474.0, 10473.0, 10473.0, 10473.0, 10480.0, 10474.0, 10478.0, 10485.0, 10480.0, 10481.0, 10486.0, 10485.0, 10485.0, 10481.0, 10488.0, 10481.0, 10480.0, 10475.0, 10472.0, 10467.0, 10471.0, 10462.0, 10467.0, 10478.0, 10474.0, 10469.0, 10473.0, 10471.0, 10465.0, 10469.0, 10470.0, 10466.0, 10468.0, 10468.0, 10477.0, 10479.0, 10474.0, 10479.0, 10480.0, 10477.0, 10482.0, 10483.0, 10481.0, 10476.0, 10475.0, 10464.0, 10462.0, 10467.0, 10457.0, 10457.0, 10467.0, 10467.0, 10469.0, 10470.0, 10470.0, 10470.0, 10471.0, 10466.0, 10475.0, 10482.0, 10479.0, 10485.0, 10490.0, 10498.0, 10493.0, 10496.0, 10482.0, 10479.0, 10481.0, 10474.0, 10468.0, 10470.0, 10475.0, 10482.0, 10494.0, 10487.0, 10485.0, 10487.0, 10470.0, 10463.0, 10456.0, 10454.0, 10453.0, 10449.0, 10449.0, 10449.0, 10460.0, 10460.0, 10461.0, 10463.0, 10458.0, 10460.0, 10465.0, 10463.0, 10462.0, 10462.0, 10462.0, 10457.0, 10462.0, 10464.0, 10473.0, 10470.0, 10475.0, 10479.0, 10470.0, 10470.0, 10470.0, 10477.0, 10480.0, 10491.0, 10487.0, 10476.0, 10478.0, 10475.0, 10468.0, 10462.0, 10459.0, 10467.0, 10469.0, 10471.0, 10473.0, 10483.0, 10482.0, 10479.0, 10474.0, 10476.0, 10472.0, 10469.0, 10469.0, 10463.0, 10467.0, 10468.0, 10471.0, 10481.0, 10477.0, 10478.0, 10479.0, 10481.0, 10484.0, 10498.0, 10485.0, 10483.0, 10485.0, 10469.0, 10467.0, 10471.0, 10470.0, 10470.0, 10469.0, 10471.0, 10471.0, 10466.0, 10469.0, 10464.0, 10463.0, 10459.0, 10463.0, 10458.0, 10457.0, 10457.0, 10458.0, 10464.0, 10469.0, 10467.0, 10471.0, 10475.0, 10462.0, 10464.0, 10457.0, 10462.0, 10457.0, 10451.0, 10451.0, 10457.0, 10457.0, 10460.0, 10465.0, 10465.0, 10465.0, 10464.0, 10462.0, 10454.0, 10458.0, 10463.0, 10462.0, 10467.0, 10476.0, 10474.0, 10483.0, 10478.0, 10470.0, 10474.0, 10467.0, 10467.0, 10467.0, 10465.0, 10466.0, 10469.0, 10483.0, 10475.0, 10476.0, 10484.0, 10471.0, 10476.0, 10479.0, 10465.0, 10463.0, 10469.0, 10463.0, 10458.0, 10468.0, 10458.0, 10459.0, 10468.0, 10464.0, 10467.0, 10472.0, 10472.0, 10474.0, 10475.0, 10470.0, 10482.0, 10487.0, 10477.0, 10485.0, 10480.0, 10471.0, 10474.0, 10468.0, 10462.0, 10463.0, 10457.0, 10453.0, 10462.0, 10459.0, 10466.0, 10465.0, 10458.0, 10459.0, 10456.0, 10446.0, 10454.0, 10448.0, 10449.0, 10453.0, 10444.0, 10450.0, 10449.0, 10448.0, 10449.0, 10448.0, 10453.0, 10449.0, 10453.0, 10453.0, 10445.0, 10458.0, 10451.0, 10456.0, 10456.0],
