{
  "AcquisitionMatrixPE": 104,
  "AcquisitionNumber": 1,
  "AcquisitionTime": "10:28:40.412500",
  "BandwidthPerPixelPhaseEncode": 16.297,
  "BaseResolution": 104,
  "BodyPartExamined": "BRAIN",
  "ConsistencyInfo": "N4_VE11C_LATEST_20160120",
  "ConversionSoftware": "dcm2niix",
  "ConversionSoftwareVersion": "v1.0.20210317",
  "DerivedVendorReportedEchoSpacing": 0.000590009,
  "DeviceSerialNumber": "166018",
  "DwellTime": 2.1e-06,
  "EchoTime": 0.0376,
  "EchoTrainLength": 104,
  "EffectiveEchoSpacing": 0.000590009,
  "FlipAngle": 68,
  "ImageComments": "Unaliased MB6/PE3/LB",
  "ImageOrientationPatientDICOM": [0.998797, -0.0489328, 0.00316731, 0.0488493, 0.987311, -0.151097],
  "ImageType": [
    "ORIGINAL",
    "PRIMARY",
    "M",
    "MB",
    "ND",
    "MOSAIC"
],
  "ImagingFrequency": 123.197,
  "InPlanePhaseEncodingDirectionDICOM": "COL",
  "InstitutionAddress": "Washington Place 6,NYC,NYC,US,10003",
  "InstitutionName": "NYU - CBI",
  "InstitutionalDepartmentName": "Department",
  "MRAcquisitionType": "2D",
  "MagneticFieldStrength": 3,
  "Manufacturer": "Siemens",
  "ManufacturersModelName": "Prisma",
  "Modality": "MR",
  "MultibandAccelerationFactor": 6,
  "PartialFourier": 1,
  "PatientPosition": "HFS",
  "PercentPhaseFOV": 100,
  "PercentSampling": 100,
  "PhaseEncodingDirection": "j",
  "PhaseEncodingSteps": 104,
  "PhaseResolution": 1,
  "PixelBandwidth": 2290,
  "ProcedureStepDescription": "Investigators^Winawer",
  "ProtocolName": "cmrr_mbepi_s6_2mm_66sl_PA_task-bar3",
  "PulseSequenceDetails": "%CustomerSeq%\\cmrr_mbep2d_bold",
  "ReceiveCoilActiveElements": "HC1-7",
  "ReceiveCoilName": "HeadNeck_64",
  "ReconMatrixPE": 104,
  "RepetitionTime": 1,
  "SAR": 0.0835456,
  "ScanOptions": "FS",
  "ScanningSequence": "EP",
  "SequenceName": "epfid2d1_104",
  "SequenceVariant": "SK\\SS",
  "SeriesDescription": "cmrr_mbepi_s6_2mm_66sl_PA_task-bar3",
  "SeriesNumber": 16,
  "ShimSetting": [269, -12675, -8475, 292, -63, -139, -184, 51],
  "SliceThickness": 2,
  "SliceTiming": [0, 0.5325, 0.0875, 0.6225, 0.1775, 0.7125, 0.2675, 0.8, 0.355, 0.89, 0.445, 0, 0.5325, 0.0875, 0.6225, 0.1775, 0.7125, 0.2675, 0.8, 0.355, 0.89, 0.445, 0, 0.5325, 0.0875, 0.6225, 0.1775, 0.7125, 0.2675, 0.8, 0.355, 0.89, 0.445, 0, 0.5325, 0.0875, 0.6225, 0.1775, 0.7125, 0.2675, 0.8, 0.355, 0.89, 0.445, 0, 0.5325, 0.0875, 0.6225, 0.1775, 0.7125, 0.2675, 0.8, 0.355, 0.89, 0.445, 0, 0.5325, 0.0875, 0.6225, 0.1775, 0.7125, 0.2675, 0.8, 0.355, 0.89, 0.445],
  "SoftwareVersions": "syngo MR E11",
  "SpacingBetweenSlices": 2,
  "StationName": "AWP166018",
  "TaskName": "bar3",
  "TotalReadoutTime": 0.060771,
  "TxRefAmp": 211.063,
  "VendorReportedEchoSpacing": 0.00059,
  "WipMemBlock": "5513acb8-925b-4d87-9d3c-3ab39271a769||Sequence: R016 ve11c/master r/8780670; Nov 27 2017 15:05:12 by eja",
  "dcmmeta_affine": [
    [-1.9975941181182861, 0.09769852459430695, -0.008532923646271229, 101.85900115966797],
    [0.09786564856767654, 1.9746226072311401, -0.3021390736103058, -77.12189483642578],
    [0.006334618199616671, 0.30219313502311707, 1.9770278930664062, -48.13188934326172],
    [0.0, 0.0, 0.0, 1.0]
],
  "dcmmeta_reorient_transform": [
    [0.0, -1.0, 0.0, 103.0],
    [1.0, 0.0, 0.0, 0.0],
    [0.0, 0.0, 1.0, 0.0],
    [0.0, 0.0, 0.0, 1.0]
],
  "dcmmeta_shape": [104, 104, 66, 300],
  "dcmmeta_slice_dim": 2,
  "dcmmeta_version": 0.6,
  "global": {
    "const": {
      "AccessionNumber": "LekLmswf",
      "AcquisitionMatrix": [104, 0, 0, 104],
      "AngioFlag": "N",
      "BitsAllocated": 16,
      "BitsStored": 16,
      "BodyPartExamined": "BRAIN",
      "Columns": 936,
      "EchoNumbers": 1,
      "EchoTime": 37.6,
      "EchoTrainLength": 104,
      "FlipAngle": 68.0,
      "HighBit": 15,
      "ImageOrientationPatient": [0.99879704993033, -0.0489328233817, 0.00316730901195, 0.04884926153802, 0.98731128598273, -0.1510965724903],
      "ImagePositionPatient": [-983.56368289739, -906.99511353792, 106.07115035695],
      "ImageType": [
        "ORIGINAL",
        "PRIMARY",
        "M",
        "MB",
        "ND",
        "MOSAIC"
],
      "ImagedNucleus": "1H",
      "ImagingFrequency": 123.196824,
      "InPlanePhaseEncodingDirection": "COL",
      "MRAcquisitionType": "2D",
      "MagneticFieldStrength": 3.0,
      "Manufacturer": "SIEMENS",
      "ManufacturerModelName": "Prisma",
      "Modality": "MR",
      "NumberOfAverages": 1.0,
      "NumberOfPhaseEncodingSteps": 104,
      "PercentPhaseFieldOfView": 100.0,
      "PercentSampling": 100.0,
      "PerformedProcedureStepStartTime": "094851.153000",
      "PhotometricInterpretation": "MONOCHROME2",
      "PixelBandwidth": 2290.0,
      "PixelRepresentation": 0,
      "PixelSpacing": [2.0, 2.0],
      "ProtocolName": "cmrr_mbepi_s6_2mm_66sl_PA_task-bar3",
      "RepetitionTime": 1000.0,
      "Rows": 936,
      "SAR": 0.08354559146894,
      "SamplesPerPixel": 1,
      "ScanOptions": "FS",
      "ScanningSequence": "EP",
      "SequenceName": "epfid2d1_104",
      "SequenceVariant": [
        "SK",
        "SS"
],
      "SeriesDescription": "cmrr_mbepi_s6_2mm_66sl_PA_task-bar3",
      "SeriesNumber": 16,
      "SeriesTime": "102945.285000",
      "SliceLocation": -36.362854052414,
      "SliceThickness": 2.0,
      "SmallestImagePixelValue": 0,
      "SoftwareVersions": "syngo MR E11",
      "SpacingBetweenSlices": 2.0000000284228,
      "SpecificCharacterSet": "ISO_IR 100",
      "StudyID": "1",
      "StudyTime": "094851.095000",
      "TransmitCoilName": "Body",
      "VariableFlipAngleFlag": "N",
      "WindowCenterWidthExplanation": "Algo1",
      "dBdt": 0.0},
    "slices": {}
  },
  "time": {
    "samples": {
      "AcquisitionNumber": [1, 2, 3, 4, 5, 6, 7, 8, 9, 10, 11, 12, 13, 14, 15, 16, 17, 18, 19, 20, 21, 22, 23, 24, 25, 26, 27, 28, 29, 30, 31, 32, 33, 34, 35, 36, 37, 38, 39, 40, 41, 42, 43, 44, 45, 46, 47, 48, 49, 50, 51, 52, 53, 54, 55, 56, 57, 58, 59, 60, 61, 62, 63, 64, 65, 66, 67, 68, 69, 70, 71, 72, 73, 74, 75, 76, 77, 78, 79, 80, 81, 82, 83, 84, 85, 86, 87, 88, 89, 90, 91, 92, 93, 94, 95, 96, 97, 98, 99, 100, 101, 102, 103, 104, 105, 106, 107, 108, 109, 110, 111, 112, 113, 114, 115, 116, 117, 118, 119, 120, 121, 122, 123, 124, 125, 126, 127, 128, 129, 130, 131, 132, 133, 134, 135, 136, 137, 138, 139, 140, 141, 142, 143, 144, 145, 146, 147, 148, 149, 150, 151, 152, 153, 154, 155, 156, 157, 158, 159, 160, 161, 162, 163, 164, 165, 166, 167, 168, 169, 170, 171, 172, 173, 174, 175, 176, 177, 178, 179, 180, 181, 182, 183, 184, 185, 186, 187, 188, 189, 190, 191, 192, 193, 194, 195, 196, 197, 198, 199, 200, 201, 202, 203, 204, 205, 206, 207, 208, 209, 210, 211, 212, 213, 214, 215, 216, 217, 218, 219, 220, 221, 222, 223, 224, 225, 226, 227, 228, 229, 230, 231, 232, 233, 234, 235, 236, 237, 238, 239, 240, 241, 242, 243, 244, 245, 246, 247, 248, 249, 250, 251, 252, 253, 254, 255, 256, 257, 258, 259, 260, 261, 262, 263, 264, 265, 266, 267, 268, 269, 270, 271, 272, 273, 274, 275, 276, 277, 278, 279, 280, 281, 282, 283, 284, 285, 286, 287, 288, 289, 290, 291, 292, 293, 294, 295, 296, 297, 298, 299, 300],
      "AcquisitionTime": ["102840.412500", "102841.412500", "102842.412500", "102843.412500", "102844.412500", "102845.412500", "102846.412500", "102847.412500", "102848.412500", "102849.412500", "102850.412500", "102851.412500", "102852.412500", "102853.412500", "102854.412500", "102855.412500", "102856.412500", "102857.412500", "102858.412500", "102859.412500", "102900.412500", "102901.412500", "102902.412500", "102903.412500", "102904.412500", "102905.412500", "102906.412500", "102907.412500", "102908.412500", "102909.412500", "102910.412500", "102911.412500", "102912.412500", "102913.412500", "102914.412500", "102915.412500", "102916.412500", "102917.412500", "102918.412500", "102919.412500", "102920.412500", "102921.412500", "102922.412500", "102923.412500", "102924.412500", "102925.412500", "102926.412500", "102927.412500", "102928.412500", "102929.412500", "102930.412500", "102931.412500", "102932.412500", "102933.412500", "102934.412500", "102935.412500", "102936.412500", "102937.412500", "102938.412500", "102939.412500", "102940.412500", "102941.412500", "102942.412500", "102943.412500", "102944.412500", "102945.412500", "102946.412500", "102947.412500", "102948.412500", "102949.412500", "102950.412500", "102951.412500", "102952.412500", "102953.412500", "102954.412500", "102955.412500", "102956.412500", "102957.412500", "102958.412500", "102959.412500", "103000.412500", "103001.412500", "103002.412500", "103003.412500", "103004.412500", "103005.412500", "103006.412500", "103007.412500", "103008.412500", "103009.412500", "103010.412500", "103011.412500", "103012.412500", "103013.412500", "103014.412500", "103015.412500", "103016.412500", "103017.412500", "103018.412500", "103019.412500", "103020.412500", "103021.412500", "103022.412500", "103023.412500", "103024.412500", "103025.412500", "103026.412500", "103027.412500", "103028.412500", "103029.412500", "103030.412500", "103031.412500", "103032.412500", "103033.412500", "103034.412500", "103035.412500", "103036.412500", "103037.412500", "103038.412500", "103039.412500", "103040.412500", "103041.412500", "103042.412500", "103043.412500", "103044.412500", "103045.412500", "103046.412500", "103047.412500", "103048.412500", "103049.412500", "103050.412500", "103051.412500", "103052.412500", "103053.412500", "103054.412500", "103055.412500", "103056.412500", "103057.412500", "103058.412500", "103059.412500", "103100.412500", "103101.412500", "103102.412500", "103103.412500", "103104.412500", "103105.412500", "103106.412500", "103107.412500", "103108.412500", "103109.412500", "103110.412500", "103111.412500", "103112.412500", "103113.412500", "103114.412500", "103115.412500", "103116.412500", "103117.412500", "103118.412500", "103119.412500", "103120.412500", "103121.412500", "103122.412500", "103123.412500", "103124.412500", "103125.412500", "103126.412500", "103127.412500", "103128.412500", "103129.412500", "103130.412500", "103131.412500", "103132.412500", "103133.412500", "103134.412500", "103135.412500", "103136.412500", "103137.412500", "103138.412500", "103139.412500", "103140.412500", "103141.412500", "103142.412500", "103143.412500", "103144.412500", "103145.412500", "103146.412500", "103147.412500", "103148.412500", "103149.412500", "103150.412500", "103151.412500", "103152.412500", "103153.412500", "103154.412500", "103155.412500", "103156.412500", "103157.412500", "103158.412500", "103159.412500", "103200.412500", "103201.412500", "103202.412500", "103203.412500", "103204.412500", "103205.412500", "103206.412500", "103207.412500", "103208.412500", "103209.412500", "103210.412500", "103211.412500", "103212.412500", "103213.412500", "103214.412500", "103215.412500", "103216.412500", "103217.412500", "103218.412500", "103219.412500", "103220.412500", "103221.412500", "103222.412500", "103223.412500", "103224.412500", "103225.412500", "103226.412500", "103227.412500", "103228.412500", "103229.412500", "103230.412500", "103231.412500", "103232.412500", "103233.412500", "103234.412500", "103235.412500", "103236.412500", "103237.412500", "103238.412500", "103239.412500", "103240.412500", "103241.412500", "103242.412500", "103243.412500", "103244.412500", "103245.412500", "103246.412500", "103247.412500", "103248.412500", "103249.412500", "103250.412500", "103251.412500", "103252.412500", "103253.412500", "103254.412500", "103255.412500", "103256.412500", "103257.412500", "103258.412500", "103259.412500", "103300.412500", "103301.412500", "103302.412500", "103303.412500", "103304.412500", "103305.412500", "103306.412500", "103307.412500", "103308.412500", "103309.412500", "103310.412500", "103311.412500", "103312.412500", "103313.412500", "103314.412500", "103315.412500", "103316.412500", "103317.412500", "103318.412500", "103319.412500", "103320.412500", "103321.412500", "103322.412500", "103323.412500", "103324.412500", "103325.412500", "103326.412500", "103327.412500", "103328.412500", "103329.412500", "103330.412500", "103331.412500", "103332.412500", "103333.412500", "103334.412500", "103335.412500", "103336.412500", "103337.412500", "103338.412500", "103339.412500"],
      "ContentTime": ["102945.288000", "102945.292000", "102945.304000", "102945.307000", "102945.316000", "102945.319000", "102945.322000", "102945.325000", "102945.328000", "102945.331000", "102945.334000", "102945.353000", "102945.363000", "102945.366000", "102945.369000", "102945.373000", "102945.376000", "102945.379000", "102945.382000", "102945.385000", "103005.256000", "103005.259000", "103005.262000", "103005.266000", "103005.268000", "103005.272000", "103005.275000", "103005.278000", "103005.281000", "103005.284000", "103005.287000", "103005.299000", "103005.302000", "103005.305000", "103005.308000", "103005.311000", "103005.314000", "103005.317000", "103005.320000", "103005.323000", "103005.326000", "103005.329000", "103005.332000", "103005.335000", "103005.338000", "103005.341000", "103005.344000", "103005.347000", "103025.256000", "103025.259000", "103025.262000", "103025.265000", "103025.269000", "103025.272000", "103025.275000", "103025.278000", "103025.288000", "103025.291000", "103025.294000", "103025.297000", "103025.300000", "103025.303000", "103025.306000", "103025.309000", "103025.312000", "103025.316000", "103025.319000", "103025.322000", "103025.325000", "103025.328000", "103025.331000", "103025.334000", "103025.337000", "103025.340000", "103025.343000", "103025.346000", "103045.255000", "103045.258000", "103045.261000", "103045.264000", "103045.267000", "103045.271000", "103045.274000", "103045.277000", "103045.280000", "103045.283000", "103045.286000", "103045.289000", "103045.292000", "103045.295000", "103045.298000", "103045.301000", "103045.304000", "103045.307000", "103045.310000", "103045.313000", "103045.316000", "103045.319000", "103045.322000", "103045.325000", "103045.328000", "103045.331000", "103045.334000", "103045.337000", "103045.341000", "103105.255000", "103105.258000", "103105.261000", "103105.265000", "103105.268000", "103105.271000", "103105.274000", "103105.277000", "103105.280000", "103105.283000", "103105.286000", "103105.289000", "103105.292000", "103105.295000", "103105.298000", "103105.301000", "103105.304000", "103105.307000", "103105.310000", "103105.313000", "103105.316000", "103105.322000", "103105.325000", "103105.328000", "103105.331000", "103105.334000", "103105.337000", "103105.341000", "103125.255000", "103125.258000", "103125.262000", "103125.265000", "103125.268000", "103125.271000", "103125.274000", "103125.277000", "103125.281000", "103125.284000", "103125.287000", "103125.290000", "103125.293000", "103125.296000", "103125.299000", "103125.302000", "103125.305000", "103125.308000", "103125.311000", "103125.314000", "103125.317000", "103125.320000", "103125.324000", "103125.327000", "103125.330000", "103125.333000", "103125.336000", "103125.339000", "103145.255000", "103145.258000", "103145.261000", "103145.264000", "103145.268000", "103145.271000", "103145.274000", "103145.277000", "103145.280000", "103145.283000", "103145.286000", "103145.289000", "103145.292000", "103145.295000", "103145.298000", "103145.301000", "103145.304000", "103145.307000", "103145.310000", "103145.313000", "103145.316000", "103145.319000", "103145.322000", "103205.255000", "103205.258000", "103205.261000", "103205.264000", "103205.268000", "103205.271000", "103205.274000", "103205.277000", "103205.280000", "103205.283000", "103205.286000", "103205.289000", "103205.292000", "103205.295000", "103205.298000", "103205.301000", "103205.304000", "103205.307000", "103205.310000", "103205.313000", "103225.256000", "103225.259000", "103225.262000", "103225.265000", "103225.269000", "103225.272000", "103225.275000", "103225.278000", "103225.281000", "103225.284000", "103225.287000", "103225.290000", "103225.293000", "103225.296000", "103225.299000", "103225.303000", "103225.306000", "103225.309000", "103225.312000", "103225.315000", "103245.256000", "103245.259000", "103245.262000", "103245.265000", "103245.268000", "103245.271000", "103245.275000", "103245.278000", "103245.281000", "103245.284000", "103245.287000", "103245.290000", "103245.293000", "103245.296000", "103245.299000", "103245.302000", "103245.305000", "103245.308000", "103245.311000", "103245.314000", "103305.255000", "103305.258000", "103305.261000", "103305.264000", "103305.267000", "103305.271000", "103305.274000", "103305.277000", "103305.280000", "103305.283000", "103305.286000", "103305.289000", "103305.292000", "103305.295000", "103305.298000", "103305.301000", "103305.304000", "103305.314000", "103305.317000", "103305.320000", "103325.255000", "103325.258000", "103325.261000", "103325.264000", "103325.268000", "103325.271000", "103325.274000", "103325.277000", "103325.280000", "103325.283000", "103325.286000", "103325.289000", "103325.292000", "103325.295000", "103325.298000", "103325.301000", "103325.304000", "103325.307000", "103325.310000", "103325.314000", "103340.720000", "103340.723000", "103340.726000", "103340.729000", "103340.732000", "103340.735000", "103340.738000", "103340.741000", "103340.745000", "103340.748000", "103340.751000", "103340.754000", "103340.757000", "103340.760000", "103340.763000", "103340.766000"],
      "InstanceCreationTime": ["102945.288000", "102945.292000", "102945.304000", "102945.307000", "102945.316000", "102945.319000", "102945.322000", "102945.325000", "102945.328000", "102945.331000", "102945.334000", "102945.353000", "102945.363000", "102945.366000", "102945.369000", "102945.373000", "102945.376000", "102945.379000", "102945.382000", "102945.385000", "103005.256000", "103005.259000", "103005.262000", "103005.266000", "103005.268000", "103005.272000", "103005.275000", "103005.278000", "103005.281000", "103005.284000", "103005.287000", "103005.299000", "103005.302000", "103005.305000", "103005.308000", "103005.311000", "103005.314000", "103005.317000", "103005.320000", "103005.323000", "103005.326000", "103005.329000", "103005.332000", "103005.335000", "103005.338000", "103005.341000", "103005.344000", "103005.347000", "103025.256000", "103025.259000", "103025.262000", "103025.265000", "103025.269000", "103025.272000", "103025.275000", "103025.278000", "103025.288000", "103025.291000", "103025.294000", "103025.297000", "103025.300000", "103025.303000", "103025.306000", "103025.309000", "103025.312000", "103025.316000", "103025.319000", "103025.322000", "103025.325000", "103025.328000", "103025.331000", "103025.334000", "103025.337000", "103025.340000", "103025.343000", "103025.346000", "103045.255000", "103045.258000", "103045.261000", "103045.264000", "103045.267000", "103045.271000", "103045.274000", "103045.277000", "103045.280000", "103045.283000", "103045.286000", "103045.289000", "103045.292000", "103045.295000", "103045.298000", "103045.301000", "103045.304000", "103045.307000", "103045.310000", "103045.313000", "103045.316000", "103045.319000", "103045.322000", "103045.325000", "103045.328000", "103045.331000", "103045.334000", "103045.337000", "103045.341000", "103105.255000", "103105.258000", "103105.261000", "103105.265000", "103105.268000", "103105.271000", "103105.274000", "103105.277000", "103105.280000", "103105.283000", "103105.286000", "103105.289000", "103105.292000", "103105.295000", "103105.298000", "103105.301000", "103105.304000", "103105.307000", "103105.310000", "103105.313000", "103105.316000", "103105.322000", "103105.325000", "103105.328000", "103105.331000", "103105.334000", "103105.337000", "103105.341000", "103125.255000", "103125.258000", "103125.262000", "103125.265000", "103125.268000", "103125.271000", "103125.274000", "103125.277000", "103125.281000", "103125.284000", "103125.287000", "103125.290000", "103125.293000", "103125.296000", "103125.299000", "103125.302000", "103125.305000", "103125.308000", "103125.311000", "103125.314000", "103125.317000", "103125.320000", "103125.324000", "103125.327000", "103125.330000", "103125.333000", "103125.336000", "103125.339000", "103145.255000", "103145.258000", "103145.261000", "103145.264000", "103145.268000", "103145.271000", "103145.274000", "103145.277000", "103145.280000", "103145.283000", "103145.286000", "103145.289000", "103145.292000", "103145.295000", "103145.298000", "103145.301000", "103145.304000", "103145.307000", "103145.310000", "103145.313000", "103145.316000", "103145.319000", "103145.322000", "103205.255000", "103205.258000", "103205.261000", "103205.264000", "103205.268000", "103205.271000", "103205.274000", "103205.277000", "103205.280000", "103205.283000", "103205.286000", "103205.289000", "103205.292000", "103205.295000", "103205.298000", "103205.301000", "103205.304000", "103205.307000", "103205.310000", "103205.313000", "103225.256000", "103225.259000", "103225.262000", "103225.265000", "103225.269000", "103225.272000", "103225.275000", "103225.278000", "103225.281000", "103225.284000", "103225.287000", "103225.290000", "103225.293000", "103225.296000", "103225.299000", "103225.303000", "103225.306000", "103225.309000", "103225.312000", "103225.315000", "103245.256000", "103245.259000", "103245.262000", "103245.265000", "103245.268000", "103245.271000", "103245.275000", "103245.278000", "103245.281000", "103245.284000", "103245.287000", "103245.290000", "103245.293000", "103245.296000", "103245.299000", "103245.302000", "103245.305000", "103245.308000", "103245.311000", "103245.314000", "103305.255000", "103305.258000", "103305.261000", "103305.264000", "103305.267000", "103305.271000", "103305.274000", "103305.277000", "103305.280000", "103305.283000", "103305.286000", "103305.289000", "103305.292000", "103305.295000", "103305.298000", "103305.301000", "103305.304000", "103305.314000", "103305.317000", "103305.320000", "103325.255000", "103325.258000", "103325.261000", "103325.264000", "103325.268000", "103325.271000", "103325.274000", "103325.277000", "103325.280000", "103325.283000", "103325.286000", "103325.289000", "103325.292000", "103325.295000", "103325.298000", "103325.301000", "103325.304000", "103325.307000", "103325.310000", "103325.314000", "103340.720000", "103340.723000", "103340.726000", "103340.729000", "103340.732000", "103340.735000", "103340.738000", "103340.741000", "103340.745000", "103340.748000", "103340.751000", "103340.754000", "103340.757000", "103340.760000", "103340.763000", "103340.766000"],
      "InstanceNumber": [1, 2, 3, 4, 5, 6, 7, 8, 9, 10, 11, 12, 13, 14, 15, 16, 17, 18, 19, 20, 21, 22, 23, 24, 25, 26, 27, 28, 29, 30, 31, 32, 33, 34, 35, 36, 37, 38, 39, 40, 41, 42, 43, 44, 45, 46, 47, 48, 49, 50, 51, 52, 53, 54, 55, 56, 57, 58, 59, 60, 61, 62, 63, 64, 65, 66, 67, 68, 69, 70, 71, 72, 73, 74, 75, 76, 77, 78, 79, 80, 81, 82, 83, 84, 85, 86, 87, 88, 89, 90, 91, 92, 93, 94, 95, 96, 97, 98, 99, 100, 101, 102, 103, 104, 105, 106, 107, 108, 109, 110, 111, 112, 113, 114, 115, 116, 117, 118, 119, 120, 121, 122, 123, 124, 125, 126, 127, 128, 129, 130, 131, 132, 133, 134, 135, 136, 137, 138, 139, 140, 141, 142, 143, 144, 145, 146, 147, 148, 149, 150, 151, 152, 153, 154, 155, 156, 157, 158, 159, 160, 161, 162, 163, 164, 165, 166, 167, 168, 169, 170, 171, 172, 173, 174, 175, 176, 177, 178, 179, 180, 181, 182, 183, 184, 185, 186, 187, 188, 189, 190, 191, 192, 193, 194, 195, 196, 197, 198, 199, 200, 201, 202, 203, 204, 205, 206, 207, 208, 209, 210, 211, 212, 213, 214, 215, 216, 217, 218, 219, 220, 221, 222, 223, 224, 225, 226, 227, 228, 229, 230, 231, 232, 233, 234, 235, 236, 237, 238, 239, 240, 241, 242, 243, 244, 245, 246, 247, 248, 249, 250, 251, 252, 253, 254, 255, 256, 257, 258, 259, 260, 261, 262, 263, 264, 265, 266, 267, 268, 269, 270, 271, 272, 273, 274, 275, 276, 277, 278, 279, 280, 281, 282, 283, 284, 285, 286, 287, 288, 289, 290, 291, 292, 293, 294, 295, 296, 297, 298, 299, 300],
      "LargestImagePixelValue": [51666, 50763, 49858, 49249, 48632, 48657, 48044, 48159, 47811, 48388, 47678, 47969, 48286, 47739, 48308, 48262, 48788, 47840, 47974, 47634, 48193, 48092, 47945, 48096, 48000, 48302, 47863, 47827, 48144, 48263, 47797, 47420, 47450, 47691, 47852, 47786, 47443, 48025, 47915, 47751, 47860, 47672, 47725, 47564, 47665, 47970, 48170, 47950, 47805, 47773, 47875, 48187, 47664, 47692, 48193, 47737, 47413, 47421, 47435, 47859, 47254, 47139, 47221, 47797, 47881, 47722, 47595, 47291, 47624, 47576, 47515, 47249, 46950, 47896, 47618, 47830, 47358, 47573, 47619, 47753, 47201, 47695, 47841, 47826, 47512, 47371, 47770, 47855, 47388, 47367, 47276, 46938, 47468, 47735, 47649, 47506, 48449, 47518, 47598, 47361, 47547, 47286, 47418, 48017, 47653, 47315, 47704, 47454, 47963, 47597, 47525, 47477, 47191, 47672, 47663, 47160, 47350, 47038, 47551, 47209, 47208, 47635, 47503, 47932, 47577, 47414, 48071, 48134, 48094, 47050, 47401, 47406, 47298, 47033, 46817, 47651, 47249, 47269, 47140, 47563, 47300, 47115, 47111, 47519, 47307, 47451, 47257, 47736, 47578, 47466, 47655, 47321, 47476, 47738, 47529, 47083, 47699, 47439, 47350, 47621, 48006, 47808, 47712, 47411, 47129, 47573, 47388, 47481, 47682, 47745, 47592, 47459, 47490, 47207, 47665, 47350, 47282, 47214, 47349, 47534, 47228, 47417, 47294, 47658, 47459, 47074, 47461, 47214, 47616, 47585, 47865, 47708, 47762, 47464, 47229, 47284, 47682, 47852, 47267, 47781, 47838, 47601, 47210, 47555, 47697, 47804, 47828, 47719, 47685, 47653, 47965, 47360, 47363, 47669, 47897, 47516, 47030, 47476, 47776, 47815, 47726, 47420, 47925, 47501, 47245, 47481, 47538, 47539, 47456, 47516, 47863, 48019, 47543, 47497, 47325, 47374, 47659, 47365, 47421, 47246, 47614, 47593, 47621, 47139, 47805, 47654, 47640, 46905, 47742, 47452, 47253, 47137, 47139, 47285, 47259, 47672, 47380, 47435, 47574, 47086, 47787, 47642, 47388, 47053, 47306, 47637, 47610, 47352, 47229, 47653, 47601, 46990, 47408, 47422, 47362, 47395, 47109, 47168, 47385, 47104, 46598, 47325, 47831, 46991, 47454, 47666, 47459, 47314, 47422, 46732, 47212, 47081, 47770, 47381, 47089, 47418, 46933, 46943, 47276, 47078],
      "WindowCenter": [10549.0, 10516.0, 10489.0, 10475.0, 10463.0, 10460.0, 10446.0, 10446.0, 10440.0, 10451.0, 10446.0, 10447.0, 10458.0, 10456.0, 10460.0, 10460.0, 10459.0, 10449.0, 10448.0, 10443.0, 10451.0, 10446.0, 10448.0, 10452.0, 10453.0, 10459.0, 10456.0, 10456.0, 10456.0, 10459.0, 10455.0, 10445.0, 10444.0, 10461.0, 10467.0, 10465.0, 10467.0, 10476.0, 10475.0, 10471.0, 10463.0, 10456.0, 10451.0, 10444.0, 10442.0, 10446.0, 10445.0, 10452.0, 10454.0, 10456.0, 10463.0, 10469.0, 10465.0, 10464.0, 10463.0, 10457.0, 10457.0, 10451.0, 10452.0, 10460.0, 10452.0, 10452.0, 10449.0, 10454.0, 10460.0, 10462.0, 10464.0, 10459.0, 10465.0, 10472.0, 10466.0, 10454.0, 10446.0, 10446.0, 10434.0, 10434.0, 10432.0, 10439.0, 10448.0, 10456.0, 10458.0, 10469.0, 10462.0, 10453.0, 10451.0, 10444.0, 10443.0, 10442.0, 10442.0, 10445.0, 10449.0, 10452.0, 10459.0, 10459.0, 10456.0, 10448.0, 10454.0, 10445.0, 10449.0, 10443.0, 10440.0, 10444.0, 10443.0, 10449.0, 10452.0, 10450.0, 10444.0, 10447.0, 10458.0, 10454.0, 10461.0, 10447.0, 10441.0, 10438.0, 10437.0, 10434.0, 10432.0, 10428.0, 10436.0, 10445.0, 10452.0, 10458.0, 10461.0, 10470.0, 10461.0, 10460.0, 10459.0, 10456.0, 10451.0, 10445.0, 10443.0, 10439.0, 10444.0, 10439.0, 10438.0, 10448.0, 10444.0, 10447.0, 10447.0, 10453.0, 10448.0, 10442.0, 10441.0, 10440.0, 10439.0, 10445.0, 10447.0, 10447.0, 10453.0, 10448.0, 10445.0, 10440.0, 10438.0, 10442.0, 10438.0, 10443.0, 10444.0, 10452.0, 10455.0, 10465.0, 10467.0, 10462.0, 10459.0, 10449.0, 10441.0, 10445.0, 10453.0, 10461.0, 10467.0, 10469.0, 10468.0, 10456.0, 10454.0, 10445.0, 10439.0, 10445.0, 10441.0, 10441.0, 10454.0, 10454.0, 10449.0, 10448.0, 10440.0, 10439.0, 10434.0, 10434.0, 10440.0, 10446.0, 10459.0, 10462.0, 10474.0, 10470.0, 10470.0, 10460.0, 10457.0, 10455.0, 10455.0, 10459.0, 10449.0, 10455.0, 10455.0, 10456.0, 10450.0, 10453.0, 10453.0, 10454.0, 10454.0, 10456.0, 10461.0, 10455.0, 10454.0, 10442.0, 10443.0, 10442.0, 10448.0, 10445.0, 10439.0, 10441.0, 10435.0, 10435.0, 10440.0, 10440.0, 10446.0, 10444.0, 10449.0, 10454.0, 10454.0, 10455.0, 10459.0, 10465.0, 10469.0, 10464.0, 10458.0, 10453.0, 10451.0, 10450.0, 10454.0, 10462.0, 10464.0, 10470.0, 10478.0, 10476.0, 10471.0, 10467.0, 10465.0, 10464.0, 10457.0, 10450.0, 10454.0, 10456.0, 10456.0, 10452.0, 10456.0, 10450.0, 10444.0, 10451.0, 10457.0, 10464.0, 10471.0, 10466.0, 10476.0, 10473.0, 10473.0, 10456.0, 10459.0, 10457.0, 10458.0, 10463.0, 10465.0, 10458.0, 10463.0, 10458.0, 10457.0, 10462.0, 10462.0, 10457.0, 10450.0, 10445.0, 10454.0, 10450.0, 10453.0, 10461.0, 10461.0, 10459.0, 10458.0, 10468.0, 10468.0, 10458.0, 10452.0, 10448.0, 10450.0, 10456.0, 10465.0, 10460.0, 10458.0, 10453.0, 10453.0, 10454.0, 10451.0, 10448.0],
