{
  "AcquisitionMatrixPE": 104,
  "AcquisitionNumber": 1,
  "AcquisitionTime": "14:17:52.432500",
  "BandwidthPerPixelPhaseEncode": 16.297,
  "BaseResolution": 104,
  "BodyPartExamined": "BRAIN",
  "ConsistencyInfo": "N4_VE11C_LATEST_20160120",
  "ConversionSoftware": "dcm2niix",
  "ConversionSoftwareVersion": "v1.0.20210317",
  "DerivedVendorReportedEchoSpacing": 0.000590009,
  "DeviceSerialNumber": "166018",
  "DwellTime": 2.1e-06,
  "EchoTime": 0.0376,
  "EchoTrainLength": 104,
  "EffectiveEchoSpacing": 0.000590009,
  "FlipAngle": 68,
  "ImageComments": "Unaliased MB6/PE3/LB",
  "ImageOrientationPatientDICOM": [0.995335, -0.0798045, 0.0542087, 0.0883061, 0.979914, -0.178801],
  "ImageType": [
    "ORIGINAL",
    "PRIMARY",
    "M",
    "MB",
    "ND",
    "MOSAIC"
],
  "ImagingFrequency": 123.197,
  "InPlanePhaseEncodingDirectionDICOM": "COL",
  "InstitutionAddress": "Washington Place 6,NYC,NYC,US,10003",
  "InstitutionName": "NYU - CBI",
  "InstitutionalDepartmentName": "Department",
  "MRAcquisitionType": "2D",
  "MagneticFieldStrength": 3,
  "Manufacturer": "Siemens",
  "ManufacturersModelName": "Prisma",
  "Modality": "MR",
  "MultibandAccelerationFactor": 6,
  "PartialFourier": 1,
  "PatientPosition": "HFS",
  "PercentPhaseFOV": 100,
  "PercentSampling": 100,
  "PhaseEncodingDirection": "j",
  "PhaseEncodingSteps": 104,
  "PhaseResolution": 1,
  "PixelBandwidth": 2290,
  "ProcedureStepDescription": "Investigators^Winawer",
  "ProtocolName": "cmrr_mbepi_s6_2mm_66sl_PA_task-wedgering2",
  "PulseSequenceDetails": "%CustomerSeq%\\cmrr_mbep2d_bold",
  "ReceiveCoilActiveElements": "HC1-7",
  "ReceiveCoilName": "HeadNeck_64",
  "ReconMatrixPE": 104,
  "RepetitionTime": 1,
  "SAR": 0.0780671,
  "ScanOptions": "FS",
  "ScanningSequence": "EP",
  "SequenceName": "epfid2d1_104",
  "SequenceVariant": "SK\\SS",
  "SeriesDescription": "cmrr_mbepi_s6_2mm_66sl_PA_task-wedgering2",
  "SeriesNumber": 14,
  "ShimSetting": [300, -12643, -8515, 207, -18, -172, -74, 18],
  "SliceThickness": 2,
  "SliceTiming": [0, 0.535, 0.09, 0.6225, 0.1775, 0.7125, 0.2675, 0.8025, 0.3575, 0.89, 0.445, 0, 0.535, 0.09, 0.6225, 0.1775, 0.7125, 0.2675, 0.8025, 0.3575, 0.89, 0.445, 0, 0.535, 0.09, 0.6225, 0.1775, 0.7125, 0.2675, 0.8025, 0.3575, 0.89, 0.445, 0, 0.535, 0.09, 0.6225, 0.1775, 0.7125, 0.2675, 0.8025, 0.3575, 0.89, 0.445, 0, 0.535, 0.09, 0.6225, 0.1775, 0.7125, 0.2675, 0.8025, 0.3575, 0.89, 0.445, 0, 0.535, 0.09, 0.6225, 0.1775, 0.7125, 0.2675, 0.8025, 0.3575, 0.89, 0.445],
  "SoftwareVersions": "syngo MR E11",
  "SpacingBetweenSlices": 2,
  "StationName": "AWP166018",
  "TaskName": "wedgering2",
  "TotalReadoutTime": 0.060771,
  "TxRefAmp": 239.741,
  "VendorReportedEchoSpacing": 0.00059,
  "WipMemBlock": "ac5d885e-1140-45a8-b614-fd7c4fb60a73||Sequence: R016 ve11c/master r/8780670; Nov 27 2017 15:05:12 by eja",
  "dcmmeta_affine": [
    [-1.990670919418335, 0.17661213874816895, 0.07770151644945145, 99.3342056274414],
    [0.15960901975631714, 1.9598287343978882, -0.3655080497264862, -78.64195251464844],
    [0.10841742157936096, 0.35760220885276794, 1.964781403541565, -67.52146911621094],
    [0.0, 0.0, 0.0, 1.0]
],
  "dcmmeta_reorient_transform": [
    [0.0, -1.0, 0.0, 103.0],
    [1.0, 0.0, 0.0, 0.0],
    [0.0, 0.0, 1.0, 0.0],
    [0.0, 0.0, 0.0, 1.0]
],
  "dcmmeta_shape": [104, 104, 66, 300],
  "dcmmeta_slice_dim": 2,
  "dcmmeta_version": 0.6,
  "global": {
    "const": {
      "AccessionNumber": "JKJN96HK",
      "AcquisitionMatrix": [104, 0, 0, 104],
      "AngioFlag": "N",
      "BitsAllocated": 16,
      "BitsStored": 16,
      "BodyPartExamined": "BRAIN",
      "Columns": 936,
      "EchoNumbers": 1,
      "EchoTime": 37.6,
      "EchoTrainLength": 104,
      "FlipAngle": 68.0,
      "HighBit": 15,
      "ImageOrientationPatient": [0.99533544900973, -0.0798045096596, 0.05420870947169, 0.08830607233109, 0.97991438537247, -0.1788011043857],
      "ImagePositionPatient": [-1019.1150020609, -872.11182956808, 72.972432140004],
      "ImageType": [
        "ORIGINAL",
        "PRIMARY",
        "M",
        "MB",
        "ND",
        "MOSAIC"
],
      "ImagedNucleus": "1H",
      "ImagingFrequency": 123.196734,
      "InPlanePhaseEncodingDirection": "COL",
      "MRAcquisitionType": "2D",
      "MagneticFieldStrength": 3.0,
      "Manufacturer": "SIEMENS",
      "ManufacturerModelName": "Prisma",
      "Modality": "MR",
      "NumberOfAverages": 1.0,
      "NumberOfPhaseEncodingSteps": 104,
      "PercentPhaseFieldOfView": 100.0,
      "PercentSampling": 100.0,
      "PerformedProcedureStepStartTime": "134627.280000",
      "PhotometricInterpretation": "MONOCHROME2",
      "PixelBandwidth": 2290.0,
      "PixelRepresentation": 0,
      "PixelSpacing": [2.0, 2.0],
      "ProtocolName": "cmrr_mbepi_s6_2mm_66sl_PA_task-wedgering2",
      "RepetitionTime": 1000.0,
      "Rows": 936,
      "SAR": 0.07806711294901,
      "SamplesPerPixel": 1,
      "ScanOptions": "FS",
      "ScanningSequence": "EP",
      "SequenceName": "epfid2d1_104",
      "SequenceVariant": [
        "SK",
        "SS"
],
      "SeriesDescription": "cmrr_mbepi_s6_2mm_66sl_PA_task-wedgering2",
      "SeriesNumber": 14,
      "SeriesTime": "141851.297000",
      "SliceLocation": -48.101122191587,
      "SliceThickness": 2.0,
      "SmallestImagePixelValue": 0,
      "SoftwareVersions": "syngo MR E11",
      "SpacingBetweenSlices": 1.9999999342067,
      "SpecificCharacterSet": "ISO_IR 100",
      "StudyID": "1",
      "StudyTime": "134627.206000",
      "TransmitCoilName": "Body",
      "VariableFlipAngleFlag": "N",
      "WindowCenterWidthExplanation": "Algo1",
      "dBdt": 0.0},
    "slices": {}
  },
  "time": {
    "samples": {
      "AcquisitionNumber": [1, 2, 3, 4, 5, 6, 7, 8, 9, 10, 11, 12, 13, 14, 15, 16, 17, 18, 19, 20, 21, 22, 23, 24, 25, 26, 27, 28, 29, 30, 31, 32, 33, 34, 35, 36, 37, 38, 39, 40, 41, 42, 43, 44, 45, 46, 47, 48, 49, 50, 51, 52, 53, 54, 55, 56, 57, 58, 59, 60, 61, 62, 63, 64, 65, 66, 67, 68, 69, 70, 71, 72, 73, 74, 75, 76, 77, 78, 79, 80, 81, 82, 83, 84, 85, 86, 87, 88, 89, 90, 91, 92, 93, 94, 95, 96, 97, 98, 99, 100, 101, 102, 103, 104, 105, 106, 107, 108, 109, 110, 111, 112, 113, 114, 115, 116, 117, 118, 119, 120, 121, 122, 123, 124, 125, 126, 127, 128, 129, 130, 131, 132, 133, 134, 135, 136, 137, 138, 139, 140, 141, 142, 143, 144, 145, 146, 147, 148, 149, 150, 151, 152, 153, 154, 155, 156, 157, 158, 159, 160, 161, 162, 163, 164, 165, 166, 167, 168, 169, 170, 171, 172, 173, 174, 175, 176, 177, 178, 179, 180, 181, 182, 183, 184, 185, 186, 187, 188, 189, 190, 191, 192, 193, 194, 195, 196, 197, 198, 199, 200, 201, 202, 203, 204, 205, 206, 207, 208, 209, 210, 211, 212, 213, 214, 215, 216, 217, 218, 219, 220, 221, 222, 223, 224, 225, 226, 227, 228, 229, 230, 231, 232, 233, 234, 235, 236, 237, 238, 239, 240, 241, 242, 243, 244, 245, 246, 247, 248, 249, 250, 251, 252, 253, 254, 255, 256, 257, 258, 259, 260, 261, 262, 263, 264, 265, 266, 267, 268, 269, 270, 271, 272, 273, 274, 275, 276, 277, 278, 279, 280, 281, 282, 283, 284, 285, 286, 287, 288, 289, 290, 291, 292, 293, 294, 295, 296, 297, 298, 299, 300],
      "AcquisitionTime": ["141752.432500", "141753.432500", "141754.432500", "141755.432500", "141756.432500", "141757.432500", "141758.432500", "141759.432500", "141800.432500", "141801.432500", "141802.432500", "141803.432500", "141804.432500", "141805.432500", "141806.432500", "141807.432500", "141808.432500", "141809.432500", "141810.432500", "141811.432500", "141812.432500", "141813.432500", "141814.432500", "141815.432500", "141816.432500", "141817.432500", "141818.432500", "141819.432500", "141820.432500", "141821.432500", "141822.432500", "141823.432500", "141824.432500", "141825.432500", "141826.432500", "141827.432500", "141828.432500", "141829.432500", "141830.432500", "141831.432500", "141832.432500", "141833.432500", "141834.432500", "141835.432500", "141836.432500", "141837.432500", "141838.432500", "141839.432500", "141840.432500", "141841.432500", "141842.432500", "141843.432500", "141844.432500", "141845.432500", "141846.432500", "141847.432500", "141848.432500", "141849.432500", "141850.432500", "141851.432500", "141852.432500", "141853.432500", "141854.432500", "141855.432500", "141856.432500", "141857.432500", "141858.432500", "141859.432500", "141900.432500", "141901.432500", "141902.432500", "141903.432500", "141904.432500", "141905.432500", "141906.432500", "141907.432500", "141908.432500", "141909.432500", "141910.432500", "141911.432500", "141912.432500", "141913.432500", "141914.432500", "141915.432500", "141916.432500", "141917.432500", "141918.432500", "141919.432500", "141920.432500", "141921.432500", "141922.432500", "141923.432500", "141924.432500", "141925.432500", "141926.432500", "141927.432500", "141928.432500", "141929.432500", "141930.432500", "141931.432500", "141932.432500", "141933.432500", "141934.432500", "141935.432500", "141936.432500", "141937.432500", "141938.432500", "141939.432500", "141940.432500", "141941.432500", "141942.432500", "141943.432500", "141944.432500", "141945.432500", "141946.432500", "141947.432500", "141948.432500", "141949.432500", "141950.432500", "141951.432500", "141952.432500", "141953.432500", "141954.432500", "141955.432500", "141956.432500", "141957.432500", "141958.432500", "141959.432500", "142000.432500", "142001.432500", "142002.432500", "142003.432500", "142004.432500", "142005.432500", "142006.432500", "142007.432500", "142008.432500", "142009.432500", "142010.432500", "142011.432500", "142012.432500", "142013.432500", "142014.432500", "142015.432500", "142016.432500", "142017.432500", "142018.432500", "142019.432500", "142020.432500", "142021.432500", "142022.432500", "142023.432500", "142024.432500", "142025.432500", "142026.432500", "142027.432500", "142028.432500", "142029.432500", "142030.432500", "142031.432500", "142032.432500", "142033.432500", "142034.432500", "142035.432500", "142036.432500", "142037.432500", "142038.432500", "142039.432500", "142040.432500", "142041.432500", "142042.432500", "142043.432500", "142044.432500", "142045.432500", "142046.432500", "142047.432500", "142048.432500", "142049.432500", "142050.432500", "142051.432500", "142052.432500", "142053.432500", "142054.432500", "142055.432500", "142056.432500", "142057.432500", "142058.432500", "142059.432500", "142100.432500", "142101.432500", "142102.432500", "142103.432500", "142104.432500", "142105.432500", "142106.432500", "142107.432500", "142108.432500", "142109.432500", "142110.432500", "142111.432500", "142112.432500", "142113.432500", "142114.432500", "142115.432500", "142116.432500", "142117.432500", "142118.432500", "142119.432500", "142120.432500", "142121.432500", "142122.432500", "142123.432500", "142124.432500", "142125.432500", "142126.432500", "142127.432500", "142128.432500", "142129.432500", "142130.432500", "142131.432500", "142132.432500", "142133.432500", "142134.432500", "142135.432500", "142136.432500", "142137.432500", "142138.432500", "142139.432500", "142140.432500", "142141.432500", "142142.432500", "142143.432500", "142144.432500", "142145.432500", "142146.432500", "142147.432500", "142148.432500", "142149.432500", "142150.432500", "142151.432500", "142152.432500", "142153.432500", "142154.432500", "142155.432500", "142156.432500", "142157.432500", "142158.432500", "142159.432500", "142200.432500", "142201.432500", "142202.432500", "142203.432500", "142204.432500", "142205.432500", "142206.432500", "142207.432500", "142208.432500", "142209.432500", "142210.432500", "142211.432500", "142212.432500", "142213.432500", "142214.432500", "142215.432500", "142216.432500", "142217.432500", "142218.432500", "142219.432500", "142220.432500", "142221.432500", "142222.432500", "142223.432500", "142224.432500", "142225.432500", "142226.432500", "142227.432500", "142228.432500", "142229.432500", "142230.432500", "142231.432500", "142232.432500", "142233.432500", "142234.432500", "142235.432500", "142236.432500", "142237.432500", "142238.432500", "142239.432500", "142240.432500", "142241.432500", "142242.432500", "142243.432500", "142244.432500", "142245.432500", "142246.432500", "142247.432500", "142248.432500", "142249.432500", "142250.432500", "142251.432500"],
      "ContentTime": ["141851.300000", "141851.316000", "141851.320000", "141851.324000", "141856.267000", "141856.270000", "141856.273000", "141856.276000", "141856.279000", "141856.289000", "141856.292000", "141901.267000", "141901.270000", "141901.273000", "141901.276000", "141901.289000", "141901.292000", "141901.295000", "141906.267000", "141906.270000", "141906.273000", "141906.276000", "141906.279000", "141906.282000", "141906.285000", "141911.267000", "141911.270000", "141911.273000", "141911.276000", "141911.279000", "141911.282000", "141911.288000", "141911.291000", "141916.267000", "141916.270000", "141916.273000", "141916.276000", "141916.279000", "141916.282000", "141921.267000", "141921.270000", "141921.273000", "141921.287000", "141921.292000", "141921.296000", "141921.301000", "141926.267000", "141926.270000", "141926.273000", "141926.276000", "141926.279000", "141926.282000", "141926.285000", "141926.288000", "141931.267000", "141931.270000", "141931.273000", "141931.276000", "141931.279000", "141931.282000", "141931.290000", "141936.267000", "141936.270000", "141936.273000", "141936.276000", "141936.279000", "141936.282000", "141936.285000", "141941.267000", "141941.270000", "141941.273000", "141941.276000", "141941.279000", "141941.282000", "141941.285000", "141946.267000", "141946.270000", "141946.273000", "141946.276000", "141946.279000", "141946.282000", "141946.285000", "141951.267000", "141951.270000", "141951.273000", "141951.276000", "141951.279000", "141951.282000", "141951.290000", "141956.267000", "141956.270000", "141956.273000", "141956.276000", "141956.279000", "141956.282000", "141956.285000", "142001.267000", "142001.270000", "142001.273000", "142001.276000", "142001.279000", "142001.282000", "142001.285000", "142006.268000", "142006.282000", "142006.286000", "142006.289000", "142006.292000", "142006.295000", "142006.298000", "142011.267000", "142011.270000", "142011.273000", "142011.276000", "142011.279000", "142011.282000", "142011.285000", "142011.288000", "142016.267000", "142016.270000", "142016.273000", "142016.276000", "142016.279000", "142016.282000", "142016.285000", "142021.267000", "142021.270000", "142021.274000", "142021.277000", "142021.280000", "142021.283000", "142021.286000", "142026.267000", "142026.270000", "142026.273000", "142026.276000", "142026.279000", "142026.282000", "142026.285000", "142031.267000", "142031.270000", "142031.273000", "142031.276000", "142031.279000", "142031.297000", "142031.300000", "142036.267000", "142036.270000", "142036.273000", "142036.276000", "142036.279000", "142036.282000", "142036.285000", "142041.267000", "142041.270000", "142041.273000", "142041.276000", "142041.279000", "142041.282000", "142041.285000", "142046.267000", "142046.270000", "142046.273000", "142046.276000", "142046.279000", "142046.282000", "142046.285000", "142051.267000", "142051.270000", "142051.273000", "142051.276000", "142051.279000", "142051.282000", "142051.285000", "142056.267000", "142056.270000", "142056.273000", "142056.276000", "142056.279000", "142056.282000", "142056.285000", "142101.267000", "142101.270000", "142101.273000", "142101.276000", "142101.279000", "142101.282000", "142106.267000", "142106.270000", "142106.273000", "142106.276000", "142106.279000", "142111.267000", "142111.270000", "142111.273000", "142111.276000", "142111.279000", "142116.267000", "142116.270000", "142116.273000", "142116.276000", "142116.279000", "142121.267000", "142121.270000", "142121.273000", "142121.277000", "142121.280000", "142126.267000", "142126.270000", "142126.273000", "142126.276000", "142126.279000", "142131.267000", "142131.270000", "142131.273000", "142131.276000", "142131.279000", "142136.267000", "142136.270000", "142136.273000", "142136.276000", "142136.279000", "142141.267000", "142141.270000", "142141.273000", "142141.276000", "142141.279000", "142146.267000", "142146.270000", "142146.273000", "142146.276000", "142146.279000", "142151.267000", "142151.270000", "142151.273000", "142151.276000", "142151.279000", "142156.267000", "142156.270000", "142156.273000", "142156.276000", "142156.279000", "142201.267000", "142201.270000", "142201.273000", "142201.276000", "142201.279000", "142206.267000", "142206.270000", "142206.273000", "142206.276000", "142206.279000", "142211.267000", "142211.270000", "142211.273000", "142211.276000", "142211.279000", "142216.267000", "142216.270000", "142216.273000", "142216.276000", "142216.279000", "142221.267000", "142221.270000", "142221.273000", "142221.276000", "142221.279000", "142226.267000", "142226.270000", "142226.273000", "142226.276000", "142226.279000", "142231.267000", "142231.270000", "142231.273000", "142231.276000", "142231.279000", "142236.267000", "142236.270000", "142236.273000", "142236.276000", "142236.280000", "142241.267000", "142241.270000", "142241.273000", "142241.276000", "142241.279000", "142246.267000", "142246.270000", "142246.273000", "142246.276000", "142246.279000", "142251.267000", "142251.270000", "142251.273000", "142251.276000", "142251.279000", "142253.502000", "142253.510000", "142253.513000"],
      "InstanceCreationTime": ["141851.300000", "141851.316000", "141851.320000", "141851.324000", "141856.267000", "141856.270000", "141856.273000", "141856.276000", "141856.279000", "141856.289000", "141856.292000", "141901.267000", "141901.270000", "141901.273000", "141901.276000", "141901.289000", "141901.292000", "141901.295000", "141906.267000", "141906.270000", "141906.273000", "141906.276000", "141906.279000", "141906.282000", "141906.285000", "141911.267000", "141911.270000", "141911.273000", "141911.276000", "141911.279000", "141911.282000", "141911.288000", "141911.291000", "141916.267000", "141916.270000", "141916.273000", "141916.276000", "141916.279000", "141916.282000", "141921.267000", "141921.270000", "141921.273000", "141921.287000", "141921.292000", "141921.296000", "141921.301000", "141926.267000", "141926.270000", "141926.273000", "141926.276000", "141926.279000", "141926.282000", "141926.285000", "141926.288000", "141931.267000", "141931.270000", "141931.273000", "141931.276000", "141931.279000", "141931.282000", "141931.290000", "141936.267000", "141936.270000", "141936.273000", "141936.276000", "141936.279000", "141936.282000", "141936.285000", "141941.267000", "141941.270000", "141941.273000", "141941.276000", "141941.279000", "141941.282000", "141941.285000", "141946.267000", "141946.270000", "141946.273000", "141946.276000", "141946.279000", "141946.282000", "141946.285000", "141951.267000", "141951.270000", "141951.273000", "141951.276000", "141951.279000", "141951.282000", "141951.290000", "141956.267000", "141956.270000", "141956.273000", "141956.276000", "141956.279000", "141956.282000", "141956.285000", "142001.267000", "142001.270000", "142001.273000", "142001.276000", "142001.279000", "142001.282000", "142001.285000", "142006.268000", "142006.282000", "142006.286000", "142006.289000", "142006.292000", "142006.295000", "142006.298000", "142011.267000", "142011.270000", "142011.273000", "142011.276000", "142011.279000", "142011.282000", "142011.285000", "142011.288000", "142016.267000", "142016.270000", "142016.273000", "142016.276000", "142016.279000", "142016.282000", "142016.285000", "142021.267000", "142021.270000", "142021.274000", "142021.277000", "142021.280000", "142021.283000", "142021.286000", "142026.267000", "142026.270000", "142026.273000", "142026.276000", "142026.279000", "142026.282000", "142026.285000", "142031.267000", "142031.270000", "142031.273000", "142031.276000", "142031.279000", "142031.297000", "142031.300000", "142036.267000", "142036.270000", "142036.273000", "142036.276000", "142036.279000", "142036.282000", "142036.285000", "142041.267000", "142041.270000", "142041.273000", "142041.276000", "142041.279000", "142041.282000", "142041.285000", "142046.267000", "142046.270000", "142046.273000", "142046.276000", "142046.279000", "142046.282000", "142046.285000", "142051.267000", "142051.270000", "142051.273000", "142051.276000", "142051.279000", "142051.282000", "142051.285000", "142056.267000", "142056.270000", "142056.273000", "142056.276000", "142056.279000", "142056.282000", "142056.285000", "142101.267000", "142101.270000", "142101.273000", "142101.276000", "142101.279000", "142101.282000", "142106.267000", "142106.270000", "142106.273000", "142106.276000", "142106.279000", "142111.267000", "142111.270000", "142111.273000", "142111.276000", "142111.279000", "142116.267000", "142116.270000", "142116.273000", "142116.276000", "142116.279000", "142121.267000", "142121.270000", "142121.273000", "142121.277000", "142121.280000", "142126.267000", "142126.270000", "142126.273000", "142126.276000", "142126.279000", "142131.267000", "142131.270000", "142131.273000", "142131.276000", "142131.279000", "142136.267000", "142136.270000", "142136.273000", "142136.276000", "142136.279000", "142141.267000", "142141.270000", "142141.273000", "142141.276000", "142141.279000", "142146.267000", "142146.270000", "142146.273000", "142146.276000", "142146.279000", "142151.267000", "142151.270000", "142151.273000", "142151.276000", "142151.279000", "142156.267000", "142156.270000", "142156.273000", "142156.276000", "142156.279000", "142201.267000", "142201.270000", "142201.273000", "142201.276000", "142201.279000", "142206.267000", "142206.270000", "142206.273000", "142206.276000", "142206.279000", "142211.267000", "142211.270000", "142211.273000", "142211.276000", "142211.279000", "142216.267000", "142216.270000", "142216.273000", "142216.276000", "142216.279000", "142221.267000", "142221.270000", "142221.273000", "142221.276000", "142221.279000", "142226.267000", "142226.270000", "142226.273000", "142226.276000", "142226.279000", "142231.267000", "142231.270000", "142231.273000", "142231.276000", "142231.279000", "142236.267000", "142236.270000", "142236.273000", "142236.276000", "142236.280000", "142241.267000", "142241.270000", "142241.273000", "142241.276000", "142241.279000", "142246.267000", "142246.270000", "142246.273000", "142246.276000", "142246.279000", "142251.267000", "142251.270000", "142251.273000", "142251.276000", "142251.279000", "142253.502000", "142253.510000", "142253.513000"],
      "InstanceNumber": [1, 2, 3, 4, 5, 6, 7, 8, 9, 10, 11, 12, 13, 14, 15, 16, 17, 18, 19, 20, 21, 22, 23, 24, 25, 26, 27, 28, 29, 30, 31, 32, 33, 34, 35, 36, 37, 38, 39, 40, 41, 42, 43, 44, 45, 46, 47, 48, 49, 50, 51, 52, 53, 54, 55, 56, 57, 58, 59, 60, 61, 62, 63, 64, 65, 66, 67, 68, 69, 70, 71, 72, 73, 74, 75, 76, 77, 78, 79, 80, 81, 82, 83, 84, 85, 86, 87, 88, 89, 90, 91, 92, 93, 94, 95, 96, 97, 98, 99, 100, 101, 102, 103, 104, 105, 106, 107, 108, 109, 110, 111, 112, 113, 114, 115, 116, 117, 118, 119, 120, 121, 122, 123, 124, 125, 126, 127, 128, 129, 130, 131, 132, 133, 134, 135, 136, 137, 138, 139, 140, 141, 142, 143, 144, 145, 146, 147, 148, 149, 150, 151, 152, 153, 154, 155, 156, 157, 158, 159, 160, 161, 162, 163, 164, 165, 166, 167, 168, 169, 170, 171, 172, 173, 174, 175, 176, 177, 178, 179, 180, 181, 182, 183, 184, 185, 186, 187, 188, 189, 190, 191, 192, 193, 194, 195, 196, 197, 198, 199, 200, 201, 202, 203, 204, 205, 206, 207, 208, 209, 210, 211, 212, 213, 214, 215, 216, 217, 218, 219, 220, 221, 222, 223, 224, 225, 226, 227, 228, 229, 230, 231, 232, 233, 234, 235, 236, 237, 238, 239, 240, 241, 242, 243, 244, 245, 246, 247, 248, 249, 250, 251, 252, 253, 254, 255, 256, 257, 258, 259, 260, 261, 262, 263, 264, 265, 266, 267, 268, 269, 270, 271, 272, 273, 274, 275, 276, 277, 278, 279, 280, 281, 282, 283, 284, 285, 286, 287, 288, 289, 290, 291, 292, 293, 294, 295, 296, 297, 298, 299, 300],
      "LargestImagePixelValue": [39855, 39348, 38700, 38303, 37909, 37858, 37506, 38018, 38037, 38151, 37669, 37755, 37875, 37363, 38045, 37589, 37739, 37670, 37749, 37900, 38154, 37692, 37955, 37724, 37588, 37242, 37872, 37003, 37484, 37397, 37269, 37609, 37812, 37504, 37478, 37582, 37448, 37515, 37063, 37395, 37652, 38241, 37308, 37652, 37569, 37894, 37202, 37582, 37738, 37794, 37930, 38226, 37977, 37980, 37331, 37433, 36888, 37480, 36914, 37151, 36879, 37078, 37015, 37280, 36784, 36858, 37455, 36964, 37220, 36850, 37653, 37128, 37244, 36948, 36906, 37023, 37237, 36884, 37393, 37373, 37514, 37575, 37464, 37595, 38033, 36923, 37099, 37161, 37539, 37427, 37762, 37219, 38042, 37827, 37349, 37586, 37204, 37759, 37141, 37753, 38073, 37678, 38223, 37774, 38229, 37801, 37662, 37324, 37491, 37356, 37755, 37558, 37825, 37129, 38306, 37634, 38270, 37758, 37549, 37922, 38393, 37799, 37403, 37467, 38152, 37321, 37831, 37459, 38529, 37733, 38132, 38137, 38190, 38011, 37911, 37955, 38210, 37923, 38154, 37624, 38405, 37591, 37815, 37472, 38012, 37274, 37471, 37713, 37478, 37954, 37674, 37830, 37299, 37587, 37183, 37101, 37663, 37399, 37336, 37944, 37987, 37934, 38107, 38198, 37561, 37664, 37788, 37198, 37797, 37175, 37422, 37333, 37708, 37199, 37665, 37427, 37742, 37581, 37864, 37676, 37635, 37582, 37600, 37498, 37914, 37966, 37867, 37090, 37303, 37328, 37375, 37167, 37258, 37573, 37977, 37694, 37757, 37568, 37726, 37114, 37113, 37303, 36924, 37200, 37118, 37227, 37179, 36995, 37265, 37189, 37670, 37315, 37975, 37627, 37381, 37680, 37820, 37263, 37262, 37311, 37320, 37503, 37742, 37482, 37896, 37843, 37591, 37777, 37249, 37052, 37150, 36791, 36988, 37539, 37106, 36975, 37173, 37312, 36867, 37234, 37014, 37213, 36952, 36666, 36705, 36958, 37021, 36950, 36900, 36938, 37363, 37640, 37282, 37379, 37179, 36999, 37045, 36490, 36697, 36796, 37211, 37190, 36746, 37359, 37305, 37195, 36478, 37271, 37079, 37184, 36688, 37157, 37356, 37272, 37157, 37450, 37850, 37190, 37938, 37060, 37124, 36823, 37246, 37571, 37160, 37425, 36874, 37433, 37613, 37758, 37339, 37026, 37259, 37589, 37661, 37097, 37573, 37492, 37406, 37657],
      "WindowCenter": [9823.0, 9793.0, 9777.0, 9769.0, 9761.0, 9754.0, 9752.0, 9758.0, 9757.0, 9749.0, 9749.0, 9747.0, 9743.0, 9749.0, 9758.0, 9760.0, 9753.0, 9744.0, 9742.0, 9740.0, 9740.0, 9740.0, 9748.0, 9750.0, 9752.0, 9755.0, 9762.0, 9757.0, 9761.0, 9753.0, 9746.0, 9752.0, 9751.0, 9745.0, 9745.0, 9754.0, 9755.0, 9763.0, 9755.0, 9755.0, 9754.0, 9766.0, 9753.0, 9751.0, 9751.0, 9752.0, 9748.0, 9753.0, 9760.0, 9758.0, 9752.0, 9741.0, 9738.0, 9741.0, 9734.0, 9736.0, 9738.0, 9743.0, 9738.0, 9739.0, 9737.0, 9737.0, 9737.0, 9743.0, 9739.0, 9745.0, 9745.0, 9745.0, 9743.0, 9729.0, 9740.0, 9729.0, 9735.0, 9730.0, 9737.0, 9745.0, 9745.0, 9746.0, 9754.0, 9756.0, 9754.0, 9756.0, 9761.0, 9756.0, 9759.0, 9742.0, 9754.0, 9755.0, 9763.0, 9764.0, 9769.0, 9757.0, 9754.0, 9743.0, 9737.0, 9744.0, 9739.0, 9750.0, 9746.0, 9752.0, 9752.0, 9752.0, 9758.0, 9754.0, 9758.0, 9753.0, 9753.0, 9754.0, 9744.0, 9743.0, 9742.0, 9744.0, 9750.0, 9746.0, 9758.0, 9753.0, 9758.0, 9759.0, 9754.0, 9754.0, 9751.0, 9745.0, 9743.0, 9739.0, 9743.0, 9743.0, 9754.0, 9763.0, 9777.0, 9778.0, 9774.0, 9777.0, 9761.0, 9758.0, 9752.0, 9758.0, 9758.0, 9759.0, 9759.0, 9761.0, 9759.0, 9753.0, 9752.0, 9753.0, 9759.0, 9747.0, 9755.0, 9762.0, 9757.0, 9762.0, 9755.0, 9753.0, 9744.0, 9745.0, 9744.0, 9745.0, 9744.0, 9750.0, 9752.0, 9759.0, 9767.0, 9768.0, 9769.0, 9760.0, 9753.0, 9751.0, 9745.0, 9737.0, 9741.0, 9736.0, 9743.0, 9746.0, 9751.0, 9747.0, 9753.0, 9746.0, 9744.0, 9737.0, 9743.0, 9751.0, 9752.0, 9747.0, 9755.0, 9757.0, 9762.0, 9763.0, 9763.0, 9749.0, 9747.0, 9745.0, 9747.0, 9757.0, 9767.0, 9775.0, 9788.0, 9776.0, 9764.0, 9747.0, 9736.0, 9727.0, 9720.0, 9726.0, 9722.0, 9728.0, 9737.0, 9737.0, 9738.0, 9748.0, 9756.0, 9751.0, 9763.0, 9751.0, 9756.0, 9748.0, 9741.0, 9748.0, 9746.0, 9740.0, 9747.0, 9748.0, 9748.0, 9746.0, 9753.0, 9755.0, 9755.0, 9762.0, 9758.0, 9759.0, 9758.0, 9752.0, 9758.0, 9754.0, 9760.0, 9769.0, 9769.0, 9770.0, 9762.0, 9760.0, 9753.0, 9752.0, 9752.0, 9744.0, 9744.0, 9745.0, 9736.0, 9743.0, 9741.0, 9734.0, 9734.0, 9735.0, 9738.0, 9738.0, 9731.0, 9737.0, 9733.0, 9734.0, 9748.0, 9738.0, 9752.0, 9751.0, 9752.0, 9753.0, 9746.0, 9750.0, 9750.0, 9743.0, 9737.0, 9743.0, 9749.0, 9743.0, 9742.0, 9742.0, 9742.0, 9734.0, 9733.0, 9741.0, 9747.0, 9734.0, 9746.0, 9735.0, 9734.0, 9727.0, 9735.0, 9742.0, 9743.0, 9741.0, 9734.0, 9740.0, 9746.0, 9745.0, 9739.0, 9739.0, 9734.0, 9731.0, 9728.0, 9713.0, 9731.0, 9731.0, 9732.0, 9732.0],
