{
  "AcquisitionMatrixPE": 104,
  "AcquisitionNumber": 1,
  "AcquisitionTime": "14:55:44.295000",
  "BandwidthPerPixelPhaseEncode": 16.297,
  "BaseResolution": 104,
  "BodyPartExamined": "BRAIN",
  "ConsistencyInfo": "N4_VE11C_LATEST_20160120",
  "ConversionSoftware": "dcm2niix",
  "ConversionSoftwareVersion": "v1.0.20210317",
  "DerivedVendorReportedEchoSpacing": 0.000590009,
  "DeviceSerialNumber": "166018",
  "DwellTime": 2.1e-06,
  "EchoTime": 0.0376,
  "EchoTrainLength": 104,
  "EffectiveEchoSpacing": 0.000590009,
  "FlipAngle": 68,
  "ImageComments": "Unaliased MB6/PE3/LB",
  "ImageOrientationPatientDICOM": [0.999402, 0.014989, -0.0311636, -0.0195384, 0.988305, -0.151236],
  "ImageType": [
    "ORIGINAL",
    "PRIMARY",
    "M",
    "MB",
    "ND",
    "MOSAIC"
],
  "ImagingFrequency": 123.197,
  "InPlanePhaseEncodingDirectionDICOM": "COL",
  "InstitutionAddress": "Washington Place 6,NYC,NYC,US,10003",
  "InstitutionName": "NYU - CBI",
  "InstitutionalDepartmentName": "Department",
  "MRAcquisitionType": "2D",
  "MagneticFieldStrength": 3,
  "Manufacturer": "Siemens",
  "ManufacturersModelName": "Prisma",
  "Modality": "MR",
  "MultibandAccelerationFactor": 6,
  "PartialFourier": 1,
  "PatientPosition": "HFS",
  "PercentPhaseFOV": 100,
  "PercentSampling": 100,
  "PhaseEncodingDirection": "j",
  "PhaseEncodingSteps": 104,
  "PhaseResolution": 1,
  "PixelBandwidth": 2290,
  "ProcedureStepDescription": "Investigators^Winawer",
  "ProtocolName": "cmrr_mbepi_s6_2mm_66sl_PA_task-bar3",
  "PulseSequenceDetails": "%CustomerSeq%\\cmrr_mbep2d_bold",
  "ReceiveCoilActiveElements": "HC1-7",
  "ReceiveCoilName": "HeadNeck_64",
  "ReconMatrixPE": 104,
  "RepetitionTime": 1,
  "SAR": 0.0806832,
  "ScanOptions": "FS",
  "ScanningSequence": "EP",
  "SequenceName": "epfid2d1_104",
  "SequenceVariant": "SK\\SS",
  "SeriesDescription": "cmrr_mbepi_s6_2mm_66sl_PA_task-bar3",
  "SeriesNumber": 16,
  "ShimSetting": [286, -12681, -8496, 331, 26, -284, 55, 43],
  "SliceThickness": 2,
  "SliceTiming": [0, 0.5325, 0.0875, 0.6225, 0.1775, 0.7125, 0.265, 0.8, 0.355, 0.89, 0.445, 0, 0.5325, 0.0875, 0.6225, 0.1775, 0.7125, 0.265, 0.8, 0.355, 0.89, 0.445, 0, 0.5325, 0.0875, 0.6225, 0.1775, 0.7125, 0.265, 0.8, 0.355, 0.89, 0.445, 0, 0.5325, 0.0875, 0.6225, 0.1775, 0.7125, 0.265, 0.8, 0.355, 0.89, 0.445, 0, 0.5325, 0.0875, 0.6225, 0.1775, 0.7125, 0.265, 0.8, 0.355, 0.89, 0.445, 0, 0.5325, 0.0875, 0.6225, 0.1775, 0.7125, 0.265, 0.8, 0.355, 0.89, 0.445],
  "SoftwareVersions": "syngo MR E11",
  "SpacingBetweenSlices": 2,
  "StationName": "AWP166018",
  "TaskName": "bar3",
  "TotalReadoutTime": 0.060771,
  "TxRefAmp": 231.141,
  "VendorReportedEchoSpacing": 0.00059,
  "WipMemBlock": "fa8bd3cd-727c-4080-a2f2-37ca8daf5855||Sequence: R016 ve11c/master r/8780670; Nov 27 2017 15:05:12 by eja",
  "dcmmeta_affine": [
    [-1.9988038539886475, -0.03907688334584236, -0.057064443826675415, 107.35331726074219],
    [-0.029977994039654732, 1.9766091108322144, -0.30350935459136963, -73.12496948242188],
    [-0.062327150255441666, 0.30247247219085693, 1.9760125875473022, -52.24968719482422],
    [0.0, 0.0, 0.0, 1.0]
],
  "dcmmeta_reorient_transform": [
    [0.0, -1.0, 0.0, 103.0],
    [1.0, 0.0, 0.0, 0.0],
    [0.0, 0.0, 1.0, 0.0],
    [0.0, 0.0, 0.0, 1.0]
],
  "dcmmeta_shape": [104, 104, 66, 300],
  "dcmmeta_slice_dim": 2,
  "dcmmeta_version": 0.6,
  "global": {
    "const": {
      "AccessionNumber": "Leydr9sw",
      "AcquisitionMatrix": [104, 0, 0, 104],
      "AngioFlag": "N",
      "BitsAllocated": 16,
      "BitsStored": 16,
      "BodyPartExamined": "BRAIN",
      "Columns": 936,
      "EchoNumbers": 1,
      "EchoTime": 37.6,
      "EchoTrainLength": 104,
      "FlipAngle": 68.0,
      "HighBit": 15,
      "ImageOrientationPatient": [0.99940190191451, 0.01498899661776, -0.0311635753734, -0.0195384412433, 0.98830453211312, -0.1512362427411],
      "ImagePositionPatient": [-918.57480005361, -965.20597859462, 130.66162785698],
      "ImageType": [
        "ORIGINAL",
        "PRIMARY",
        "M",
        "MB",
        "ND",
        "MOSAIC"
],
      "ImagedNucleus": "1H",
      "ImagingFrequency": 123.196808,
      "InPlanePhaseEncodingDirection": "COL",
      "MRAcquisitionType": "2D",
      "MagneticFieldStrength": 3.0,
      "Manufacturer": "SIEMENS",
      "ManufacturerModelName": "Prisma",
      "Modality": "MR",
      "NumberOfAverages": 1.0,
      "NumberOfPhaseEncodingSteps": 104,
      "PercentPhaseFieldOfView": 100.0,
      "PercentSampling": 100.0,
      "PerformedProcedureStepStartTime": "140815.730000",
      "PhotometricInterpretation": "MONOCHROME2",
      "PixelBandwidth": 2290.0,
      "PixelRepresentation": 0,
      "PixelSpacing": [2.0, 2.0],
      "ProtocolName": "cmrr_mbepi_s6_2mm_66sl_PA_task-bar3",
      "RepetitionTime": 1000.0,
      "Rows": 936,
      "SAR": 0.08068318966693,
      "SamplesPerPixel": 1,
      "ScanOptions": "FS",
      "ScanningSequence": "EP",
      "SequenceName": "epfid2d1_104",
      "SequenceVariant": [
        "SK",
        "SS"
],
      "SeriesDescription": "cmrr_mbepi_s6_2mm_66sl_PA_task-bar3",
      "SeriesNumber": 16,
      "SeriesTime": "145656.589000",
      "SliceLocation": -43.588991853533,
      "SliceThickness": 2.0,
      "SmallestImagePixelValue": 0,
      "SoftwareVersions": "syngo MR E11",
      "SpacingBetweenSlices": 1.9999999544444,
      "SpecificCharacterSet": "ISO_IR 100",
      "StudyID": "1",
      "StudyTime": "140815.631000",
      "TransmitCoilName": "Body",
      "VariableFlipAngleFlag": "N",
      "WindowCenterWidthExplanation": "Algo1",
      "dBdt": 0.0},
    "slices": {}
  },
  "time": {
    "samples": {
      "AcquisitionNumber": [1, 2, 3, 4, 5, 6, 7, 8, 9, 10, 11, 12, 13, 14, 15, 16, 17, 18, 19, 20, 21, 22, 23, 24, 25, 26, 27, 28, 29, 30, 31, 32, 33, 34, 35, 36, 37, 38, 39, 40, 41, 42, 43, 44, 45, 46, 47, 48, 49, 50, 51, 52, 53, 54, 55, 56, 57, 58, 59, 60, 61, 62, 63, 64, 65, 66, 67, 68, 69, 70, 71, 72, 73, 74, 75, 76, 77, 78, 79, 80, 81, 82, 83, 84, 85, 86, 87, 88, 89, 90, 91, 92, 93, 94, 95, 96, 97, 98, 99, 100, 101, 102, 103, 104, 105, 106, 107, 108, 109, 110, 111, 112, 113, 114, 115, 116, 117, 118, 119, 120, 121, 122, 123, 124, 125, 126, 127, 128, 129, 130, 131, 132, 133, 134, 135, 136, 137, 138, 139, 140, 141, 142, 143, 144, 145, 146, 147, 148, 149, 150, 151, 152, 153, 154, 155, 156, 157, 158, 159, 160, 161, 162, 163, 164, 165, 166, 167, 168, 169, 170, 171, 172, 173, 174, 175, 176, 177, 178, 179, 180, 181, 182, 183, 184, 185, 186, 187, 188, 189, 190, 191, 192, 193, 194, 195, 196, 197, 198, 199, 200, 201, 202, 203, 204, 205, 206, 207, 208, 209, 210, 211, 212, 213, 214, 215, 216, 217, 218, 219, 220, 221, 222, 223, 224, 225, 226, 227, 228, 229, 230, 231, 232, 233, 234, 235, 236, 237, 238, 239, 240, 241, 242, 243, 244, 245, 246, 247, 248, 249, 250, 251, 252, 253, 254, 255, 256, 257, 258, 259, 260, 261, 262, 263, 264, 265, 266, 267, 268, 269, 270, 271, 272, 273, 274, 275, 276, 277, 278, 279, 280, 281, 282, 283, 284, 285, 286, 287, 288, 289, 290, 291, 292, 293, 294, 295, 296, 297, 298, 299, 300],
      "AcquisitionTime": ["145544.295000", "145545.295000", "145546.295000", "145547.295000", "145548.295000", "145549.295000", "145550.295000", "145551.295000", "145552.295000", "145553.295000", "145554.295000", "145555.295000", "145556.295000", "145557.295000", "145558.295000", "145559.295000", "145600.295000", "145601.295000", "145602.295000", "145603.295000", "145604.295000", "145605.295000", "145606.295000", "145607.295000", "145608.295000", "145609.295000", "145610.295000", "145611.295000", "145612.295000", "145613.295000", "145614.295000", "145615.295000", "145616.295000", "145617.295000", "145618.295000", "145619.295000", "145620.295000", "145621.295000", "145622.295000", "145623.295000", "145624.295000", "145625.295000", "145626.295000", "145627.295000", "145628.295000", "145629.295000", "145630.295000", "145631.295000", "145632.295000", "145633.295000", "145634.295000", "145635.295000", "145636.295000", "145637.295000", "145638.295000", "145639.295000", "145640.295000", "145641.295000", "145642.295000", "145643.295000", "145644.295000", "145645.295000", "145646.295000", "145647.295000", "145648.295000", "145649.295000", "145650.295000", "145651.295000", "145652.295000", "145653.295000", "145654.295000", "145655.295000", "145656.295000", "145657.295000", "145658.295000", "145659.295000", "145700.295000", "145701.295000", "145702.295000", "145703.295000", "145704.295000", "145705.295000", "145706.295000", "145707.295000", "145708.295000", "145709.295000", "145710.295000", "145711.295000", "145712.295000", "145713.295000", "145714.295000", "145715.295000", "145716.295000", "145717.295000", "145718.295000", "145719.295000", "145720.295000", "145721.295000", "145722.295000", "145723.295000", "145724.295000", "145725.295000", "145726.295000", "145727.295000", "145728.295000", "145729.295000", "145730.295000", "145731.295000", "145732.295000", "145733.295000", "145734.295000", "145735.295000", "145736.295000", "145737.295000", "145738.295000", "145739.295000", "145740.295000", "145741.295000", "145742.295000", "145743.295000", "145744.295000", "145745.295000", "145746.295000", "145747.295000", "145748.295000", "145749.295000", "145750.295000", "145751.295000", "145752.295000", "145753.295000", "145754.295000", "145755.295000", "145756.295000", "145757.295000", "145758.295000", "145759.295000", "145800.295000", "145801.295000", "145802.295000", "145803.295000", "145804.295000", "145805.295000", "145806.295000", "145807.295000", "145808.295000", "145809.295000", "145810.295000", "145811.295000", "145812.295000", "145813.295000", "145814.295000", "145815.295000", "145816.295000", "145817.295000", "145818.295000", "145819.295000", "145820.295000", "145821.295000", "145822.295000", "145823.295000", "145824.295000", "145825.295000", "145826.295000", "145827.295000", "145828.295000", "145829.295000", "145830.295000", "145831.295000", "145832.295000", "145833.295000", "145834.295000", "145835.295000", "145836.295000", "145837.295000", "145838.295000", "145839.295000", "145840.295000", "145841.295000", "145842.295000", "145843.295000", "145844.295000", "145845.295000", "145846.295000", "145847.295000", "145848.295000", "145849.295000", "145850.295000", "145851.295000", "145852.295000", "145853.295000", "145854.295000", "145855.295000", "145856.295000", "145857.295000", "145858.295000", "145859.295000", "145900.295000", "145901.295000", "145902.295000", "145903.295000", "145904.295000", "145905.295000", "145906.295000", "145907.295000", "145908.295000", "145909.295000", "145910.295000", "145911.295000", "145912.295000", "145913.295000", "145914.295000", "145915.295000", "145916.295000", "145917.295000", "145918.295000", "145919.295000", "145920.295000", "145921.295000", "145922.295000", "145923.295000", "145924.295000", "145925.295000", "145926.295000", "145927.295000", "145928.295000", "145929.295000", "145930.295000", "145931.295000", "145932.295000", "145933.295000", "145934.295000", "145935.295000", "145936.295000", "145937.295000", "145938.295000", "145939.295000", "145940.295000", "145941.295000", "145942.295000", "145943.295000", "145944.295000", "145945.295000", "145946.295000", "145947.295000", "145948.295000", "145949.295000", "145950.295000", "145951.295000", "145952.295000", "145953.295000", "145954.295000", "145955.295000", "145956.295000", "145957.295000", "145958.295000", "145959.295000", "150000.295000", "150001.295000", "150002.295000", "150003.295000", "150004.295000", "150005.295000", "150006.295000", "150007.295000", "150008.295000", "150009.295000", "150010.295000", "150011.295000", "150012.295000", "150013.295000", "150014.295000", "150015.295000", "150016.295000", "150017.295000", "150018.295000", "150019.295000", "150020.295000", "150021.295000", "150022.295000", "150023.295000", "150024.295000", "150025.295000", "150026.295000", "150027.295000", "150028.295000", "150029.295000", "150030.295000", "150031.295000", "150032.295000", "150033.295000", "150034.295000", "150035.295000", "150036.295000", "150037.295000", "150038.295000", "150039.295000", "150040.295000", "150041.295000", "150042.295000", "150043.295000"],
      "ContentTime": ["145656.591000", "145656.595000", "145656.598000", "145656.601000", "145656.604000", "145656.607000", "145656.610000", "145656.613000", "145656.617000", "145656.626000", "145656.629000", "145656.632000", "145656.636000", "145656.639000", "145656.642000", "145656.645000", "145656.648000", "145656.651000", "145656.655000", "145656.658000", "145656.661000", "145656.664000", "145716.562000", "145716.565000", "145716.568000", "145716.571000", "145716.574000", "145716.578000", "145716.581000", "145716.584000", "145716.587000", "145716.590000", "145716.593000", "145716.596000", "145716.599000", "145716.602000", "145716.605000", "145716.609000", "145716.612000", "145716.615000", "145716.642000", "145716.645000", "145716.648000", "145716.651000", "145716.654000", "145716.658000", "145716.661000", "145716.664000", "145716.667000", "145716.670000", "145736.562000", "145736.565000", "145736.568000", "145736.571000", "145736.574000", "145736.577000", "145736.580000", "145736.583000", "145736.586000", "145736.589000", "145736.592000", "145736.595000", "145736.599000", "145736.602000", "145736.605000", "145736.608000", "145736.611000", "145736.614000", "145736.617000", "145736.620000", "145736.623000", "145736.626000", "145736.629000", "145736.632000", "145736.635000", "145736.638000", "145736.641000", "145736.644000", "145736.647000", "145756.562000", "145756.565000", "145756.568000", "145756.571000", "145756.574000", "145756.577000", "145756.581000", "145756.583000", "145756.586000", "145756.589000", "145756.593000", "145756.596000", "145756.599000", "145756.601000", "145756.605000", "145756.608000", "145756.611000", "145756.614000", "145756.617000", "145756.620000", "145756.623000", "145756.626000", "145756.629000", "145756.632000", "145756.635000", "145756.638000", "145756.641000", "145756.644000", "145816.561000", "145816.564000", "145816.567000", "145816.570000", "145816.573000", "145816.576000", "145816.579000", "145816.582000", "145816.585000", "145816.588000", "145816.591000", "145816.594000", "145816.598000", "145816.601000", "145816.608000", "145816.611000", "145816.614000", "145816.617000", "145816.620000", "145816.623000", "145816.626000", "145816.629000", "145816.632000", "145816.635000", "145816.639000", "145816.642000", "145816.645000", "145816.648000", "145816.651000", "145836.561000", "145836.564000", "145836.567000", "145836.570000", "145836.573000", "145836.576000", "145836.579000", "145836.582000", "145836.600000", "145836.603000", "145836.606000", "145836.609000", "145836.612000", "145836.615000", "145836.618000", "145836.622000", "145836.625000", "145836.628000", "145836.633000", "145836.636000", "145836.639000", "145836.642000", "145836.645000", "145836.648000", "145836.651000", "145836.654000", "145836.657000", "145836.660000", "145856.561000", "145856.564000", "145856.567000", "145856.570000", "145856.573000", "145856.576000", "145856.579000", "145856.582000", "145856.585000", "145856.588000", "145856.591000", "145856.594000", "145856.597000", "145856.601000", "145856.603000", "145856.606000", "145856.609000", "145856.613000", "145856.616000", "145856.627000", "145856.630000", "145856.633000", "145856.636000", "145856.639000", "145856.642000", "145856.645000", "145856.648000", "145916.561000", "145916.564000", "145916.567000", "145916.570000", "145916.573000", "145916.576000", "145916.580000", "145916.582000", "145916.585000", "145916.588000", "145916.591000", "145916.594000", "145916.597000", "145916.600000", "145916.604000", "145916.607000", "145916.610000", "145916.613000", "145916.616000", "145916.619000", "145936.562000", "145936.565000", "145936.568000", "145936.571000", "145936.574000", "145936.577000", "145936.581000", "145936.584000", "145936.586000", "145936.589000", "145936.593000", "145936.596000", "145936.599000", "145936.601000", "145936.605000", "145936.608000", "145936.611000", "145936.614000", "145936.617000", "145936.620000", "145956.562000", "145956.565000", "145956.568000", "145956.571000", "145956.574000", "145956.577000", "145956.580000", "145956.584000", "145956.586000", "145956.589000", "145956.593000", "145956.600000", "145956.603000", "145956.606000", "145956.609000", "145956.612000", "145956.615000", "145956.618000", "145956.621000", "145956.624000", "150016.561000", "150016.564000", "150016.567000", "150016.570000", "150016.573000", "150016.576000", "150016.579000", "150016.582000", "150016.585000", "150016.588000", "150016.592000", "150016.594000", "150016.597000", "150016.600000", "150016.604000", "150016.607000", "150016.610000", "150016.613000", "150016.616000", "150016.619000", "150036.561000", "150036.564000", "150036.567000", "150036.570000", "150036.573000", "150036.576000", "150036.579000", "150036.583000", "150036.586000", "150036.589000", "150036.592000", "150036.595000", "150036.598000", "150036.601000", "150036.604000", "150036.607000", "150036.610000", "150036.613000", "150036.616000", "150036.619000", "150045.360000", "150045.364000", "150045.367000", "150045.370000", "150045.373000", "150045.376000", "150045.379000", "150045.382000", "150045.385000"],
      "InstanceCreationTime": ["145656.591000", "145656.595000", "145656.598000", "145656.601000", "145656.604000", "145656.607000", "145656.610000", "145656.613000", "145656.617000", "145656.626000", "145656.629000", "145656.632000", "145656.636000", "145656.639000", "145656.642000", "145656.645000", "145656.648000", "145656.651000", "145656.655000", "145656.658000", "145656.661000", "145656.664000", "145716.562000", "145716.565000", "145716.568000", "145716.571000", "145716.574000", "145716.578000", "145716.581000", "145716.584000", "145716.587000", "145716.590000", "145716.593000", "145716.596000", "145716.599000", "145716.602000", "145716.605000", "145716.609000", "145716.612000", "145716.615000", "145716.642000", "145716.645000", "145716.648000", "145716.651000", "145716.654000", "145716.658000", "145716.661000", "145716.664000", "145716.667000", "145716.670000", "145736.562000", "145736.565000", "145736.568000", "145736.571000", "145736.574000", "145736.577000", "145736.580000", "145736.583000", "145736.586000", "145736.589000", "145736.592000", "145736.595000", "145736.599000", "145736.602000", "145736.605000", "145736.608000", "145736.611000", "145736.614000", "145736.617000", "145736.620000", "145736.623000", "145736.626000", "145736.629000", "145736.632000", "145736.635000", "145736.638000", "145736.641000", "145736.644000", "145736.647000", "145756.562000", "145756.565000", "145756.568000", "145756.571000", "145756.574000", "145756.577000", "145756.581000", "145756.583000", "145756.586000", "145756.589000", "145756.593000", "145756.596000", "145756.599000", "145756.601000", "145756.605000", "145756.608000", "145756.611000", "145756.614000", "145756.617000", "145756.620000", "145756.623000", "145756.626000", "145756.629000", "145756.632000", "145756.635000", "145756.638000", "145756.641000", "145756.644000", "145816.561000", "145816.564000", "145816.567000", "145816.570000", "145816.573000", "145816.576000", "145816.579000", "145816.582000", "145816.585000", "145816.588000", "145816.591000", "145816.594000", "145816.598000", "145816.601000", "145816.608000", "145816.611000", "145816.614000", "145816.617000", "145816.620000", "145816.623000", "145816.626000", "145816.629000", "145816.632000", "145816.635000", "145816.639000", "145816.642000", "145816.645000", "145816.648000", "145816.651000", "145836.561000", "145836.564000", "145836.567000", "145836.570000", "145836.573000", "145836.576000", "145836.579000", "145836.582000", "145836.600000", "145836.603000", "145836.606000", "145836.609000", "145836.612000", "145836.615000", "145836.618000", "145836.622000", "145836.625000", "145836.628000", "145836.633000", "145836.636000", "145836.639000", "145836.642000", "145836.645000", "145836.648000", "145836.651000", "145836.654000", "145836.657000", "145836.660000", "145856.561000", "145856.564000", "145856.567000", "145856.570000", "145856.573000", "145856.576000", "145856.579000", "145856.582000", "145856.585000", "145856.588000", "145856.591000", "145856.594000", "145856.597000", "145856.601000", "145856.603000", "145856.606000", "145856.609000", "145856.613000", "145856.616000", "145856.627000", "145856.630000", "145856.633000", "145856.636000", "145856.639000", "145856.642000", "145856.645000", "145856.648000", "145916.561000", "145916.564000", "145916.567000", "145916.570000", "145916.573000", "145916.576000", "145916.580000", "145916.582000", "145916.585000", "145916.588000", "145916.591000", "145916.594000", "145916.597000", "145916.600000", "145916.604000", "145916.607000", "145916.610000", "145916.613000", "145916.616000", "145916.619000", "145936.562000", "145936.565000", "145936.568000", "145936.571000", "145936.574000", "145936.577000", "145936.581000", "145936.584000", "145936.586000", "145936.589000", "145936.593000", "145936.596000", "145936.599000", "145936.601000", "145936.605000", "145936.608000", "145936.611000", "145936.614000", "145936.617000", "145936.620000", "145956.562000", "145956.565000", "145956.568000", "145956.571000", "145956.574000", "145956.577000", "145956.580000", "145956.584000", "145956.586000", "145956.589000", "145956.593000", "145956.600000", "145956.603000", "145956.606000", "145956.609000", "145956.612000", "145956.615000", "145956.618000", "145956.621000", "145956.624000", "150016.561000", "150016.564000", "150016.567000", "150016.570000", "150016.573000", "150016.576000", "150016.579000", "150016.582000", "150016.585000", "150016.588000", "150016.592000", "150016.594000", "150016.597000", "150016.600000", "150016.604000", "150016.607000", "150016.610000", "150016.613000", "150016.616000", "150016.619000", "150036.561000", "150036.564000", "150036.567000", "150036.570000", "150036.573000", "150036.576000", "150036.579000", "150036.583000", "150036.586000", "150036.589000", "150036.592000", "150036.595000", "150036.598000", "150036.601000", "150036.604000", "150036.607000", "150036.610000", "150036.613000", "150036.616000", "150036.619000", "150045.360000", "150045.364000", "150045.367000", "150045.370000", "150045.373000", "150045.376000", "150045.379000", "150045.382000", "150045.385000"],
      "InstanceNumber": [1, 2, 3, 4, 5, 6, 7, 8, 9, 10, 11, 12, 13, 14, 15, 16, 17, 18, 19, 20, 21, 22, 23, 24, 25, 26, 27, 28, 29, 30, 31, 32, 33, 34, 35, 36, 37, 38, 39, 40, 41, 42, 43, 44, 45, 46, 47, 48, 49, 50, 51, 52, 53, 54, 55, 56, 57, 58, 59, 60, 61, 62, 63, 64, 65, 66, 67, 68, 69, 70, 71, 72, 73, 74, 75, 76, 77, 78, 79, 80, 81, 82, 83, 84, 85, 86, 87, 88, 89, 90, 91, 92, 93, 94, 95, 96, 97, 98, 99, 100, 101, 102, 103, 104, 105, 106, 107, 108, 109, 110, 111, 112, 113, 114, 115, 116, 117, 118, 119, 120, 121, 122, 123, 124, 125, 126, 127, 128, 129, 130, 131, 132, 133, 134, 135, 136, 137, 138, 139, 140, 141, 142, 143, 144, 145, 146, 147, 148, 149, 150, 151, 152, 153, 154, 155, 156, 157, 158, 159, 160, 161, 162, 163, 164, 165, 166, 167, 168, 169, 170, 171, 172, 173, 174, 175, 176, 177, 178, 179, 180, 181, 182, 183, 184, 185, 186, 187, 188, 189, 190, 191, 192, 193, 194, 195, 196, 197, 198, 199, 200, 201, 202, 203, 204, 205, 206, 207, 208, 209, 210, 211, 212, 213, 214, 215, 216, 217, 218, 219, 220, 221, 222, 223, 224, 225, 226, 227, 228, 229, 230, 231, 232, 233, 234, 235, 236, 237, 238, 239, 240, 241, 242, 243, 244, 245, 246, 247, 248, 249, 250, 251, 252, 253, 254, 255, 256, 257, 258, 259, 260, 261, 262, 263, 264, 265, 266, 267, 268, 269, 270, 271, 272, 273, 274, 275, 276, 277, 278, 279, 280, 281, 282, 283, 284, 285, 286, 287, 288, 289, 290, 291, 292, 293, 294, 295, 296, 297, 298, 299, 300],
      "LargestImagePixelValue": [35271, 34764, 34387, 34205, 33406, 33055, 33880, 33667, 33652, 34042, 33948, 33368, 33235, 33461, 33909, 33441, 31903, 31256, 31339, 31238, 31342, 31932, 32517, 32515, 32283, 32098, 32088, 31677, 31835, 31919, 31728, 32087, 31890, 32905, 32478, 34394, 31661, 32655, 31758, 33894, 32159, 31898, 31619, 32322, 31904, 31688, 32105, 32090, 31319, 31810, 31605, 31641, 32564, 32068, 31615, 32821, 31708, 32006, 31812, 32016, 32000, 31699, 31938, 31569, 32473, 32055, 31497, 31901, 31947, 31763, 31732, 32074, 31914, 31483, 31713, 31644, 31593, 31679, 31795, 31940, 31718, 31452, 31539, 31636, 31619, 37182, 31724, 31666, 32115, 31894, 31734, 31729, 31424, 31713, 31488, 31737, 31876, 31791, 31825, 31766, 31983, 32191, 31796, 32011, 31680, 32186, 31951, 31898, 31690, 32087, 31652, 31928, 32064, 32799, 31915, 32350, 32183, 32297, 32440, 31739, 31820, 33629, 32242, 31949, 31425, 31926, 31593, 31318, 31945, 32090, 31894, 31911, 32191, 34800, 33004, 31658, 32145, 33222, 32007, 31867, 32509, 32474, 31970, 33524, 32204, 32006, 32080, 32012, 32166, 32073, 32447, 36829, 32032, 31865, 32142, 32043, 32057, 32357, 32144, 32005, 32882, 32362, 32161, 32334, 34301, 32252, 32513, 32094, 31467, 32262, 32444, 31943, 32004, 32429, 32441, 32530, 32309, 32155, 31805, 32588, 32489, 32281, 32721, 32334, 31422, 31470, 31445, 31829, 38285, 32021, 31778, 32064, 32163, 33499, 32209, 32347, 32343, 31994, 32263, 31878, 32388, 32250, 32571, 31199, 32067, 30945, 34312, 31735, 31090, 30810, 30835, 31249, 31381, 30598, 32279, 31303, 31234, 31981, 31030, 31267, 32075, 31525, 31705, 31773, 31395, 31779, 32127, 31351, 31404, 32344, 31939, 32902, 31562, 31757, 31184, 31164, 31404, 35634, 34644, 32820, 34656, 33400, 32157, 32065, 35381, 31948, 31290, 30969, 31604, 31988, 32291, 31960, 32221, 32111, 32083, 33752, 33608, 31602, 31017, 31331, 32768, 33259, 33120, 34827, 31573, 31980, 32720, 35892, 35829, 33996, 35343, 32713, 31877, 35661, 31637, 31356, 31307, 33991, 32652, 32553, 33287, 33596, 35671, 34125, 35097, 34456, 31815, 32522, 31839, 31973, 32383, 33100, 31882, 32377, 32236, 34561, 31828, 31695, 31794, 32988],
      "WindowCenter": [9367.0, 9333.0, 9310.0, 9318.0, 9300.0, 9299.0, 9319.0, 9313.0, 9296.0, 9300.0, 9299.0, 9287.0, 9294.0, 9297.0, 9292.0, 9242.0, 9222.0, 9231.0, 9264.0, 9275.0, 9276.0, 9271.0, 9251.0, 9216.0, 9183.0, 9163.0, 9161.0, 9163.0, 9188.0, 9215.0, 9235.0, 9246.0, 9255.0, 9284.0, 9274.0, 9321.0, 9286.0, 9306.0, 9279.0, 9326.0, 9294.0, 9301.0, 9296.0, 9320.0, 9313.0, 9306.0, 9303.0, 9278.0, 9238.0, 9232.0, 9223.0, 9231.0, 9248.0, 9245.0, 9257.0, 9308.0, 9297.0, 9303.0, 9306.0, 9305.0, 9288.0, 9270.0, 9259.0, 9260.0, 9267.0, 9268.0, 9264.0, 9277.0, 9276.0, 9268.0, 9259.0, 9270.0, 9263.0, 9251.0, 9257.0, 9257.0, 9257.0, 9251.0, 9259.0, 9267.0, 9266.0, 9265.0, 9269.0, 9277.0, 9271.0, 9354.0, 9269.0, 9275.0, 9294.0, 9304.0, 9306.0, 9307.0, 9293.0, 9289.0, 9283.0, 9280.0, 9279.0, 9279.0, 9270.0, 9258.0, 9257.0, 9263.0, 9250.0, 9256.0, 9242.0, 9260.0, 9256.0, 9254.0, 9254.0, 9263.0, 9258.0, 9262.0, 9273.0, 9286.0, 9282.0, 9299.0, 9290.0, 9284.0, 9290.0, 9257.0, 9263.0, 9305.0, 9269.0, 9254.0, 9242.0, 9244.0, 9236.0, 9222.0, 9248.0, 9250.0, 9265.0, 9280.0, 9300.0, 9345.0, 9313.0, 9286.0, 9278.0, 9291.0, 9256.0, 9246.0, 9264.0, 9267.0, 9264.0, 9286.0, 9261.0, 9250.0, 9253.0, 9254.0, 9269.0, 9270.0, 9291.0, 9370.0, 9288.0, 9285.0, 9272.0, 9264.0, 9245.0, 9240.0, 9226.0, 9233.0, 9267.0, 9267.0, 9275.0, 9289.0, 9317.0, 9281.0, 9286.0, 9270.0, 9240.0, 9258.0, 9274.0, 9280.0, 9282.0, 9289.0, 9280.0, 9278.0, 9263.0, 9255.0, 9238.0, 9248.0, 9258.0, 9261.0, 9277.0, 9289.0, 9276.0, 9287.0, 9308.0, 9307.0, 9399.0, 9295.0, 9276.0, 9274.0, 9271.0, 9285.0, 9253.0, 9249.0, 9248.0, 9241.0, 9247.0, 9256.0, 9268.0, 9284.0, 9284.0, 9258.0, 9256.0, 9246.0, 9314.0, 9279.0, 9266.0, 9262.0, 9253.0, 9246.0, 9230.0, 9199.0, 9220.0, 9197.0, 9199.0, 9212.0, 9199.0, 9209.0, 9225.0, 9227.0, 9237.0, 9235.0, 9235.0, 9245.0, 9260.0, 9257.0, 9267.0, 9281.0, 9267.0, 9281.0, 9247.0, 9238.0, 9225.0, 9224.0, 9238.0, 9311.0, 9296.0, 9282.0, 9309.0, 9284.0, 9252.0, 9243.0, 9288.0, 9230.0, 9218.0, 9207.0, 9233.0, 9256.0, 9268.0, 9260.0, 9250.0, 9235.0, 9224.0, 9222.0, 9263.0, 9223.0, 9208.0, 9225.0, 9263.0, 9268.0, 9276.0, 9303.0, 9244.0, 9251.0, 9264.0, 9312.0, 9323.0, 9297.0, 9315.0, 9274.0, 9254.0, 9307.0, 9242.0, 9235.0, 9233.0, 9278.0, 9262.0, 9271.0, 9285.0, 9297.0, 9329.0, 9306.0, 9316.0, 9318.0, 9273.0, 9283.0, 9265.0, 9260.0, 9259.0, 9262.0, 9249.0, 9255.0, 9264.0, 9293.0, 9251.0, 9252.0, 9257.0, 9275.0],
