{
  "AcquisitionMatrixPE": 104,
  "AcquisitionNumber": 1,
  "AcquisitionTime": "17:30:52.597500",
  "BandwidthPerPixelPhaseEncode": 16.297,
  "BaseResolution": 104,
  "BodyPartExamined": "BRAIN",
  "ConsistencyInfo": "N4_VE11C_LATEST_20160120",
  "ConversionSoftware": "dcm2niix",
  "ConversionSoftwareVersion": "v1.0.20210317",
  "DerivedVendorReportedEchoSpacing": 0.000590009,
  "DeviceSerialNumber": "166018",
  "DwellTime": 2.1e-06,
  "EchoTime": 0.0376,
  "EchoTrainLength": 104,
  "EffectiveEchoSpacing": 0.000590009,
  "FlipAngle": 68,
  "ImageComments": "Unaliased MB6/PE3/LB",
  "ImageOrientationPatientDICOM": [0.998793, 0.0424046, 0.0247703, -0.0305159, 0.931098, -0.36349],
  "ImageType": [
    "ORIGINAL",
    "PRIMARY",
    "M",
    "MB",
    "ND",
    "MOSAIC"
],
  "ImagingFrequency": 123.197,
  "InPlanePhaseEncodingDirectionDICOM": "COL",
  "InstitutionAddress": "Washington Place 6,NYC,NYC,US,10003",
  "InstitutionName": "NYU - CBI",
  "InstitutionalDepartmentName": "Department",
  "MRAcquisitionType": "2D",
  "MagneticFieldStrength": 3,
  "Manufacturer": "Siemens",
  "ManufacturersModelName": "Prisma",
  "Modality": "MR",
  "MultibandAccelerationFactor": 6,
  "PartialFourier": 1,
  "PatientPosition": "HFS",
  "PercentPhaseFOV": 100,
  "PercentSampling": 100,
  "PhaseEncodingDirection": "j",
  "PhaseEncodingSteps": 104,
  "PhaseResolution": 1,
  "PixelBandwidth": 2290,
  "ProcedureStepDescription": "Investigators^Winawer",
  "ProtocolName": "cmrr_mbepi_s6_2mm_66sl_PA_task-wedgering3",
  "PulseSequenceDetails": "%CustomerSeq%\\cmrr_mbep2d_bold",
  "ReceiveCoilActiveElements": "HC1-7",
  "ReceiveCoilName": "HeadNeck_64",
  "ReconMatrixPE": 104,
  "RepetitionTime": 1,
  "SAR": 0.0813628,
  "ScanOptions": "FS",
  "ScanningSequence": "EP",
  "SequenceName": "epfid2d1_104",
  "SequenceVariant": "SK\\SS",
  "SeriesDescription": "cmrr_mbepi_s6_2mm_66sl_PA_task-wedgering3",
  "SeriesNumber": 18,
  "ShimSetting": [285, -12611, -8474, 241, -40, -323, -177, 48],
  "SliceThickness": 2,
  "SliceTiming": [0, 0.535, 0.09, 0.6225, 0.1775, 0.7125, 0.2675, 0.8025, 0.3575, 0.89, 0.445, 0, 0.535, 0.09, 0.6225, 0.1775, 0.7125, 0.2675, 0.8025, 0.3575, 0.89, 0.445, 0, 0.535, 0.09, 0.6225, 0.1775, 0.7125, 0.2675, 0.8025, 0.3575, 0.89, 0.445, 0, 0.535, 0.09, 0.6225, 0.1775, 0.7125, 0.2675, 0.8025, 0.3575, 0.89, 0.445, 0, 0.535, 0.09, 0.6225, 0.1775, 0.7125, 0.2675, 0.8025, 0.3575, 0.89, 0.445, 0, 0.535, 0.09, 0.6225, 0.1775, 0.7125, 0.2675, 0.8025, 0.3575, 0.89, 0.445],
  "SoftwareVersions": "syngo MR E11",
  "SpacingBetweenSlices": 2,
  "StationName": "AWP166018",
  "TaskName": "wedgering3",
  "TotalReadoutTime": 0.060771,
  "TxRefAmp": 230.983,
  "VendorReportedEchoSpacing": 0.00059,
  "WipMemBlock": "da42ff2e-9431-4523-9772-255f215b997a||Sequence: R016 ve11c/master r/8780670; Nov 27 2017 15:05:12 by eja",
  "dcmmeta_affine": [
    [-1.9975868463516235, -0.06103174760937691, 0.07695453613996506, 110.06312561035156],
    [-0.08480917662382126, 1.8621960878372192, -0.7245916724205017, -53.47993850708008],
    [0.049540672451257706, 0.7269806265830994, 1.8625372648239136, -73.64340209960938],
    [0.0, 0.0, 0.0, 1.0]
],
  "dcmmeta_reorient_transform": [
    [0.0, -1.0, 0.0, 103.0],
    [1.0, 0.0, 0.0, 0.0],
    [0.0, 0.0, 1.0, 0.0],
    [0.0, 0.0, 0.0, 1.0]
],
  "dcmmeta_shape": [104, 104, 66, 300],
  "dcmmeta_slice_dim": 2,
  "dcmmeta_version": 0.6,
  "global": {
    "const": {
      "AccessionNumber": "LfbLcsgL",
      "AcquisitionMatrix": [104, 0, 0, 104],
      "AngioFlag": "N",
      "BitsAllocated": 16,
      "BitsStored": 16,
      "BodyPartExamined": "BRAIN",
      "Columns": 936,
      "EchoNumbers": 1,
      "EchoTime": 37.6,
      "EchoTrainLength": 104,
      "FlipAngle": 68.0,
      "HighBit": 15,
      "ImageOrientationPatient": [0.99879341268941, 0.04240458926074, 0.02477033665256, -0.0305158733587, 0.9310980516803, -0.3634903019756],
      "ImagePositionPatient": [-909.38376868255, -948.28045739444, 283.05061175501],
      "ImageType": [
        "ORIGINAL",
        "PRIMARY",
        "M",
        "MB",
        "ND",
        "MOSAIC"
],
      "ImagedNucleus": "1H",
      "ImagingFrequency": 123.196824,
      "InPlanePhaseEncodingDirection": "COL",
      "MRAcquisitionType": "2D",
      "MagneticFieldStrength": 3.0,
      "Manufacturer": "SIEMENS",
      "ManufacturerModelName": "Prisma",
      "Modality": "MR",
      "NumberOfAverages": 1.0,
      "NumberOfPhaseEncodingSteps": 104,
      "PercentPhaseFieldOfView": 100.0,
      "PercentSampling": 100.0,
      "PerformedProcedureStepStartTime": "163533.754000",
      "PhotometricInterpretation": "MONOCHROME2",
      "PixelBandwidth": 2290.0,
      "PixelRepresentation": 0,
      "PixelSpacing": [2.0, 2.0],
      "ProtocolName": "cmrr_mbepi_s6_2mm_66sl_PA_task-wedgering3",
      "RepetitionTime": 1000.0,
      "Rows": 936,
      "SAR": 0.0813627763422,
      "SamplesPerPixel": 1,
      "ScanOptions": "FS",
      "ScanningSequence": "EP",
      "SequenceName": "epfid2d1_104",
      "SequenceVariant": [
        "SK",
        "SS"
],
      "SeriesDescription": "cmrr_mbepi_s6_2mm_66sl_PA_task-wedgering3",
      "SeriesNumber": 18,
      "SeriesTime": "173152.384000",
      "SliceLocation": -44.971301244449,
      "SliceThickness": 2.0,
      "SmallestImagePixelValue": 0,
      "SoftwareVersions": "syngo MR E11",
      "SpacingBetweenSlices": 2.0000000220009,
      "SpecificCharacterSet": "ISO_IR 100",
      "StudyID": "1",
      "StudyTime": "163533.680000",
      "TransmitCoilName": "Body",
      "VariableFlipAngleFlag": "N",
      "WindowCenterWidthExplanation": "Algo1",
      "dBdt": 0.0},
    "slices": {}
  },
  "time": {
    "samples": {
      "AcquisitionNumber": [1, 2, 3, 4, 5, 6, 7, 8, 9, 10, 11, 12, 13, 14, 15, 16, 17, 18, 19, 20, 21, 22, 23, 24, 25, 26, 27, 28, 29, 30, 31, 32, 33, 34, 35, 36, 37, 38, 39, 40, 41, 42, 43, 44, 45, 46, 47, 48, 49, 50, 51, 52, 53, 54, 55, 56, 57, 58, 59, 60, 61, 62, 63, 64, 65, 66, 67, 68, 69, 70, 71, 72, 73, 74, 75, 76, 77, 78, 79, 80, 81, 82, 83, 84, 85, 86, 87, 88, 89, 90, 91, 92, 93, 94, 95, 96, 97, 98, 99, 100, 101, 102, 103, 104, 105, 106, 107, 108, 109, 110, 111, 112, 113, 114, 115, 116, 117, 118, 119, 120, 121, 122, 123, 124, 125, 126, 127, 128, 129, 130, 131, 132, 133, 134, 135, 136, 137, 138, 139, 140, 141, 142, 143, 144, 145, 146, 147, 148, 149, 150, 151, 152, 153, 154, 155, 156, 157, 158, 159, 160, 161, 162, 163, 164, 165, 166, 167, 168, 169, 170, 171, 172, 173, 174, 175, 176, 177, 178, 179, 180, 181, 182, 183, 184, 185, 186, 187, 188, 189, 190, 191, 192, 193, 194, 195, 196, 197, 198, 199, 200, 201, 202, 203, 204, 205, 206, 207, 208, 209, 210, 211, 212, 213, 214, 215, 216, 217, 218, 219, 220, 221, 222, 223, 224, 225, 226, 227, 228, 229, 230, 231, 232, 233, 234, 235, 236, 237, 238, 239, 240, 241, 242, 243, 244, 245, 246, 247, 248, 249, 250, 251, 252, 253, 254, 255, 256, 257, 258, 259, 260, 261, 262, 263, 264, 265, 266, 267, 268, 269, 270, 271, 272, 273, 274, 275, 276, 277, 278, 279, 280, 281, 282, 283, 284, 285, 286, 287, 288, 289, 290, 291, 292, 293, 294, 295, 296, 297, 298, 299, 300],
      "AcquisitionTime": ["173052.597500", "173053.597500", "173054.597500", "173055.597500", "173056.597500", "173057.597500", "173058.597500", "173059.597500", "173100.597500", "173101.597500", "173102.597500", "173103.597500", "173104.597500", "173105.597500", "173106.597500", "173107.597500", "173108.597500", "173109.597500", "173110.597500", "173111.597500", "173112.597500", "173113.597500", "173114.597500", "173115.597500", "173116.597500", "173117.597500", "173118.597500", "173119.597500", "173120.597500", "173121.597500", "173122.597500", "173123.597500", "173124.597500", "173125.597500", "173126.597500", "173127.597500", "173128.597500", "173129.597500", "173130.597500", "173131.597500", "173132.597500", "173133.597500", "173134.597500", "173135.597500", "173136.597500", "173137.597500", "173138.597500", "173139.597500", "173140.597500", "173141.597500", "173142.597500", "173143.597500", "173144.597500", "173145.597500", "173146.597500", "173147.597500", "173148.597500", "173149.597500", "173150.597500", "173151.597500", "173152.597500", "173153.597500", "173154.597500", "173155.597500", "173156.597500", "173157.597500", "173158.597500", "173159.597500", "173200.597500", "173201.597500", "173202.597500", "173203.597500", "173204.597500", "173205.597500", "173206.597500", "173207.597500", "173208.597500", "173209.597500", "173210.597500", "173211.597500", "173212.597500", "173213.597500", "173214.597500", "173215.597500", "173216.597500", "173217.597500", "173218.597500", "173219.597500", "173220.597500", "173221.597500", "173222.597500", "173223.597500", "173224.597500", "173225.597500", "173226.597500", "173227.597500", "173228.597500", "173229.597500", "173230.597500", "173231.597500", "173232.597500", "173233.597500", "173234.597500", "173235.597500", "173236.597500", "173237.597500", "173238.597500", "173239.597500", "173240.597500", "173241.597500", "173242.597500", "173243.597500", "173244.597500", "173245.597500", "173246.597500", "173247.597500", "173248.597500", "173249.597500", "173250.597500", "173251.597500", "173252.597500", "173253.597500", "173254.597500", "173255.597500", "173256.597500", "173257.597500", "173258.597500", "173259.597500", "173300.597500", "173301.597500", "173302.597500", "173303.597500", "173304.597500", "173305.597500", "173306.597500", "173307.597500", "173308.597500", "173309.597500", "173310.597500", "173311.597500", "173312.597500", "173313.597500", "173314.597500", "173315.597500", "173316.597500", "173317.597500", "173318.597500", "173319.597500", "173320.597500", "173321.597500", "173322.597500", "173323.597500", "173324.597500", "173325.597500", "173326.597500", "173327.597500", "173328.597500", "173329.597500", "173330.597500", "173331.597500", "173332.597500", "173333.597500", "173334.597500", "173335.597500", "173336.597500", "173337.597500", "173338.597500", "173339.597500", "173340.597500", "173341.597500", "173342.597500", "173343.597500", "173344.597500", "173345.597500", "173346.597500", "173347.597500", "173348.597500", "173349.597500", "173350.597500", "173351.597500", "173352.597500", "173353.597500", "173354.597500", "173355.597500", "173356.597500", "173357.597500", "173358.597500", "173359.597500", "173400.597500", "173401.597500", "173402.597500", "173403.597500", "173404.597500", "173405.597500", "173406.597500", "173407.597500", "173408.597500", "173409.597500", "173410.597500", "173411.597500", "173412.597500", "173413.597500", "173414.597500", "173415.597500", "173416.597500", "173417.597500", "173418.597500", "173419.597500", "173420.597500", "173421.597500", "173422.597500", "173423.597500", "173424.597500", "173425.597500", "173426.597500", "173427.597500", "173428.597500", "173429.597500", "173430.597500", "173431.597500", "173432.597500", "173433.597500", "173434.597500", "173435.597500", "173436.597500", "173437.597500", "173438.597500", "173439.597500", "173440.597500", "173441.597500", "173442.597500", "173443.597500", "173444.597500", "173445.597500", "173446.597500", "173447.597500", "173448.597500", "173449.597500", "173450.597500", "173451.597500", "173452.597500", "173453.597500", "173454.597500", "173455.597500", "173456.597500", "173457.597500", "173458.597500", "173459.597500", "173500.597500", "173501.597500", "173502.597500", "173503.597500", "173504.597500", "173505.597500", "173506.597500", "173507.597500", "173508.597500", "173509.597500", "173510.597500", "173511.597500", "173512.597500", "173513.597500", "173514.597500", "173515.597500", "173516.597500", "173517.597500", "173518.597500", "173519.597500", "173520.597500", "173521.597500", "173522.597500", "173523.597500", "173524.597500", "173525.597500", "173526.597500", "173527.597500", "173528.597500", "173529.597500", "173530.597500", "173531.597500", "173532.597500", "173533.597500", "173534.597500", "173535.597500", "173536.597500", "173537.597500", "173538.597500", "173539.597500", "173540.597500", "173541.597500", "173542.597500", "173543.597500", "173544.597500", "173545.597500", "173546.597500", "173547.597500", "173548.597500", "173549.597500", "173550.597500", "173551.597500"],
      "ContentTime": ["173152.387000", "173152.390000", "173152.393000", "173152.397000", "173157.340000", "173157.357000", "173157.360000", "173157.363000", "173157.366000", "173157.369000", "173157.372000", "173157.375000", "173202.340000", "173202.343000", "173202.346000", "173202.349000", "173202.352000", "173202.355000", "173202.358000", "173207.341000", "173207.344000", "173207.347000", "173207.350000", "173207.353000", "173207.356000", "173207.359000", "173212.340000", "173212.343000", "173212.346000", "173212.349000", "173212.352000", "173212.355000", "173212.358000", "173217.340000", "173217.343000", "173217.346000", "173217.349000", "173217.352000", "173217.355000", "173217.358000", "173222.341000", "173222.349000", "173222.352000", "173222.355000", "173222.358000", "173222.361000", "173222.364000", "173227.340000", "173227.343000", "173227.346000", "173227.349000", "173227.352000", "173227.355000", "173227.358000", "173232.340000", "173232.343000", "173232.346000", "173232.349000", "173232.352000", "173232.355000", "173232.358000", "173237.340000", "173237.343000", "173237.346000", "173237.349000", "173237.352000", "173237.355000", "173237.358000", "173242.341000", "173242.344000", "173242.347000", "173242.350000", "173242.353000", "173242.356000", "173242.359000", "173247.340000", "173247.348000", "173247.351000", "173247.354000", "173247.357000", "173247.360000", "173247.363000", "173252.340000", "173252.343000", "173252.346000", "173252.349000", "173252.352000", "173252.355000", "173252.358000", "173257.341000", "173257.344000", "173257.347000", "173257.350000", "173257.353000", "173257.356000", "173257.359000", "173302.340000", "173302.343000", "173302.346000", "173302.349000", "173302.352000", "173302.355000", "173302.358000", "173307.340000", "173307.343000", "173307.346000", "173307.349000", "173307.352000", "173307.355000", "173307.358000", "173307.361000", "173312.340000", "173312.343000", "173312.346000", "173312.349000", "173312.352000", "173312.355000", "173312.358000", "173317.341000", "173317.344000", "173317.347000", "173317.350000", "173317.353000", "173317.356000", "173317.359000", "173322.340000", "173322.343000", "173322.346000", "173322.349000", "173322.352000", "173322.355000", "173322.358000", "173327.340000", "173327.343000", "173327.346000", "173327.349000", "173327.352000", "173327.355000", "173327.358000", "173332.341000", "173332.344000", "173332.347000", "173332.350000", "173332.353000", "173332.356000", "173332.359000", "173337.340000", "173337.343000", "173337.346000", "173337.349000", "173337.352000", "173337.355000", "173337.358000", "173342.340000", "173342.343000", "173342.346000", "173342.361000", "173342.364000", "173342.367000", "173342.370000", "173347.340000", "173347.343000", "173347.346000", "173347.349000", "173347.352000", "173347.355000", "173347.358000", "173352.341000", "173352.344000", "173352.347000", "173352.350000", "173352.353000", "173352.356000", "173352.359000", "173357.340000", "173357.343000", "173357.346000", "173357.349000", "173357.352000", "173357.355000", "173357.358000", "173357.361000", "173402.340000", "173402.343000", "173402.346000", "173402.349000", "173402.352000", "173402.355000", "173407.341000", "173407.344000", "173407.347000", "173407.350000", "173407.353000", "173412.340000", "173412.343000", "173412.346000", "173412.349000", "173412.352000", "173417.340000", "173417.343000", "173417.346000", "173417.349000", "173417.352000", "173422.340000", "173422.343000", "173422.346000", "173422.349000", "173422.352000", "173427.341000", "173427.344000", "173427.347000", "173427.350000", "173427.353000", "173432.340000", "173432.343000", "173432.346000", "173432.349000", "173432.352000", "173437.340000", "173437.343000", "173437.346000", "173437.349000", "173437.352000", "173442.341000", "173442.344000", "173442.347000", "173442.350000", "173442.353000", "173447.340000", "173447.343000", "173447.346000", "173447.349000", "173447.352000", "173452.340000", "173452.343000", "173452.346000", "173452.349000", "173452.352000", "173457.340000", "173457.343000", "173457.346000", "173457.349000", "173457.352000", "173502.341000", "173502.344000", "173502.347000", "173502.350000", "173502.353000", "173507.340000", "173507.343000", "173507.346000", "173507.349000", "173507.352000", "173512.340000", "173512.343000", "173512.346000", "173512.349000", "173512.352000", "173517.341000", "173517.344000", "173517.347000", "173517.350000", "173517.353000", "173522.340000", "173522.343000", "173522.346000", "173522.358000", "173522.361000", "173527.340000", "173527.343000", "173527.346000", "173527.349000", "173527.352000", "173532.340000", "173532.343000", "173532.346000", "173532.349000", "173532.352000", "173537.341000", "173537.344000", "173537.347000", "173537.350000", "173537.353000", "173542.340000", "173542.343000", "173542.346000", "173542.349000", "173542.352000", "173547.340000", "173547.343000", "173547.346000", "173547.349000", "173547.352000", "173552.341000", "173552.344000", "173552.347000", "173552.350000", "173552.353000", "173553.738000", "173553.742000"],
      "InstanceCreationTime": ["173152.387000", "173152.390000", "173152.393000", "173152.397000", "173157.340000", "173157.357000", "173157.360000", "173157.363000", "173157.366000", "173157.369000", "173157.372000", "173157.375000", "173202.340000", "173202.343000", "173202.346000", "173202.349000", "173202.352000", "173202.355000", "173202.358000", "173207.341000", "173207.344000", "173207.347000", "173207.350000", "173207.353000", "173207.356000", "173207.359000", "173212.340000", "173212.343000", "173212.346000", "173212.349000", "173212.352000", "173212.355000", "173212.358000", "173217.340000", "173217.343000", "173217.346000", "173217.349000", "173217.352000", "173217.355000", "173217.358000", "173222.341000", "173222.349000", "173222.352000", "173222.355000", "173222.358000", "173222.361000", "173222.364000", "173227.340000", "173227.343000", "173227.346000", "173227.349000", "173227.352000", "173227.355000", "173227.358000", "173232.340000", "173232.343000", "173232.346000", "173232.349000", "173232.352000", "173232.355000", "173232.358000", "173237.340000", "173237.343000", "173237.346000", "173237.349000", "173237.352000", "173237.355000", "173237.358000", "173242.341000", "173242.344000", "173242.347000", "173242.350000", "173242.353000", "173242.356000", "173242.359000", "173247.340000", "173247.348000", "173247.351000", "173247.354000", "173247.357000", "173247.360000", "173247.363000", "173252.340000", "173252.343000", "173252.346000", "173252.349000", "173252.352000", "173252.355000", "173252.358000", "173257.341000", "173257.344000", "173257.347000", "173257.350000", "173257.353000", "173257.356000", "173257.359000", "173302.340000", "173302.343000", "173302.346000", "173302.349000", "173302.352000", "173302.355000", "173302.358000", "173307.340000", "173307.343000", "173307.346000", "173307.349000", "173307.352000", "173307.355000", "173307.358000", "173307.361000", "173312.340000", "173312.343000", "173312.346000", "173312.349000", "173312.352000", "173312.355000", "173312.358000", "173317.341000", "173317.344000", "173317.347000", "173317.350000", "173317.353000", "173317.356000", "173317.359000", "173322.340000", "173322.343000", "173322.346000", "173322.349000", "173322.352000", "173322.355000", "173322.358000", "173327.340000", "173327.343000", "173327.346000", "173327.349000", "173327.352000", "173327.355000", "173327.358000", "173332.341000", "173332.344000", "173332.347000", "173332.350000", "173332.353000", "173332.356000", "173332.359000", "173337.340000", "173337.343000", "173337.346000", "173337.349000", "173337.352000", "173337.355000", "173337.358000", "173342.340000", "173342.343000", "173342.346000", "173342.361000", "173342.364000", "173342.367000", "173342.370000", "173347.340000", "173347.343000", "173347.346000", "173347.349000", "173347.352000", "173347.355000", "173347.358000", "173352.341000", "173352.344000", "173352.347000", "173352.350000", "173352.353000", "173352.356000", "173352.359000", "173357.340000", "173357.343000", "173357.346000", "173357.349000", "173357.352000", "173357.355000", "173357.358000", "173357.361000", "173402.340000", "173402.343000", "173402.346000", "173402.349000", "173402.352000", "173402.355000", "173407.341000", "173407.344000", "173407.347000", "173407.350000", "173407.353000", "173412.340000", "173412.343000", "173412.346000", "173412.349000", "173412.352000", "173417.340000", "173417.343000", "173417.346000", "173417.349000", "173417.352000", "173422.340000", "173422.343000", "173422.346000", "173422.349000", "173422.352000", "173427.341000", "173427.344000", "173427.347000", "173427.350000", "173427.353000", "173432.340000", "173432.343000", "173432.346000", "173432.349000", "173432.352000", "173437.340000", "173437.343000", "173437.346000", "173437.349000", "173437.352000", "173442.341000", "173442.344000", "173442.347000", "173442.350000", "173442.353000", "173447.340000", "173447.343000", "173447.346000", "173447.349000", "173447.352000", "173452.340000", "173452.343000", "173452.346000", "173452.349000", "173452.352000", "173457.340000", "173457.343000", "173457.346000", "173457.349000", "173457.352000", "173502.341000", "173502.344000", "173502.347000", "173502.350000", "173502.353000", "173507.340000", "173507.343000", "173507.346000", "173507.349000", "173507.352000", "173512.340000", "173512.343000", "173512.346000", "173512.349000", "173512.352000", "173517.341000", "173517.344000", "173517.347000", "173517.350000", "173517.353000", "173522.340000", "173522.343000", "173522.346000", "173522.358000", "173522.361000", "173527.340000", "173527.343000", "173527.346000", "173527.349000", "173527.352000", "173532.340000", "173532.343000", "173532.346000", "173532.349000", "173532.352000", "173537.341000", "173537.344000", "173537.347000", "173537.350000", "173537.353000", "173542.340000", "173542.343000", "173542.346000", "173542.349000", "173542.352000", "173547.340000", "173547.343000", "173547.346000", "173547.349000", "173547.352000", "173552.341000", "173552.344000", "173552.347000", "173552.350000", "173552.353000", "173553.738000", "173553.742000"],
      "InstanceNumber": [1, 2, 3, 4, 5, 6, 7, 8, 9, 10, 11, 12, 13, 14, 15, 16, 17, 18, 19, 20, 21, 22, 23, 24, 25, 26, 27, 28, 29, 30, 31, 32, 33, 34, 35, 36, 37, 38, 39, 40, 41, 42, 43, 44, 45, 46, 47, 48, 49, 50, 51, 52, 53, 54, 55, 56, 57, 58, 59, 60, 61, 62, 63, 64, 65, 66, 67, 68, 69, 70, 71, 72, 73, 74, 75, 76, 77, 78, 79, 80, 81, 82, 83, 84, 85, 86, 87, 88, 89, 90, 91, 92, 93, 94, 95, 96, 97, 98, 99, 100, 101, 102, 103, 104, 105, 106, 107, 108, 109, 110, 111, 112, 113, 114, 115, 116, 117, 118, 119, 120, 121, 122, 123, 124, 125, 126, 127, 128, 129, 130, 131, 132, 133, 134, 135, 136, 137, 138, 139, 140, 141, 142, 143, 144, 145, 146, 147, 148, 149, 150, 151, 152, 153, 154, 155, 156, 157, 158, 159, 160, 161, 162, 163, 164, 165, 166, 167, 168, 169, 170, 171, 172, 173, 174, 175, 176, 177, 178, 179, 180, 181, 182, 183, 184, 185, 186, 187, 188, 189, 190, 191, 192, 193, 194, 195, 196, 197, 198, 199, 200, 201, 202, 203, 204, 205, 206, 207, 208, 209, 210, 211, 212, 213, 214, 215, 216, 217, 218, 219, 220, 221, 222, 223, 224, 225, 226, 227, 228, 229, 230, 231, 232, 233, 234, 235, 236, 237, 238, 239, 240, 241, 242, 243, 244, 245, 246, 247, 248, 249, 250, 251, 252, 253, 254, 255, 256, 257, 258, 259, 260, 261, 262, 263, 264, 265, 266, 267, 268, 269, 270, 271, 272, 273, 274, 275, 276, 277, 278, 279, 280, 281, 282, 283, 284, 285, 286, 287, 288, 289, 290, 291, 292, 293, 294, 295, 296, 297, 298, 299, 300],
      "LargestImagePixelValue": [43461, 42565, 43029, 42724, 41544, 42361, 42812, 42400, 42200, 42680, 41212, 41978, 43299, 42515, 42522, 43128, 43257, 43035, 42575, 42820, 42819, 41926, 42415, 42852, 43387, 43426, 42061, 43466, 43747, 43234, 43223, 43452, 43441, 42507, 42142, 43473, 43341, 43461, 43884, 43212, 43339, 43589, 42085, 42764, 43126, 43290, 43431, 43461, 43885, 43285, 42797, 42252, 42219, 42872, 43139, 43231, 43551, 42585, 43145, 43818, 43734, 43335, 43981, 43462, 41688, 43266, 43738, 43556, 43759, 44366, 44028, 43611, 43855, 44048, 44028, 43516, 43870, 43297, 43015, 42761, 43733, 43414, 43878, 43915, 43425, 43717, 43789, 43468, 42049, 43119, 43725, 43596, 42731, 43466, 43497, 43461, 42031, 43533, 43965, 44186, 43670, 43476, 43989, 43843, 43404, 43745, 43809, 43572, 42566, 42776, 43703, 43753, 43571, 44208, 43754, 43641, 44430, 42529, 44211, 44346, 43714, 43271, 42954, 43186, 43890, 43459, 44008, 43933, 43849, 44121, 43782, 42226, 43916, 44096, 43035, 44339, 44026, 43749, 43772, 42468, 43384, 43784, 44347, 43565, 42025, 43852, 44473, 44147, 43871, 44403, 44013, 43740, 43741, 43747, 42796, 43268, 44176, 43882, 44049, 43629, 43751, 44159, 42873, 43772, 44252, 44045, 44277, 44126, 44646, 43997, 43964, 43812, 43244, 44193, 44256, 44371, 44047, 44235, 43812, 43261, 43850, 43956, 43807, 43750, 44150, 43766, 43293, 42912, 44067, 43560, 43941, 44002, 44464, 43620, 42926, 43937, 44209, 43548, 44035, 44140, 44598, 43930, 42542, 43872, 44448, 44455, 43813, 43286, 42929, 43572, 43921, 43897, 43365, 43545, 43910, 44155, 44304, 43278, 43329, 43511, 43719, 44221, 44097, 44113, 43800, 43479, 43383, 42576, 43184, 44444, 44281, 44011, 44123, 44649, 43741, 44085, 44032, 43964, 42922, 44114, 44530, 44415, 43940, 43620, 43687, 42864, 42471, 44125, 43966, 43592, 43559, 44056, 43809, 42160, 42297, 43146, 43909, 43068, 44102, 43896, 44145, 43821, 44618, 44150, 44174, 44150, 43423, 44048, 44206, 43700, 43418, 44158, 44178, 43810, 43639, 43448, 43175, 43495, 43844, 44063, 43939, 44007, 43823, 43602, 44149, 43538, 43780, 44036, 43985, 42999, 43810, 44124, 44262, 43775, 43796, 43746, 44837, 44557, 43491, 42700],
      "WindowCenter": [10399.0, 10359.0, 10347.0, 10336.0, 10312.0, 10322.0, 10333.0, 10334.0, 10327.0, 10332.0, 10322.0, 10321.0, 10336.0, 10327.0, 10317.0, 10321.0, 10328.0, 10324.0, 10318.0, 10322.0, 10322.0, 10312.0, 10314.0, 10324.0, 10339.0, 10345.0, 10323.0, 10337.0, 10343.0, 10328.0, 10325.0, 10324.0, 10333.0, 10309.0, 10308.0, 10332.0, 10327.0, 10333.0, 10341.0, 10329.0, 10329.0, 10340.0, 10326.0, 10329.0, 10334.0, 10337.0, 10334.0, 10333.0, 10339.0, 10335.0, 10321.0, 10316.0, 10322.0, 10327.0, 10320.0, 10326.0, 10332.0, 10324.0, 10339.0, 10358.0, 10355.0, 10348.0, 10350.0, 10344.0, 10316.0, 10338.0, 10346.0, 10339.0, 10341.0, 10347.0, 10348.0, 10336.0, 10333.0, 10337.0, 10329.0, 10316.0, 10315.0, 10310.0, 10308.0, 10303.0, 10312.0, 10305.0, 10305.0, 10306.0, 10303.0, 10302.0, 10303.0, 10297.0, 10280.0, 10298.0, 10306.0, 10307.0, 10302.0, 10309.0, 10309.0, 10309.0, 10290.0, 10306.0, 10306.0, 10311.0, 10305.0, 10298.0, 10303.0, 10304.0, 10305.0, 10312.0, 10313.0, 10320.0, 10305.0, 10312.0, 10329.0, 10338.0, 10335.0, 10347.0, 10343.0, 10345.0, 10363.0, 10342.0, 10362.0, 10370.0, 10363.0, 10351.0, 10343.0, 10343.0, 10346.0, 10339.0, 10344.0, 10345.0, 10337.0, 10349.0, 10343.0, 10320.0, 10335.0, 10335.0, 10316.0, 10330.0, 10322.0, 10316.0, 10320.0, 10305.0, 10309.0, 10322.0, 10337.0, 10336.0, 10313.0, 10328.0, 10332.0, 10331.0, 10323.0, 10328.0, 10329.0, 10319.0, 10326.0, 10329.0, 10324.0, 10324.0, 10332.0, 10329.0, 10332.0, 10319.0, 10326.0, 10333.0, 10317.0, 10326.0, 10332.0, 10333.0, 10332.0, 10332.0, 10338.0, 10321.0, 10326.0, 10326.0, 10322.0, 10320.0, 10327.0, 10339.0, 10333.0, 10334.0, 10334.0, 10324.0, 10328.0, 10335.0, 10336.0, 10329.0, 10334.0, 10335.0, 10324.0, 10316.0, 10326.0, 10321.0, 10325.0, 10330.0, 10333.0, 10327.0, 10322.0, 10335.0, 10341.0, 10336.0, 10334.0, 10333.0, 10334.0, 10334.0, 10327.0, 10344.0, 10361.0, 10359.0, 10339.0, 10331.0, 10326.0, 10329.0, 10327.0, 10328.0, 10328.0, 10328.0, 10334.0, 10341.0, 10344.0, 10342.0, 10342.0, 10343.0, 10338.0, 10328.0, 10320.0, 10316.0, 10310.0, 10298.0, 10295.0, 10276.0, 10280.0, 10295.0, 10297.0, 10297.0, 10298.0, 10311.0, 10301.0, 10309.0, 10316.0, 10311.0, 10302.0, 10319.0, 10328.0, 10333.0, 10326.0, 10322.0, 10327.0, 10310.0, 10303.0, 10318.0, 10313.0, 10314.0, 10320.0, 10333.0, 10334.0, 10312.0, 10311.0, 10322.0, 10337.0, 10332.0, 10345.0, 10349.0, 10356.0, 10342.0, 10344.0, 10335.0, 10327.0, 10316.0, 10302.0, 10306.0, 10307.0, 10306.0, 10310.0, 10325.0, 10334.0, 10327.0, 10321.0, 10312.0, 10307.0, 10303.0, 10300.0, 10300.0, 10300.0, 10300.0, 10300.0, 10294.0, 10307.0, 10304.0, 10311.0, 10322.0, 10318.0, 10307.0, 10312.0, 10317.0, 10318.0, 10310.0, 10312.0, 10311.0, 10322.0, 10331.0, 10328.0, 10326.0],
