{
  "AcquisitionMatrixPE": 104,
  "AcquisitionNumber": 1,
  "AcquisitionTime": "10:45:51.452500",
  "BandwidthPerPixelPhaseEncode": 16.297,
  "BaseResolution": 104,
  "BodyPartExamined": "BRAIN",
  "ConsistencyInfo": "N4_VE11C_LATEST_20160120",
  "ConversionSoftware": "dcm2niix",
  "ConversionSoftwareVersion": "v1.0.20210317",
  "DerivedVendorReportedEchoSpacing": 0.000590009,
  "DeviceSerialNumber": "166018",
  "DwellTime": 2.1e-06,
  "EchoTime": 0.0376,
  "EchoTrainLength": 104,
  "EffectiveEchoSpacing": 0.000590009,
  "FlipAngle": 68,
  "ImageComments": "Unaliased MB6/PE3/LB",
  "ImageOrientationPatientDICOM": [0.999948, -0.00454475, 0.00913205, 0.00628292, 0.979692, -0.200408],
  "ImageType": [
    "ORIGINAL",
    "PRIMARY",
    "M",
    "MB",
    "ND",
    "MOSAIC"
],
  "ImagingFrequency": 123.197,
  "InPlanePhaseEncodingDirectionDICOM": "COL",
  "InstitutionAddress": "Washington Place 6,NYC,NYC,US,10003",
  "InstitutionName": "NYU - CBI",
  "InstitutionalDepartmentName": "Department",
  "MRAcquisitionType": "2D",
  "MagneticFieldStrength": 3,
  "Manufacturer": "Siemens",
  "ManufacturersModelName": "Prisma",
  "Modality": "MR",
  "MultibandAccelerationFactor": 6,
  "PartialFourier": 1,
  "PatientPosition": "HFS",
  "PercentPhaseFOV": 100,
  "PercentSampling": 100,
  "PhaseEncodingDirection": "j",
  "PhaseEncodingSteps": 104,
  "PhaseResolution": 1,
  "PixelBandwidth": 2290,
  "ProcedureStepDescription": "Investigators^Winawer",
  "ProtocolName": "cmrr_mbepi_s6_2mm_66sl_PA_task-bar2",
  "PulseSequenceDetails": "%CustomerSeq%\\cmrr_mbep2d_bold",
  "ReceiveCoilActiveElements": "HC1-7",
  "ReceiveCoilName": "HeadNeck_64",
  "ReconMatrixPE": 104,
  "RepetitionTime": 1,
  "SAR": 0.0764483,
  "ScanOptions": "FS",
  "ScanningSequence": "EP",
  "SequenceName": "epfid2d1_104",
  "SequenceVariant": "SK\\SS",
  "SeriesDescription": "cmrr_mbepi_s6_2mm_66sl_PA_task-bar2",
  "SeriesNumber": 12,
  "ShimSetting": [280, -12676, -8514, 136, -33, -157, -203, 74],
  "SliceThickness": 2,
  "SliceTiming": [0, 0.535, 0.0875, 0.6225, 0.1775, 0.7125, 0.2675, 0.8, 0.355, 0.89, 0.445, 0, 0.535, 0.0875, 0.6225, 0.1775, 0.7125, 0.2675, 0.8, 0.355, 0.89, 0.445, 0, 0.535, 0.0875, 0.6225, 0.1775, 0.7125, 0.2675, 0.8, 0.355, 0.89, 0.445, 0, 0.535, 0.0875, 0.6225, 0.1775, 0.7125, 0.2675, 0.8, 0.355, 0.89, 0.445, 0, 0.535, 0.0875, 0.6225, 0.1775, 0.7125, 0.2675, 0.8, 0.355, 0.89, 0.445, 0, 0.535, 0.0875, 0.6225, 0.1775, 0.7125, 0.2675, 0.8, 0.355, 0.89, 0.445],
  "SoftwareVersions": "syngo MR E11",
  "SpacingBetweenSlices": 2,
  "StationName": "AWP166018",
  "TaskName": "bar2",
  "TotalReadoutTime": 0.060771,
  "TxRefAmp": 205.472,
  "VendorReportedEchoSpacing": 0.00059,
  "WipMemBlock": "0010dfc7-2282-4613-a69d-381a814279c4||Sequence: R016 ve11c/master r/8780670; Nov 27 2017 15:05:12 by eja",
  "dcmmeta_affine": [
    [-1.9998959302902222, 0.012565836310386658, 0.016071578487753868, 106.30741119384766],
    [0.00908949039876461, 1.959384560585022, -0.4009108543395996, -70.38555908203125],
    [0.01826409064233303, 0.4008169174194336, 1.9593397378921509, -60.479225158691406],
    [0.0, 0.0, 0.0, 1.0]
],
  "dcmmeta_reorient_transform": [
    [0.0, -1.0, 0.0, 103.0],
    [1.0, 0.0, 0.0, 0.0],
    [0.0, 0.0, 1.0, 0.0],
    [0.0, 0.0, 0.0, 1.0]
],
  "dcmmeta_shape": [104, 104, 66, 300],
  "dcmmeta_slice_dim": 2,
  "dcmmeta_version": 0.6,
  "global": {
    "const": {
      "AccessionNumber": "Lebywuid",
      "AcquisitionMatrix": [104, 0, 0, 104],
      "AngioFlag": "N",
      "BitsAllocated": 16,
      "BitsStored": 16,
      "BodyPartExamined": "BRAIN",
      "Columns": 936,
      "EchoNumbers": 1,
      "EchoTime": 37.6,
      "EchoTrainLength": 104,
      "FlipAngle": 68.0,
      "HighBit": 15,
      "ImageOrientationPatient": [0.99994797416428, -0.0045447453845, 0.00913204545185, 0.00628291807953, 0.97969228423199, -0.2004084657811],
      "ImagePositionPatient": [-944.7857982781, -942.75380146987, 139.9468998383],
      "ImageType": [
        "ORIGINAL",
        "PRIMARY",
        "M",
        "MB",
        "ND",
        "MOSAIC"
],
      "ImagedNucleus": "1H",
      "ImagingFrequency": 123.19683,
      "InPlanePhaseEncodingDirection": "COL",
      "MRAcquisitionType": "2D",
      "MagneticFieldStrength": 3.0,
      "Manufacturer": "SIEMENS",
      "ManufacturerModelName": "Prisma",
      "Modality": "MR",
      "NumberOfAverages": 1.0,
      "NumberOfPhaseEncodingSteps": 104,
      "PercentPhaseFieldOfView": 100.0,
      "PercentSampling": 100.0,
      "PerformedProcedureStepStartTime": "101845.016000",
      "PhotometricInterpretation": "MONOCHROME2",
      "PixelBandwidth": 2290.0,
      "PixelRepresentation": 0,
      "PixelSpacing": [2.0, 2.0],
      "ProtocolName": "cmrr_mbepi_s6_2mm_66sl_PA_task-bar2",
      "RepetitionTime": 1000.0,
      "Rows": 936,
      "SAR": 0.07644829730466,
      "SamplesPerPixel": 1,
      "ScanOptions": "FS",
      "ScanningSequence": "EP",
      "SequenceName": "epfid2d1_104",
      "SequenceVariant": [
        "SK",
        "SS"
],
      "SeriesDescription": "cmrr_mbepi_s6_2mm_66sl_PA_task-bar2",
      "SeriesNumber": 12,
      "SeriesTime": "104704.287000",
      "SliceLocation": -44.286244358261,
      "SliceThickness": 2.0,
      "SmallestImagePixelValue": 0,
      "SoftwareVersions": "syngo MR E11",
      "SpacingBetweenSlices": 2.0000000476583,
      "SpecificCharacterSet": "ISO_IR 100",
      "StudyID": "1",
      "StudyTime": "101844.844000",
      "TransmitCoilName": "Body",
      "VariableFlipAngleFlag": "N",
      "WindowCenterWidthExplanation": "Algo1",
      "dBdt": 0.0},
    "slices": {}
  },
  "time": {
    "samples": {
      "AcquisitionNumber": [1, 2, 3, 4, 5, 6, 7, 8, 9, 10, 11, 12, 13, 14, 15, 16, 17, 18, 19, 20, 21, 22, 23, 24, 25, 26, 27, 28, 29, 30, 31, 32, 33, 34, 35, 36, 37, 38, 39, 40, 41, 42, 43, 44, 45, 46, 47, 48, 49, 50, 51, 52, 53, 54, 55, 56, 57, 58, 59, 60, 61, 62, 63, 64, 65, 66, 67, 68, 69, 70, 71, 72, 73, 74, 75, 76, 77, 78, 79, 80, 81, 82, 83, 84, 85, 86, 87, 88, 89, 90, 91, 92, 93, 94, 95, 96, 97, 98, 99, 100, 101, 102, 103, 104, 105, 106, 107, 108, 109, 110, 111, 112, 113, 114, 115, 116, 117, 118, 119, 120, 121, 122, 123, 124, 125, 126, 127, 128, 129, 130, 131, 132, 133, 134, 135, 136, 137, 138, 139, 140, 141, 142, 143, 144, 145, 146, 147, 148, 149, 150, 151, 152, 153, 154, 155, 156, 157, 158, 159, 160, 161, 162, 163, 164, 165, 166, 167, 168, 169, 170, 171, 172, 173, 174, 175, 176, 177, 178, 179, 180, 181, 182, 183, 184, 185, 186, 187, 188, 189, 190, 191, 192, 193, 194, 195, 196, 197, 198, 199, 200, 201, 202, 203, 204, 205, 206, 207, 208, 209, 210, 211, 212, 213, 214, 215, 216, 217, 218, 219, 220, 221, 222, 223, 224, 225, 226, 227, 228, 229, 230, 231, 232, 233, 234, 235, 236, 237, 238, 239, 240, 241, 242, 243, 244, 245, 246, 247, 248, 249, 250, 251, 252, 253, 254, 255, 256, 257, 258, 259, 260, 261, 262, 263, 264, 265, 266, 267, 268, 269, 270, 271, 272, 273, 274, 275, 276, 277, 278, 279, 280, 281, 282, 283, 284, 285, 286, 287, 288, 289, 290, 291, 292, 293, 294, 295, 296, 297, 298, 299, 300],
      "AcquisitionTime": ["104551.452500", "104552.452500", "104553.452500", "104554.452500", "104555.452500", "104556.452500", "104557.452500", "104558.452500", "104559.452500", "104600.452500", "104601.452500", "104602.452500", "104603.452500", "104604.452500", "104605.452500", "104606.452500", "104607.452500", "104608.452500", "104609.452500", "104610.452500", "104611.452500", "104612.452500", "104613.452500", "104614.452500", "104615.452500", "104616.452500", "104617.452500", "104618.452500", "104619.452500", "104620.452500", "104621.452500", "104622.452500", "104623.452500", "104624.452500", "104625.452500", "104626.452500", "104627.452500", "104628.452500", "104629.452500", "104630.452500", "104631.452500", "104632.452500", "104633.452500", "104634.452500", "104635.452500", "104636.452500", "104637.452500", "104638.452500", "104639.452500", "104640.452500", "104641.452500", "104642.452500", "104643.452500", "104644.452500", "104645.452500", "104646.452500", "104647.452500", "104648.452500", "104649.452500", "104650.452500", "104651.452500", "104652.452500", "104653.452500", "104654.452500", "104655.452500", "104656.452500", "104657.452500", "104658.452500", "104659.452500", "104700.452500", "104701.452500", "104702.452500", "104703.452500", "104704.452500", "104705.452500", "104706.452500", "104707.452500", "104708.452500", "104709.452500", "104710.452500", "104711.452500", "104712.452500", "104713.452500", "104714.452500", "104715.452500", "104716.452500", "104717.452500", "104718.452500", "104719.452500", "104720.452500", "104721.452500", "104722.452500", "104723.452500", "104724.452500", "104725.452500", "104726.452500", "104727.452500", "104728.452500", "104729.452500", "104730.452500", "104731.452500", "104732.452500", "104733.452500", "104734.452500", "104735.452500", "104736.452500", "104737.452500", "104738.452500", "104739.452500", "104740.452500", "104741.452500", "104742.452500", "104743.452500", "104744.452500", "104745.452500", "104746.452500", "104747.452500", "104748.452500", "104749.452500", "104750.452500", "104751.452500", "104752.452500", "104753.452500", "104754.452500", "104755.452500", "104756.452500", "104757.452500", "104758.452500", "104759.452500", "104800.452500", "104801.452500", "104802.452500", "104803.452500", "104804.452500", "104805.452500", "104806.452500", "104807.452500", "104808.452500", "104809.452500", "104810.452500", "104811.452500", "104812.452500", "104813.452500", "104814.452500", "104815.452500", "104816.452500", "104817.452500", "104818.452500", "104819.452500", "104820.452500", "104821.452500", "104822.452500", "104823.452500", "104824.452500", "104825.452500", "104826.452500", "104827.452500", "104828.452500", "104829.452500", "104830.452500", "104831.452500", "104832.452500", "104833.452500", "104834.452500", "104835.452500", "104836.452500", "104837.452500", "104838.452500", "104839.452500", "104840.452500", "104841.452500", "104842.452500", "104843.452500", "104844.452500", "104845.452500", "104846.452500", "104847.452500", "104848.452500", "104849.452500", "104850.452500", "104851.452500", "104852.452500", "104853.452500", "104854.452500", "104855.452500", "104856.452500", "104857.452500", "104858.452500", "104859.452500", "104900.452500", "104901.452500", "104902.452500", "104903.452500", "104904.452500", "104905.452500", "104906.452500", "104907.452500", "104908.452500", "104909.452500", "104910.452500", "104911.452500", "104912.452500", "104913.452500", "104914.452500", "104915.452500", "104916.452500", "104917.452500", "104918.452500", "104919.452500", "104920.452500", "104921.452500", "104922.452500", "104923.452500", "104924.452500", "104925.452500", "104926.452500", "104927.452500", "104928.452500", "104929.452500", "104930.452500", "104931.452500", "104932.452500", "104933.452500", "104934.452500", "104935.452500", "104936.452500", "104937.452500", "104938.452500", "104939.452500", "104940.452500", "104941.452500", "104942.452500", "104943.452500", "104944.452500", "104945.452500", "104946.452500", "104947.452500", "104948.452500", "104949.452500", "104950.452500", "104951.452500", "104952.452500", "104953.452500", "104954.452500", "104955.452500", "104956.452500", "104957.452500", "104958.452500", "104959.452500", "105000.452500", "105001.452500", "105002.452500", "105003.452500", "105004.452500", "105005.452500", "105006.452500", "105007.452500", "105008.452500", "105009.452500", "105010.452500", "105011.452500", "105012.452500", "105013.452500", "105014.452500", "105015.452500", "105016.452500", "105017.452500", "105018.452500", "105019.452500", "105020.452500", "105021.452500", "105022.452500", "105023.452500", "105024.452500", "105025.452500", "105026.452500", "105027.452500", "105028.452500", "105029.452500", "105030.452500", "105031.452500", "105032.452500", "105033.452500", "105034.452500", "105035.452500", "105036.452500", "105037.452500", "105038.452500", "105039.452500", "105040.452500", "105041.452500", "105042.452500", "105043.452500", "105044.452500", "105045.452500", "105046.452500", "105047.452500", "105048.452500", "105049.452500", "105050.452500"],
      "ContentTime": ["104704.290000", "104704.294000", "104704.297000", "104704.300000", "104704.306000", "104704.310000", "104704.313000", "104704.316000", "104704.319000", "104704.322000", "104704.325000", "104704.328000", "104704.331000", "104704.335000", "104704.338000", "104704.341000", "104704.344000", "104704.347000", "104704.350000", "104704.353000", "104704.356000", "104704.361000", "104704.364000", "104704.367000", "104704.370000", "104704.373000", "104704.376000", "104704.379000", "104704.382000", "104704.386000", "104704.389000", "104704.392000", "104704.395000", "104724.256000", "104724.259000", "104724.271000", "104724.274000", "104724.277000", "104724.281000", "104724.284000", "104724.287000", "104724.292000", "104724.295000", "104724.298000", "104724.301000", "104724.304000", "104724.307000", "104724.311000", "104724.314000", "104724.317000", "104724.320000", "104724.323000", "104724.326000", "104724.329000", "104724.332000", "104724.335000", "104724.338000", "104724.341000", "104724.344000", "104724.348000", "104724.351000", "104724.354000", "104744.256000", "104744.259000", "104744.262000", "104744.265000", "104744.269000", "104744.272000", "104744.275000", "104744.278000", "104744.281000", "104744.284000", "104744.287000", "104744.290000", "104744.293000", "104744.296000", "104744.299000", "104744.302000", "104744.306000", "104744.309000", "104744.312000", "104744.315000", "104744.318000", "104744.321000", "104744.325000", "104744.329000", "104744.332000", "104744.335000", "104744.338000", "104744.341000", "104804.255000", "104804.258000", "104804.261000", "104804.264000", "104804.273000", "104804.276000", "104804.279000", "104804.282000", "104804.286000", "104804.289000", "104804.292000", "104804.295000", "104804.298000", "104804.301000", "104804.304000", "104804.307000", "104804.311000", "104804.314000", "104804.317000", "104804.320000", "104804.324000", "104804.327000", "104804.331000", "104804.334000", "104804.337000", "104804.340000", "104804.358000", "104804.361000", "104824.256000", "104824.259000", "104824.263000", "104824.266000", "104824.269000", "104824.272000", "104824.275000", "104824.278000", "104824.281000", "104824.284000", "104824.287000", "104824.290000", "104824.294000", "104824.297000", "104824.300000", "104824.303000", "104824.306000", "104824.309000", "104824.312000", "104824.315000", "104824.318000", "104824.321000", "104824.325000", "104824.328000", "104824.331000", "104824.334000", "104824.337000", "104824.340000", "104824.343000", "104844.256000", "104844.259000", "104844.263000", "104844.266000", "104844.269000", "104844.272000", "104844.275000", "104844.278000", "104844.281000", "104844.284000", "104844.287000", "104844.290000", "104844.293000", "104844.297000", "104844.300000", "104844.303000", "104844.306000", "104844.309000", "104844.312000", "104844.315000", "104844.318000", "104844.329000", "104844.332000", "104844.335000", "104904.256000", "104904.259000", "104904.263000", "104904.266000", "104904.269000", "104904.272000", "104904.275000", "104904.278000", "104904.281000", "104904.284000", "104904.287000", "104904.291000", "104904.294000", "104904.297000", "104904.300000", "104904.303000", "104904.306000", "104904.309000", "104904.312000", "104904.315000", "104924.256000", "104924.259000", "104924.263000", "104924.266000", "104924.269000", "104924.272000", "104924.275000", "104924.278000", "104924.281000", "104924.284000", "104924.288000", "104924.291000", "104924.294000", "104924.297000", "104924.300000", "104924.303000", "104924.306000", "104924.309000", "104924.312000", "104924.315000", "104944.256000", "104944.260000", "104944.263000", "104944.266000", "104944.269000", "104944.272000", "104944.275000", "104944.278000", "104944.281000", "104944.285000", "104944.288000", "104944.291000", "104944.294000", "104944.297000", "104944.300000", "104944.303000", "104944.306000", "104944.310000", "104944.313000", "104944.316000", "105004.256000", "105004.270000", "105004.273000", "105004.276000", "105004.279000", "105004.287000", "105004.290000", "105004.293000", "105004.296000", "105004.299000", "105004.302000", "105004.305000", "105004.309000", "105004.312000", "105004.315000", "105004.318000", "105004.321000", "105004.325000", "105004.328000", "105004.332000", "105024.255000", "105024.259000", "105024.262000", "105024.265000", "105024.268000", "105024.271000", "105024.274000", "105024.277000", "105024.280000", "105024.283000", "105024.286000", "105024.290000", "105024.293000", "105024.296000", "105024.299000", "105024.302000", "105024.305000", "105024.308000", "105024.311000", "105024.314000", "105044.256000", "105044.260000", "105044.263000", "105044.266000", "105044.269000", "105044.272000", "105044.275000", "105044.278000", "105044.281000", "105044.284000", "105044.288000", "105044.291000", "105044.294000", "105044.297000", "105044.300000", "105044.303000", "105044.306000", "105044.309000", "105044.312000", "105044.315000", "105052.543000", "105052.547000", "105052.551000", "105052.557000", "105052.562000", "105052.566000", "105052.571000", "105052.576000", "105052.580000"],
      "InstanceCreationTime": ["104704.290000", "104704.294000", "104704.297000", "104704.300000", "104704.306000", "104704.310000", "104704.313000", "104704.316000", "104704.319000", "104704.322000", "104704.325000", "104704.328000", "104704.331000", "104704.335000", "104704.338000", "104704.341000", "104704.344000", "104704.347000", "104704.350000", "104704.353000", "104704.356000", "104704.361000", "104704.364000", "104704.367000", "104704.370000", "104704.373000", "104704.376000", "104704.379000", "104704.382000", "104704.386000", "104704.389000", "104704.392000", "104704.395000", "104724.256000", "104724.259000", "104724.271000", "104724.274000", "104724.277000", "104724.281000", "104724.284000", "104724.287000", "104724.292000", "104724.295000", "104724.298000", "104724.301000", "104724.304000", "104724.307000", "104724.311000", "104724.314000", "104724.317000", "104724.320000", "104724.323000", "104724.326000", "104724.329000", "104724.332000", "104724.335000", "104724.338000", "104724.341000", "104724.344000", "104724.348000", "104724.351000", "104724.354000", "104744.256000", "104744.259000", "104744.262000", "104744.265000", "104744.269000", "104744.272000", "104744.275000", "104744.278000", "104744.281000", "104744.284000", "104744.287000", "104744.290000", "104744.293000", "104744.296000", "104744.299000", "104744.302000", "104744.306000", "104744.309000", "104744.312000", "104744.315000", "104744.318000", "104744.321000", "104744.325000", "104744.329000", "104744.332000", "104744.335000", "104744.338000", "104744.341000", "104804.255000", "104804.258000", "104804.261000", "104804.264000", "104804.273000", "104804.276000", "104804.279000", "104804.282000", "104804.286000", "104804.289000", "104804.292000", "104804.295000", "104804.298000", "104804.301000", "104804.304000", "104804.307000", "104804.311000", "104804.314000", "104804.317000", "104804.320000", "104804.324000", "104804.327000", "104804.331000", "104804.334000", "104804.337000", "104804.340000", "104804.358000", "104804.361000", "104824.256000", "104824.259000", "104824.263000", "104824.266000", "104824.269000", "104824.272000", "104824.275000", "104824.278000", "104824.281000", "104824.284000", "104824.287000", "104824.290000", "104824.294000", "104824.297000", "104824.300000", "104824.303000", "104824.306000", "104824.309000", "104824.312000", "104824.315000", "104824.318000", "104824.321000", "104824.325000", "104824.328000", "104824.331000", "104824.334000", "104824.337000", "104824.340000", "104824.343000", "104844.256000", "104844.259000", "104844.263000", "104844.266000", "104844.269000", "104844.272000", "104844.275000", "104844.278000", "104844.281000", "104844.284000", "104844.287000", "104844.290000", "104844.293000", "104844.297000", "104844.300000", "104844.303000", "104844.306000", "104844.309000", "104844.312000", "104844.315000", "104844.318000", "104844.329000", "104844.332000", "104844.335000", "104904.256000", "104904.259000", "104904.263000", "104904.266000", "104904.269000", "104904.272000", "104904.275000", "104904.278000", "104904.281000", "104904.284000", "104904.287000", "104904.291000", "104904.294000", "104904.297000", "104904.300000", "104904.303000", "104904.306000", "104904.309000", "104904.312000", "104904.315000", "104924.256000", "104924.259000", "104924.263000", "104924.266000", "104924.269000", "104924.272000", "104924.275000", "104924.278000", "104924.281000", "104924.284000", "104924.288000", "104924.291000", "104924.294000", "104924.297000", "104924.300000", "104924.303000", "104924.306000", "104924.309000", "104924.312000", "104924.315000", "104944.256000", "104944.260000", "104944.263000", "104944.266000", "104944.269000", "104944.272000", "104944.275000", "104944.278000", "104944.281000", "104944.285000", "104944.288000", "104944.291000", "104944.294000", "104944.297000", "104944.300000", "104944.303000", "104944.306000", "104944.310000", "104944.313000", "104944.316000", "105004.256000", "105004.270000", "105004.273000", "105004.276000", "105004.279000", "105004.287000", "105004.290000", "105004.293000", "105004.296000", "105004.299000", "105004.302000", "105004.305000", "105004.309000", "105004.312000", "105004.315000", "105004.318000", "105004.321000", "105004.325000", "105004.328000", "105004.332000", "105024.255000", "105024.259000", "105024.262000", "105024.265000", "105024.268000", "105024.271000", "105024.274000", "105024.277000", "105024.280000", "105024.283000", "105024.286000", "105024.290000", "105024.293000", "105024.296000", "105024.299000", "105024.302000", "105024.305000", "105024.308000", "105024.311000", "105024.314000", "105044.256000", "105044.260000", "105044.263000", "105044.266000", "105044.269000", "105044.272000", "105044.275000", "105044.278000", "105044.281000", "105044.284000", "105044.288000", "105044.291000", "105044.294000", "105044.297000", "105044.300000", "105044.303000", "105044.306000", "105044.309000", "105044.312000", "105044.315000", "105052.543000", "105052.547000", "105052.551000", "105052.557000", "105052.562000", "105052.566000", "105052.571000", "105052.576000", "105052.580000"],
      "InstanceNumber": [1, 2, 3, 4, 5, 6, 7, 8, 9, 10, 11, 12, 13, 14, 15, 16, 17, 18, 19, 20, 21, 22, 23, 24, 25, 26, 27, 28, 29, 30, 31, 32, 33, 34, 35, 36, 37, 38, 39, 40, 41, 42, 43, 44, 45, 46, 47, 48, 49, 50, 51, 52, 53, 54, 55, 56, 57, 58, 59, 60, 61, 62, 63, 64, 65, 66, 67, 68, 69, 70, 71, 72, 73, 74, 75, 76, 77, 78, 79, 80, 81, 82, 83, 84, 85, 86, 87, 88, 89, 90, 91, 92, 93, 94, 95, 96, 97, 98, 99, 100, 101, 102, 103, 104, 105, 106, 107, 108, 109, 110, 111, 112, 113, 114, 115, 116, 117, 118, 119, 120, 121, 122, 123, 124, 125, 126, 127, 128, 129, 130, 131, 132, 133, 134, 135, 136, 137, 138, 139, 140, 141, 142, 143, 144, 145, 146, 147, 148, 149, 150, 151, 152, 153, 154, 155, 156, 157, 158, 159, 160, 161, 162, 163, 164, 165, 166, 167, 168, 169, 170, 171, 172, 173, 174, 175, 176, 177, 178, 179, 180, 181, 182, 183, 184, 185, 186, 187, 188, 189, 190, 191, 192, 193, 194, 195, 196, 197, 198, 199, 200, 201, 202, 203, 204, 205, 206, 207, 208, 209, 210, 211, 212, 213, 214, 215, 216, 217, 218, 219, 220, 221, 222, 223, 224, 225, 226, 227, 228, 229, 230, 231, 232, 233, 234, 235, 236, 237, 238, 239, 240, 241, 242, 243, 244, 245, 246, 247, 248, 249, 250, 251, 252, 253, 254, 255, 256, 257, 258, 259, 260, 261, 262, 263, 264, 265, 266, 267, 268, 269, 270, 271, 272, 273, 274, 275, 276, 277, 278, 279, 280, 281, 282, 283, 284, 285, 286, 287, 288, 289, 290, 291, 292, 293, 294, 295, 296, 297, 298, 299, 300],
      "LargestImagePixelValue": [43537, 43161, 41617, 41681, 41522, 41819, 41029, 41107, 41539, 41806, 41112, 41046, 41635, 40938, 40962, 40739, 41381, 41058, 40805, 41179, 40981, 41333, 41171, 41449, 41149, 40929, 41296, 41480, 41371, 41106, 41162, 41614, 41427, 41339, 41131, 41830, 41554, 41294, 41522, 40918, 41567, 41460, 42017, 41840, 41703, 41531, 41872, 41648, 41612, 41433, 41241, 41405, 41211, 41205, 41648, 41520, 41497, 41698, 41644, 42370, 41817, 42033, 41557, 41410, 41659, 41285, 41225, 41548, 41299, 41135, 41157, 41246, 41170, 40784, 41180, 41275, 41347, 41580, 41545, 41355, 41532, 41270, 41339, 41323, 41101, 40919, 41068, 41309, 41654, 41834, 41290, 41698, 41638, 41205, 41376, 41653, 41624, 41338, 40974, 41382, 41591, 41216, 40857, 40961, 41170, 40634, 40999, 41003, 41640, 41716, 40905, 41712, 41026, 41153, 41170, 41114, 41444, 41641, 41812, 41784, 41760, 41895, 41529, 42065, 41844, 41449, 41732, 41822, 41571, 41432, 41630, 41881, 41970, 41740, 41988, 42489, 42511, 42344, 42314, 42441, 42213, 41366, 41546, 41907, 41650, 41901, 41928, 41712, 42296, 42145, 42166, 41686, 41876, 42268, 42031, 41998, 42433, 41858, 42106, 42165, 42243, 42010, 41493, 41377, 41572, 41709, 41212, 41243, 41940, 42083, 42192, 42014, 42028, 42261, 42222, 42128, 41934, 41356, 41714, 42035, 42026, 41511, 41437, 41960, 42200, 42040, 41891, 41243, 41887, 42158, 41708, 41842, 41199, 41801, 41565, 41828, 42087, 42399, 42504, 41805, 41825, 41728, 41862, 41876, 42058, 41584, 41717, 41951, 41861, 41775, 41248, 42119, 41817, 41716, 41533, 41623, 41958, 41951, 42085, 42335, 42151, 42091, 41949, 41551, 42463, 42028, 42366, 42128, 42303, 42527, 42395, 41994, 41474, 42444, 42184, 41848, 41920, 42080, 41964, 42166, 41825, 41836, 41909, 42106, 41704, 41685, 41659, 41373, 41619, 41493, 41776, 41127, 41566, 41751, 41530, 41801, 41511, 41737, 41759, 41492, 41457, 41594, 41181, 41364, 41507, 41390, 41726, 41644, 41255, 41575, 41687, 41465, 41581, 41689, 42100, 41611, 41697, 41679, 41118, 41543, 41523, 41806, 42000, 41886, 41800, 41860, 41719, 41445, 41875, 41374, 41324, 40478, 40964, 41212, 41378, 40979, 41359, 41185, 41380, 41269],
      "WindowCenter": [10262.0, 10238.0, 10211.0, 10208.0, 10208.0, 10211.0, 10200.0, 10200.0, 10204.0, 10197.0, 10193.0, 10201.0, 10199.0, 10200.0, 10202.0, 10205.0, 10206.0, 10202.0, 10204.0, 10215.0, 10209.0, 10209.0, 10217.0, 10206.0, 10200.0, 10192.0, 10189.0, 10177.0, 10173.0, 10174.0, 10187.0, 10185.0, 10188.0, 10196.0, 10203.0, 10205.0, 10211.0, 10207.0, 10206.0, 10201.0, 10198.0, 10191.0, 10199.0, 10205.0, 10200.0, 10214.0, 10229.0, 10233.0, 10232.0, 10219.0, 10210.0, 10193.0, 10182.0, 10172.0, 10177.0, 10184.0, 10187.0, 10195.0, 10205.0, 10225.0, 10220.0, 10221.0, 10223.0, 10218.0, 10220.0, 10207.0, 10208.0, 10213.0, 10207.0, 10213.0, 10221.0, 10223.0, 10224.0, 10213.0, 10225.0, 10225.0, 10224.0, 10222.0, 10208.0, 10198.0, 10219.0, 10223.0, 10236.0, 10241.0, 10233.0, 10213.0, 10192.0, 10160.0, 10136.0, 10117.0, 10111.0, 10123.0, 10132.0, 10142.0, 10153.0, 10170.0, 10177.0, 10167.0, 10175.0, 10187.0, 10189.0, 10182.0, 10174.0, 10175.0, 10179.0, 10176.0, 10184.0, 10191.0, 10203.0, 10214.0, 10212.0, 10216.0, 10216.0, 10216.0, 10208.0, 10203.0, 10212.0, 10222.0, 10229.0, 10230.0, 10236.0, 10248.0, 10251.0, 10250.0, 10250.0, 10252.0, 10249.0, 10242.0, 10233.0, 10234.0, 10227.0, 10232.0, 10236.0, 10230.0, 10230.0, 10242.0, 10250.0, 10256.0, 10255.0, 10255.0, 10253.0, 10243.0, 10248.0, 10239.0, 10227.0, 10233.0, 10241.0, 10248.0, 10245.0, 10246.0, 10253.0, 10250.0, 10262.0, 10255.0, 10257.0, 10257.0, 10255.0, 10247.0, 10247.0, 10252.0, 10255.0, 10249.0, 10251.0, 10249.0, 10236.0, 10234.0, 10229.0, 10235.0, 10237.0, 10228.0, 10227.0, 10229.0, 10236.0, 10235.0, 10230.0, 10242.0, 10244.0, 10243.0, 10235.0, 10240.0, 10233.0, 10224.0, 10220.0, 10232.0, 10231.0, 10232.0, 10241.0, 10243.0, 10248.0, 10241.0, 10241.0, 10238.0, 10217.0, 10213.0, 10205.0, 10205.0, 10210.0, 10227.0, 10251.0, 10256.0, 10251.0, 10250.0, 10251.0, 10243.0, 10234.0, 10226.0, 10231.0, 10232.0, 10231.0, 10225.0, 10227.0, 10236.0, 10225.0, 10217.0, 10217.0, 10217.0, 10208.0, 10198.0, 10189.0, 10186.0, 10193.0, 10197.0, 10205.0, 10209.0, 10227.0, 10233.0, 10255.0, 10258.0, 10265.0, 10273.0, 10268.0, 10261.0, 10253.0, 10248.0, 10240.0, 10233.0, 10224.0, 10231.0, 10239.0, 10248.0, 10250.0, 10250.0, 10249.0, 10239.0, 10218.0, 10210.0, 10208.0, 10210.0, 10217.0, 10217.0, 10232.0, 10230.0, 10236.0, 10236.0, 10239.0, 10249.0, 10245.0, 10239.0, 10236.0, 10250.0, 10257.0, 10254.0, 10246.0, 10253.0, 10259.0, 10253.0, 10249.0, 10249.0, 10251.0, 10259.0, 10251.0, 10250.0, 10245.0, 10250.0, 10247.0, 10235.0, 10234.0, 10228.0, 10215.0, 10217.0, 10209.0, 10223.0, 10233.0, 10250.0, 10258.0, 10275.0, 10273.0, 10266.0, 10259.0, 10246.0, 10239.0, 10221.0, 10221.0, 10219.0, 10233.0, 10235.0, 10236.0, 10244.0, 10253.0, 10247.0],
