{
  "AcquisitionMatrixPE": 104,
  "AcquisitionNumber": 1,
  "AcquisitionTime": "16:47:15.975000",
  "BandwidthPerPixelPhaseEncode": 16.297,
  "BaseResolution": 104,
  "BodyPartExamined": "BRAIN",
  "ConsistencyInfo": "N4_VE11C_LATEST_20160120",
  "ConversionSoftware": "dcm2niix",
  "ConversionSoftwareVersion": "v1.0.20210317",
  "DerivedVendorReportedEchoSpacing": 0.000590009,
  "DeviceSerialNumber": "166018",
  "DwellTime": 2.1e-06,
  "EchoTime": 0.0376,
  "EchoTrainLength": 104,
  "EffectiveEchoSpacing": 0.000590009,
  "FlipAngle": 68,
  "ImageComments": "Unaliased MB6/PE3/LB",
  "ImageOrientationPatientDICOM": [0.996978, -0.0776721, -0.0014418, 0.0767132, 0.987258, -0.139415],
  "ImageType": [
    "ORIGINAL",
    "PRIMARY",
    "M",
    "MB",
    "ND",
    "MOSAIC"
],
  "ImagingFrequency": 123.197,
  "InPlanePhaseEncodingDirectionDICOM": "COL",
  "InstitutionAddress": "Washington Place 6,NYC,NYC,US,10003",
  "InstitutionName": "NYU - CBI",
  "InstitutionalDepartmentName": "Department",
  "MRAcquisitionType": "2D",
  "MagneticFieldStrength": 3,
  "Manufacturer": "Siemens",
  "ManufacturersModelName": "Prisma",
  "Modality": "MR",
  "MultibandAccelerationFactor": 6,
  "PartialFourier": 1,
  "PatientPosition": "HFS",
  "PercentPhaseFOV": 100,
  "PercentSampling": 100,
  "PhaseEncodingDirection": "j",
  "PhaseEncodingSteps": 104,
  "PhaseResolution": 1,
  "PixelBandwidth": 2290,
  "ProcedureStepDescription": "Investigators^Winawer",
  "ProtocolName": "cmrr_mbepi_s6_2mm_66sl_PA_task-wedgering3",
  "PulseSequenceDetails": "%CustomerSeq%\\cmrr_mbep2d_bold",
  "ReceiveCoilActiveElements": "HC1-7",
  "ReceiveCoilName": "HeadNeck_64",
  "ReconMatrixPE": 104,
  "RepetitionTime": 1,
  "SAR": 0.0685779,
  "ScanOptions": "FS",
  "ScanningSequence": "EP",
  "SequenceName": "epfid2d1_104",
  "SequenceVariant": "SK\\SS",
  "SeriesDescription": "cmrr_mbepi_s6_2mm_66sl_PA_task-wedgering3",
  "SeriesNumber": 18,
  "ShimSetting": [276, -12645, -8504, 317, -20, -60, -113, 21],
  "SliceThickness": 2,
  "SliceTiming": [0, 0.535, 0.09, 0.6225, 0.1775, 0.7125, 0.2675, 0.8025, 0.355, 0.89, 0.445, 0, 0.535, 0.09, 0.6225, 0.1775, 0.7125, 0.2675, 0.8025, 0.355, 0.89, 0.445, 0, 0.535, 0.09, 0.6225, 0.1775, 0.7125, 0.2675, 0.8025, 0.355, 0.89, 0.445, 0, 0.535, 0.09, 0.6225, 0.1775, 0.7125, 0.2675, 0.8025, 0.355, 0.89, 0.445, 0, 0.535, 0.09, 0.6225, 0.1775, 0.7125, 0.2675, 0.8025, 0.355, 0.89, 0.445, 0, 0.535, 0.09, 0.6225, 0.1775, 0.7125, 0.2675, 0.8025, 0.355, 0.89, 0.445],
  "SoftwareVersions": "syngo MR E11",
  "SpacingBetweenSlices": 2,
  "StationName": "AWP166018",
  "TaskName": "wedgering3",
  "TotalReadoutTime": 0.060771,
  "TxRefAmp": 212.527,
  "VendorReportedEchoSpacing": 0.00059,
  "WipMemBlock": "ce9aaa88-663d-4f76-acfc-62038b17c2d1||Sequence: R016 ve11c/master r/8780670; Nov 27 2017 15:05:12 by eja",
  "dcmmeta_affine": [
    [-1.9939558506011963, 0.15342645347118378, -0.024504221975803375, 100.53018951416016],
    [0.1553441882133484, 1.9745161533355713, -0.27776673436164856, -88.080322265625],
    [-0.0028836082201451063, 0.2788306176662445, 1.9804657697677612, -52.53673553466797],
    [0.0, 0.0, 0.0, 1.0]
],
  "dcmmeta_reorient_transform": [
    [0.0, -1.0, 0.0, 103.0],
    [1.0, 0.0, 0.0, 0.0],
    [0.0, 0.0, 1.0, 0.0],
    [0.0, 0.0, 0.0, 1.0]
],
  "dcmmeta_shape": [104, 104, 66, 300],
  "dcmmeta_slice_dim": 2,
  "dcmmeta_version": 0.6,
  "global": {
    "const": {
      "AccessionNumber": "Leq8514L",
      "AcquisitionMatrix": [104, 0, 0, 104],
      "AngioFlag": "N",
      "BitsAllocated": 16,
      "BitsStored": 16,
      "BodyPartExamined": "BRAIN",
      "Columns": 936,
      "EchoNumbers": 1,
      "EchoTime": 37.6,
      "EchoTrainLength": 104,
      "FlipAngle": 68.0,
      "HighBit": 15,
      "ImageOrientationPatient": [0.99697791698651, -0.0776720943596, -0.0014418040916, 0.07671322448522, 0.98725804858317, -0.1394153029507],
      "ImagePositionPatient": [-1009.6441422165, -872.07035201801, 93.375928339075],
      "ImageType": [
        "ORIGINAL",
        "PRIMARY",
        "M",
        "MB",
        "ND",
        "MOSAIC"
],
      "ImagedNucleus": "1H",
      "ImagingFrequency": 123.196839,
      "InPlanePhaseEncodingDirection": "COL",
      "MRAcquisitionType": "2D",
      "MagneticFieldStrength": 3.0,
      "Manufacturer": "SIEMENS",
      "ManufacturerModelName": "Prisma",
      "Modality": "MR",
      "NumberOfAverages": 1.0,
      "NumberOfPhaseEncodingSteps": 104,
      "PercentPhaseFieldOfView": 100.0,
      "PercentSampling": 100.0,
      "PerformedProcedureStepStartTime": "160347.264000",
      "PhotometricInterpretation": "MONOCHROME2",
      "PixelBandwidth": 2290.0,
      "PixelRepresentation": 0,
      "PixelSpacing": [2.0, 2.0],
      "ProtocolName": "cmrr_mbepi_s6_2mm_66sl_PA_task-wedgering3",
      "RepetitionTime": 1000.0,
      "Rows": 936,
      "SAR": 0.0685779096982,
      "SamplesPerPixel": 1,
      "ScanOptions": "FS",
      "ScanningSequence": "EP",
      "SequenceName": "epfid2d1_104",
      "SequenceVariant": [
        "SK",
        "SS"
],
      "SeriesDescription": "cmrr_mbepi_s6_2mm_66sl_PA_task-wedgering3",
      "SeriesNumber": 18,
      "SeriesTime": "164832.945000",
      "SliceLocation": -41.022423307457,
      "SliceThickness": 2.0,
      "SmallestImagePixelValue": 0,
      "SoftwareVersions": "syngo MR E11",
      "SpacingBetweenSlices": 1.9999999191058,
      "SpecificCharacterSet": "ISO_IR 100",
      "StudyID": "1",
      "StudyTime": "160347.144000",
      "TransmitCoilName": "Body",
      "VariableFlipAngleFlag": "N",
      "WindowCenterWidthExplanation": "Algo1",
      "dBdt": 0.0},
    "slices": {}
  },
  "time": {
    "samples": {
      "AcquisitionNumber": [1, 2, 3, 4, 5, 6, 7, 8, 9, 10, 11, 12, 13, 14, 15, 16, 17, 18, 19, 20, 21, 22, 23, 24, 25, 26, 27, 28, 29, 30, 31, 32, 33, 34, 35, 36, 37, 38, 39, 40, 41, 42, 43, 44, 45, 46, 47, 48, 49, 50, 51, 52, 53, 54, 55, 56, 57, 58, 59, 60, 61, 62, 63, 64, 65, 66, 67, 68, 69, 70, 71, 72, 73, 74, 75, 76, 77, 78, 79, 80, 81, 82, 83, 84, 85, 86, 87, 88, 89, 90, 91, 92, 93, 94, 95, 96, 97, 98, 99, 100, 101, 102, 103, 104, 105, 106, 107, 108, 109, 110, 111, 112, 113, 114, 115, 116, 117, 118, 119, 120, 121, 122, 123, 124, 125, 126, 127, 128, 129, 130, 131, 132, 133, 134, 135, 136, 137, 138, 139, 140, 141, 142, 143, 144, 145, 146, 147, 148, 149, 150, 151, 152, 153, 154, 155, 156, 157, 158, 159, 160, 161, 162, 163, 164, 165, 166, 167, 168, 169, 170, 171, 172, 173, 174, 175, 176, 177, 178, 179, 180, 181, 182, 183, 184, 185, 186, 187, 188, 189, 190, 191, 192, 193, 194, 195, 196, 197, 198, 199, 200, 201, 202, 203, 204, 205, 206, 207, 208, 209, 210, 211, 212, 213, 214, 215, 216, 217, 218, 219, 220, 221, 222, 223, 224, 225, 226, 227, 228, 229, 230, 231, 232, 233, 234, 235, 236, 237, 238, 239, 240, 241, 242, 243, 244, 245, 246, 247, 248, 249, 250, 251, 252, 253, 254, 255, 256, 257, 258, 259, 260, 261, 262, 263, 264, 265, 266, 267, 268, 269, 270, 271, 272, 273, 274, 275, 276, 277, 278, 279, 280, 281, 282, 283, 284, 285, 286, 287, 288, 289, 290, 291, 292, 293, 294, 295, 296, 297, 298, 299, 300],
      "AcquisitionTime": ["164715.975000", "164716.975000", "164717.975000", "164718.975000", "164719.975000", "164720.975000", "164721.975000", "164722.975000", "164723.975000", "164724.975000", "164725.975000", "164726.975000", "164727.975000", "164728.975000", "164729.975000", "164730.975000", "164731.975000", "164732.975000", "164733.975000", "164734.975000", "164735.975000", "164736.975000", "164737.975000", "164738.975000", "164739.975000", "164740.975000", "164741.975000", "164742.975000", "164743.975000", "164744.975000", "164745.975000", "164746.975000", "164747.975000", "164748.975000", "164749.975000", "164750.975000", "164751.975000", "164752.975000", "164753.975000", "164754.975000", "164755.975000", "164756.975000", "164757.975000", "164758.975000", "164759.975000", "164800.975000", "164801.975000", "164802.975000", "164803.975000", "164804.975000", "164805.975000", "164806.975000", "164807.975000", "164808.975000", "164809.975000", "164810.975000", "164811.975000", "164812.975000", "164813.975000", "164814.975000", "164815.975000", "164816.975000", "164817.975000", "164818.975000", "164819.975000", "164820.975000", "164821.975000", "164822.975000", "164823.975000", "164824.975000", "164825.975000", "164826.975000", "164827.975000", "164828.975000", "164829.975000", "164830.975000", "164831.975000", "164832.975000", "164833.975000", "164834.975000", "164835.975000", "164836.975000", "164837.975000", "164838.975000", "164839.975000", "164840.975000", "164841.975000", "164842.975000", "164843.975000", "164844.975000", "164845.975000", "164846.975000", "164847.975000", "164848.975000", "164849.975000", "164850.975000", "164851.975000", "164852.975000", "164853.975000", "164854.975000", "164855.975000", "164856.975000", "164857.975000", "164858.975000", "164859.975000", "164900.975000", "164901.975000", "164902.975000", "164903.975000", "164904.975000", "164905.975000", "164906.975000", "164907.975000", "164908.975000", "164909.975000", "164910.975000", "164911.975000", "164912.975000", "164913.975000", "164914.975000", "164915.975000", "164916.975000", "164917.975000", "164918.975000", "164919.975000", "164920.975000", "164921.975000", "164922.975000", "164923.975000", "164924.975000", "164925.975000", "164926.975000", "164927.975000", "164928.975000", "164929.975000", "164930.975000", "164931.975000", "164932.975000", "164933.975000", "164934.975000", "164935.975000", "164936.975000", "164937.975000", "164938.975000", "164939.975000", "164940.975000", "164941.975000", "164942.975000", "164943.975000", "164944.975000", "164945.975000", "164946.975000", "164947.975000", "164948.975000", "164949.975000", "164950.975000", "164951.975000", "164952.975000", "164953.975000", "164954.975000", "164955.975000", "164956.975000", "164957.975000", "164958.975000", "164959.975000", "165000.975000", "165001.975000", "165002.975000", "165003.975000", "165004.975000", "165005.975000", "165006.975000", "165007.975000", "165008.975000", "165009.975000", "165010.975000", "165011.975000", "165012.975000", "165013.975000", "165014.975000", "165015.975000", "165016.975000", "165017.975000", "165018.975000", "165019.975000", "165020.975000", "165021.975000", "165022.975000", "165023.975000", "165024.975000", "165025.975000", "165026.975000", "165027.975000", "165028.975000", "165029.975000", "165030.975000", "165031.975000", "165032.975000", "165033.975000", "165034.975000", "165035.975000", "165036.975000", "165037.975000", "165038.975000", "165039.975000", "165040.975000", "165041.975000", "165042.975000", "165043.975000", "165044.975000", "165045.975000", "165046.975000", "165047.975000", "165048.975000", "165049.975000", "165050.975000", "165051.975000", "165052.975000", "165053.975000", "165054.975000", "165055.975000", "165056.975000", "165057.975000", "165058.975000", "165059.975000", "165100.975000", "165101.975000", "165102.975000", "165103.975000", "165104.975000", "165105.975000", "165106.975000", "165107.975000", "165108.975000", "165109.975000", "165110.975000", "165111.975000", "165112.975000", "165113.975000", "165114.975000", "165115.975000", "165116.975000", "165117.975000", "165118.975000", "165119.975000", "165120.975000", "165121.975000", "165122.975000", "165123.975000", "165124.975000", "165125.975000", "165126.975000", "165127.975000", "165128.975000", "165129.975000", "165130.975000", "165131.975000", "165132.975000", "165133.975000", "165134.975000", "165135.975000", "165136.975000", "165137.975000", "165138.975000", "165139.975000", "165140.975000", "165141.975000", "165142.975000", "165143.975000", "165144.975000", "165145.975000", "165146.975000", "165147.975000", "165148.975000", "165149.975000", "165150.975000", "165151.975000", "165152.975000", "165153.975000", "165154.975000", "165155.975000", "165156.975000", "165157.975000", "165158.975000", "165159.975000", "165200.975000", "165201.975000", "165202.975000", "165203.975000", "165204.975000", "165205.975000", "165206.975000", "165207.975000", "165208.975000", "165209.975000", "165210.975000", "165211.975000", "165212.975000", "165213.975000", "165214.975000"],
      "ContentTime": ["164832.947000", "164832.951000", "164832.954000", "164832.957000", "164832.960000", "164832.963000", "164832.966000", "164832.969000", "164832.972000", "164832.975000", "164832.978000", "164832.982000", "164832.986000", "164832.989000", "164832.992000", "164832.996000", "164833.000000", "164833.003000", "164833.006000", "164833.009000", "164833.012000", "164833.015000", "164833.018000", "164833.021000", "164833.024000", "164833.027000", "164833.030000", "164833.033000", "164833.036000", "164833.039000", "164833.042000", "164833.051000", "164833.054000", "164833.057000", "164852.907000", "164852.923000", "164852.926000", "164852.940000", "164852.943000", "164852.946000", "164852.949000", "164852.952000", "164852.955000", "164852.958000", "164852.961000", "164852.964000", "164852.967000", "164852.970000", "164852.973000", "164852.976000", "164852.979000", "164852.982000", "164852.985000", "164852.988000", "164852.991000", "164852.994000", "164852.997000", "164853.001000", "164853.004000", "164853.007000", "164853.010000", "164853.013000", "164912.907000", "164912.910000", "164912.913000", "164912.916000", "164912.919000", "164912.922000", "164912.925000", "164912.928000", "164912.931000", "164912.935000", "164912.938000", "164912.941000", "164912.947000", "164912.950000", "164912.953000", "164912.956000", "164912.959000", "164912.962000", "164912.965000", "164912.968000", "164912.971000", "164912.974000", "164912.977000", "164912.980000", "164912.983000", "164912.986000", "164912.989000", "164912.993000", "164912.996000", "164932.907000", "164932.910000", "164932.913000", "164932.916000", "164932.919000", "164932.922000", "164932.925000", "164932.928000", "164932.931000", "164932.934000", "164932.937000", "164932.940000", "164932.943000", "164932.946000", "164932.949000", "164932.952000", "164932.955000", "164932.958000", "164932.961000", "164932.965000", "164932.968000", "164932.971000", "164932.974000", "164932.977000", "164932.980000", "164932.983000", "164932.986000", "164932.989000", "164952.908000", "164952.911000", "164952.914000", "164952.917000", "164952.920000", "164952.923000", "164952.926000", "164952.929000", "164952.932000", "164952.935000", "164952.938000", "164952.941000", "164952.944000", "164952.947000", "164952.951000", "164952.954000", "164952.957000", "164952.960000", "164952.963000", "164952.966000", "164952.969000", "164952.972000", "164952.975000", "164952.978000", "164952.981000", "164952.984000", "164952.987000", "164952.990000", "165012.908000", "165012.911000", "165012.914000", "165012.917000", "165012.920000", "165012.923000", "165012.926000", "165012.929000", "165012.932000", "165012.935000", "165012.939000", "165012.942000", "165012.945000", "165012.948000", "165012.951000", "165012.954000", "165012.957000", "165012.960000", "165012.963000", "165012.966000", "165012.969000", "165012.972000", "165012.975000", "165012.978000", "165012.981000", "165012.984000", "165012.987000", "165012.990000", "165012.993000", "165032.908000", "165032.911000", "165032.914000", "165032.917000", "165032.920000", "165032.923000", "165032.926000", "165032.929000", "165032.932000", "165032.935000", "165032.938000", "165032.941000", "165032.944000", "165032.948000", "165032.951000", "165032.954000", "165032.957000", "165032.960000", "165032.963000", "165032.966000", "165052.908000", "165052.911000", "165052.914000", "165052.917000", "165052.920000", "165052.923000", "165052.927000", "165052.930000", "165052.933000", "165052.936000", "165052.939000", "165052.942000", "165052.945000", "165052.948000", "165052.951000", "165052.954000", "165052.957000", "165052.964000", "165052.967000", "165052.970000", "165112.907000", "165112.910000", "165112.913000", "165112.916000", "165112.919000", "165112.922000", "165112.926000", "165112.929000", "165112.932000", "165112.935000", "165112.938000", "165112.941000", "165112.944000", "165112.947000", "165112.970000", "165112.973000", "165112.976000", "165112.979000", "165112.982000", "165112.985000", "165132.907000", "165132.910000", "165132.913000", "165132.916000", "165132.919000", "165132.922000", "165132.925000", "165132.928000", "165132.931000", "165132.934000", "165132.937000", "165132.940000", "165132.943000", "165132.947000", "165132.950000", "165132.953000", "165132.956000", "165132.959000", "165132.962000", "165132.965000", "165152.907000", "165152.910000", "165152.913000", "165152.916000", "165152.919000", "165152.922000", "165152.925000", "165152.928000", "165152.931000", "165152.934000", "165152.937000", "165152.941000", "165152.944000", "165152.947000", "165152.950000", "165152.953000", "165152.956000", "165152.959000", "165152.962000", "165152.965000", "165212.908000", "165212.911000", "165212.914000", "165212.917000", "165212.920000", "165212.923000", "165212.926000", "165212.929000", "165212.932000", "165212.935000", "165212.939000", "165212.942000", "165212.945000", "165212.948000", "165212.951000", "165212.954000", "165212.957000", "165212.960000", "165212.963000", "165212.966000", "165216.835000", "165216.838000", "165216.841000", "165216.844000"],
      "InstanceCreationTime": ["164832.947000", "164832.951000", "164832.954000", "164832.957000", "164832.960000", "164832.963000", "164832.966000", "164832.969000", "164832.972000", "164832.975000", "164832.978000", "164832.982000", "164832.986000", "164832.989000", "164832.992000", "164832.996000", "164833.000000", "164833.003000", "164833.006000", "164833.009000", "164833.012000", "164833.015000", "164833.018000", "164833.021000", "164833.024000", "164833.027000", "164833.030000", "164833.033000", "164833.036000", "164833.039000", "164833.042000", "164833.051000", "164833.054000", "164833.057000", "164852.907000", "164852.923000", "164852.926000", "164852.940000", "164852.943000", "164852.946000", "164852.949000", "164852.952000", "164852.955000", "164852.958000", "164852.961000", "164852.964000", "164852.967000", "164852.970000", "164852.973000", "164852.976000", "164852.979000", "164852.982000", "164852.985000", "164852.988000", "164852.991000", "164852.994000", "164852.997000", "164853.001000", "164853.004000", "164853.007000", "164853.010000", "164853.013000", "164912.907000", "164912.910000", "164912.913000", "164912.916000", "164912.919000", "164912.922000", "164912.925000", "164912.928000", "164912.931000", "164912.935000", "164912.938000", "164912.941000", "164912.947000", "164912.950000", "164912.953000", "164912.956000", "164912.959000", "164912.962000", "164912.965000", "164912.968000", "164912.971000", "164912.974000", "164912.977000", "164912.980000", "164912.983000", "164912.986000", "164912.989000", "164912.993000", "164912.996000", "164932.907000", "164932.910000", "164932.913000", "164932.916000", "164932.919000", "164932.922000", "164932.925000", "164932.928000", "164932.931000", "164932.934000", "164932.937000", "164932.940000", "164932.943000", "164932.946000", "164932.949000", "164932.952000", "164932.955000", "164932.958000", "164932.961000", "164932.965000", "164932.968000", "164932.971000", "164932.974000", "164932.977000", "164932.980000", "164932.983000", "164932.986000", "164932.989000", "164952.908000", "164952.911000", "164952.914000", "164952.917000", "164952.920000", "164952.923000", "164952.926000", "164952.929000", "164952.932000", "164952.935000", "164952.938000", "164952.941000", "164952.944000", "164952.947000", "164952.951000", "164952.954000", "164952.957000", "164952.960000", "164952.963000", "164952.966000", "164952.969000", "164952.972000", "164952.975000", "164952.978000", "164952.981000", "164952.984000", "164952.987000", "164952.990000", "165012.908000", "165012.911000", "165012.914000", "165012.917000", "165012.920000", "165012.923000", "165012.926000", "165012.929000", "165012.932000", "165012.935000", "165012.939000", "165012.942000", "165012.945000", "165012.948000", "165012.951000", "165012.954000", "165012.957000", "165012.960000", "165012.963000", "165012.966000", "165012.969000", "165012.972000", "165012.975000", "165012.978000", "165012.981000", "165012.984000", "165012.987000", "165012.990000", "165012.993000", "165032.908000", "165032.911000", "165032.914000", "165032.917000", "165032.920000", "165032.923000", "165032.926000", "165032.929000", "165032.932000", "165032.935000", "165032.938000", "165032.941000", "165032.944000", "165032.948000", "165032.951000", "165032.954000", "165032.957000", "165032.960000", "165032.963000", "165032.966000", "165052.908000", "165052.911000", "165052.914000", "165052.917000", "165052.920000", "165052.923000", "165052.927000", "165052.930000", "165052.933000", "165052.936000", "165052.939000", "165052.942000", "165052.945000", "165052.948000", "165052.951000", "165052.954000", "165052.957000", "165052.964000", "165052.967000", "165052.970000", "165112.907000", "165112.910000", "165112.913000", "165112.916000", "165112.919000", "165112.922000", "165112.926000", "165112.929000", "165112.932000", "165112.935000", "165112.938000", "165112.941000", "165112.944000", "165112.947000", "165112.970000", "165112.973000", "165112.976000", "165112.979000", "165112.982000", "165112.985000", "165132.907000", "165132.910000", "165132.913000", "165132.916000", "165132.919000", "165132.922000", "165132.925000", "165132.928000", "165132.931000", "165132.934000", "165132.937000", "165132.940000", "165132.943000", "165132.947000", "165132.950000", "165132.953000", "165132.956000", "165132.959000", "165132.962000", "165132.965000", "165152.907000", "165152.910000", "165152.913000", "165152.916000", "165152.919000", "165152.922000", "165152.925000", "165152.928000", "165152.931000", "165152.934000", "165152.937000", "165152.941000", "165152.944000", "165152.947000", "165152.950000", "165152.953000", "165152.956000", "165152.959000", "165152.962000", "165152.965000", "165212.908000", "165212.911000", "165212.914000", "165212.917000", "165212.920000", "165212.923000", "165212.926000", "165212.929000", "165212.932000", "165212.935000", "165212.939000", "165212.942000", "165212.945000", "165212.948000", "165212.951000", "165212.954000", "165212.957000", "165212.960000", "165212.963000", "165212.966000", "165216.835000", "165216.838000", "165216.841000", "165216.844000"],
      "InstanceNumber": [1, 2, 3, 4, 5, 6, 7, 8, 9, 10, 11, 12, 13, 14, 15, 16, 17, 18, 19, 20, 21, 22, 23, 24, 25, 26, 27, 28, 29, 30, 31, 32, 33, 34, 35, 36, 37, 38, 39, 40, 41, 42, 43, 44, 45, 46, 47, 48, 49, 50, 51, 52, 53, 54, 55, 56, 57, 58, 59, 60, 61, 62, 63, 64, 65, 66, 67, 68, 69, 70, 71, 72, 73, 74, 75, 76, 77, 78, 79, 80, 81, 82, 83, 84, 85, 86, 87, 88, 89, 90, 91, 92, 93, 94, 95, 96, 97, 98, 99, 100, 101, 102, 103, 104, 105, 106, 107, 108, 109, 110, 111, 112, 113, 114, 115, 116, 117, 118, 119, 120, 121, 122, 123, 124, 125, 126, 127, 128, 129, 130, 131, 132, 133, 134, 135, 136, 137, 138, 139, 140, 141, 142, 143, 144, 145, 146, 147, 148, 149, 150, 151, 152, 153, 154, 155, 156, 157, 158, 159, 160, 161, 162, 163, 164, 165, 166, 167, 168, 169, 170, 171, 172, 173, 174, 175, 176, 177, 178, 179, 180, 181, 182, 183, 184, 185, 186, 187, 188, 189, 190, 191, 192, 193, 194, 195, 196, 197, 198, 199, 200, 201, 202, 203, 204, 205, 206, 207, 208, 209, 210, 211, 212, 213, 214, 215, 216, 217, 218, 219, 220, 221, 222, 223, 224, 225, 226, 227, 228, 229, 230, 231, 232, 233, 234, 235, 236, 237, 238, 239, 240, 241, 242, 243, 244, 245, 246, 247, 248, 249, 250, 251, 252, 253, 254, 255, 256, 257, 258, 259, 260, 261, 262, 263, 264, 265, 266, 267, 268, 269, 270, 271, 272, 273, 274, 275, 276, 277, 278, 279, 280, 281, 282, 283, 284, 285, 286, 287, 288, 289, 290, 291, 292, 293, 294, 295, 296, 297, 298, 299, 300],
      "LargestImagePixelValue": [36900, 36031, 35291, 34824, 35069, 34627, 34493, 34722, 34763, 34551, 34330, 35095, 34840, 34376, 34921, 35189, 34180, 34442, 34417, 34392, 33693, 33865, 34567, 34602, 34278, 34633, 34065, 33436, 34145, 34476, 33689, 33647, 34746, 33720, 34050, 34065, 33912, 33766, 34281, 34415, 34270, 34431, 33645, 33373, 34010, 34043, 33775, 34344, 34093, 33698, 33718, 33813, 33245, 33346, 33610, 33712, 33257, 33487, 33859, 33238, 33401, 33579, 33208, 33823, 34308, 34092, 33902, 34124, 33820, 33459, 34077, 33089, 33669, 33815, 33207, 33699, 33941, 33588, 34388, 34379, 33895, 34239, 34297, 33817, 33747, 34472, 33934, 33083, 33624, 33974, 33738, 34479, 34609, 33667, 34389, 33838, 34241, 34326, 34088, 33268, 33616, 33799, 34176, 33800, 34424, 34540, 34579, 34172, 34516, 34661, 34429, 34966, 35094, 34160, 34374, 34647, 34175, 34545, 34413, 33839, 34511, 34114, 33824, 33889, 33382, 34271, 34058, 33452, 33413, 33740, 34674, 34619, 33812, 34266, 34141, 34102, 33526, 33896, 33945, 33380, 33539, 33757, 33814, 33879, 34079, 34079, 34362, 34849, 33827, 34407, 34932, 34664, 33866, 33976, 34278, 33587, 33764, 34080, 33264, 33001, 33468, 33936, 33261, 33496, 34105, 33390, 34305, 34085, 33322, 34070, 33655, 32311, 31893, 32000, 31343, 31849, 32487, 32047, 32247, 32402, 32782, 32005, 32494, 31774, 31723, 32048, 31965, 31835, 32138, 32159, 31924, 31459, 31957, 32073, 31471, 32173, 32130, 31741, 32019, 31932, 31632, 31987, 32710, 32832, 31705, 32358, 32440, 31411, 32217, 32179, 32265, 32673, 32052, 32080, 31676, 31978, 31824, 31647, 31964, 31922, 32171, 31896, 31855, 31744, 31624, 31803, 31689, 32065, 31908, 32169, 32027, 32140, 31921, 32355, 32757, 32795, 32177, 32091, 32216, 32058, 32559, 32418, 32392, 32136, 32413, 32141, 32246, 32225, 32127, 32419, 32298, 32229, 32027, 32125, 31962, 32108, 32185, 32476, 32312, 31625, 31880, 32513, 31796, 32141, 32625, 32325, 32425, 32417, 32029, 32678, 32114, 32154, 32045, 32277, 32100, 31996, 31976, 31780, 32126, 32468, 32324, 32299, 32161, 32013, 31992, 31938, 31797, 31943, 31955, 32159, 32473, 32073, 32350, 32000, 32034, 31847, 31878, 31901, 32316, 31862],
      "WindowCenter": [9433.0, 9405.0, 9382.0, 9374.0, 9372.0, 9370.0, 9367.0, 9372.0, 9373.0, 9374.0, 9366.0, 9371.0, 9370.0, 9350.0, 9354.0, 9366.0, 9350.0, 9347.0, 9353.0, 9350.0, 9336.0, 9349.0, 9363.0, 9365.0, 9357.0, 9363.0, 9359.0, 9348.0, 9362.0, 9362.0, 9352.0, 9344.0, 9368.0, 9352.0, 9348.0, 9343.0, 9350.0, 9349.0, 9355.0, 9354.0, 9341.0, 9352.0, 9334.0, 9335.0, 9349.0, 9352.0, 9350.0, 9350.0, 9350.0, 9336.0, 9336.0, 9341.0, 9335.0, 9333.0, 9334.0, 9336.0, 9328.0, 9334.0, 9340.0, 9329.0, 9335.0, 9335.0, 9336.0, 9341.0, 9341.0, 9348.0, 9334.0, 9332.0, 9327.0, 9325.0, 9325.0, 9320.0, 9326.0, 9332.0, 9328.0, 9327.0, 9333.0, 9329.0, 9340.0, 9334.0, 9326.0, 9339.0, 9333.0, 9332.0, 9320.0, 9338.0, 9332.0, 9313.0, 9326.0, 9340.0, 9335.0, 9346.0, 9348.0, 9342.0, 9349.0, 9337.0, 9342.0, 9340.0, 9334.0, 9320.0, 9326.0, 9333.0, 9339.0, 9334.0, 9347.0, 9347.0, 9354.0, 9349.0, 9356.0, 9371.0, 9375.0, 9381.0, 9373.0, 9359.0, 9350.0, 9341.0, 9334.0, 9338.0, 9337.0, 9318.0, 9326.0, 9323.0, 9322.0, 9321.0, 9311.0, 9321.0, 9316.0, 9310.0, 9318.0, 9324.0, 9338.0, 9338.0, 9335.0, 9334.0, 9340.0, 9333.0, 9326.0, 9326.0, 9326.0, 9312.0, 9324.0, 9328.0, 9339.0, 9336.0, 9343.0, 9338.0, 9341.0, 9347.0, 9335.0, 9345.0, 9342.0, 9330.0, 9324.0, 9325.0, 9340.0, 9336.0, 9328.0, 9332.0, 9320.0, 9312.0, 9326.0, 9333.0, 9323.0, 9329.0, 9341.0, 9330.0, 9345.0, 9342.0, 9331.0, 9335.0, 9328.0, 9308.0, 9294.0, 9298.0, 9287.0, 9291.0, 9304.0, 9293.0, 9284.0, 9281.0, 9281.0, 9274.0, 9286.0, 9285.0, 9284.0, 9299.0, 9294.0, 9294.0, 9294.0, 9292.0, 9292.0, 9278.0, 9291.0, 9293.0, 9288.0, 9307.0, 9296.0, 9294.0, 9293.0, 9293.0, 9296.0, 9301.0, 9323.0, 9332.0, 9316.0, 9327.0, 9327.0, 9308.0, 9309.0, 9306.0, 9302.0, 9297.0, 9293.0, 9300.0, 9287.0, 9286.0, 9288.0, 9289.0, 9296.0, 9304.0, 9310.0, 9305.0, 9303.0, 9304.0, 9308.0, 9312.0, 9307.0, 9321.0, 9315.0, 9326.0, 9321.0, 9312.0, 9311.0, 9317.0, 9316.0, 9315.0, 9309.0, 9303.0, 9308.0, 9310.0, 9309.0, 9306.0, 9301.0, 9301.0, 9297.0, 9283.0, 9289.0, 9282.0, 9282.0, 9291.0, 9291.0, 9298.0, 9301.0, 9301.0, 9302.0, 9303.0, 9310.0, 9310.0, 9311.0, 9305.0, 9312.0, 9328.0, 9316.0, 9315.0, 9325.0, 9319.0, 9318.0, 9312.0, 9311.0, 9315.0, 9295.0, 9293.0, 9285.0, 9290.0, 9284.0, 9283.0, 9285.0, 9284.0, 9291.0, 9292.0, 9285.0, 9282.0, 9281.0, 9276.0, 9276.0, 9283.0, 9285.0, 9292.0, 9294.0, 9296.0, 9307.0, 9301.0, 9301.0, 9295.0, 9295.0, 9302.0, 9303.0, 9295.0, 9299.0, 9288.0],
