{
  "AcquisitionMatrixPE": 104,
  "AcquisitionNumber": 1,
  "AcquisitionTime": "16:34:10.330000",
  "BandwidthPerPixelPhaseEncode": 16.297,
  "BaseResolution": 104,
  "BodyPartExamined": "BRAIN",
  "ConsistencyInfo": "N4_VE11C_LATEST_20160120",
  "ConversionSoftware": "dcm2niix",
  "ConversionSoftwareVersion": "v1.0.20210317",
  "DerivedVendorReportedEchoSpacing": 0.000590009,
  "DeviceSerialNumber": "166018",
  "DwellTime": 2.1e-06,
  "EchoTime": 0.0376,
  "EchoTrainLength": 104,
  "EffectiveEchoSpacing": 0.000590009,
  "FlipAngle": 68,
  "ImageComments": "Unaliased MB6/PE3/LB",
  "ImageOrientationPatientDICOM": [0.996978, -0.0776721, -0.0014418, 0.0767132, 0.987258, -0.139415],
  "ImageType": [
    "ORIGINAL",
    "PRIMARY",
    "M",
    "MB",
    "ND",
    "MOSAIC"
],
  "ImagingFrequency": 123.197,
  "InPlanePhaseEncodingDirectionDICOM": "COL",
  "InstitutionAddress": "Washington Place 6,NYC,NYC,US,10003",
  "InstitutionName": "NYU - CBI",
  "InstitutionalDepartmentName": "Department",
  "MRAcquisitionType": "2D",
  "MagneticFieldStrength": 3,
  "Manufacturer": "Siemens",
  "ManufacturersModelName": "Prisma",
  "Modality": "MR",
  "MultibandAccelerationFactor": 6,
  "PartialFourier": 1,
  "PatientPosition": "HFS",
  "PercentPhaseFOV": 100,
  "PercentSampling": 100,
  "PhaseEncodingDirection": "j",
  "PhaseEncodingSteps": 104,
  "PhaseResolution": 1,
  "PixelBandwidth": 2290,
  "ProcedureStepDescription": "Investigators^Winawer",
  "ProtocolName": "cmrr_mbepi_s6_2mm_66sl_PA_task-wedgering2",
  "PulseSequenceDetails": "%CustomerSeq%\\cmrr_mbep2d_bold",
  "ReceiveCoilActiveElements": "HC1-7",
  "ReceiveCoilName": "HeadNeck_64",
  "ReconMatrixPE": 104,
  "RepetitionTime": 1,
  "SAR": 0.0685779,
  "ScanOptions": "FS",
  "ScanningSequence": "EP",
  "SequenceName": "epfid2d1_104",
  "SequenceVariant": "SK\\SS",
  "SeriesDescription": "cmrr_mbepi_s6_2mm_66sl_PA_task-wedgering2",
  "SeriesNumber": 14,
  "ShimSetting": [276, -12645, -8504, 317, -20, -60, -113, 21],
  "SliceThickness": 2,
  "SliceTiming": [0, 0.535, 0.09, 0.625, 0.1775, 0.7125, 0.2675, 0.8025, 0.3575, 0.8925, 0.445, 0, 0.535, 0.09, 0.625, 0.1775, 0.7125, 0.2675, 0.8025, 0.3575, 0.8925, 0.445, 0, 0.535, 0.09, 0.625, 0.1775, 0.7125, 0.2675, 0.8025, 0.3575, 0.8925, 0.445, 0, 0.535, 0.09, 0.625, 0.1775, 0.7125, 0.2675, 0.8025, 0.3575, 0.8925, 0.445, 0, 0.535, 0.09, 0.625, 0.1775, 0.7125, 0.2675, 0.8025, 0.3575, 0.8925, 0.445, 0, 0.535, 0.09, 0.625, 0.1775, 0.7125, 0.2675, 0.8025, 0.3575, 0.8925, 0.445],
  "SoftwareVersions": "syngo MR E11",
  "SpacingBetweenSlices": 2,
  "StationName": "AWP166018",
  "TaskName": "wedgering2",
  "TotalReadoutTime": 0.060771,
  "TxRefAmp": 212.527,
  "VendorReportedEchoSpacing": 0.00059,
  "WipMemBlock": "ed1b7714-027a-4faf-81fa-ded9535620b8||Sequence: R016 ve11c/master r/8780670; Nov 27 2017 15:05:12 by eja",
  "dcmmeta_affine": [
    [-1.9939558506011963, 0.15342645347118378, -0.024504221975803375, 100.53018951416016],
    [0.1553441882133484, 1.9745161533355713, -0.27776673436164856, -88.080322265625],
    [-0.0028836082201451063, 0.2788306176662445, 1.9804657697677612, -52.53673553466797],
    [0.0, 0.0, 0.0, 1.0]
],
  "dcmmeta_reorient_transform": [
    [0.0, -1.0, 0.0, 103.0],
    [1.0, 0.0, 0.0, 0.0],
    [0.0, 0.0, 1.0, 0.0],
    [0.0, 0.0, 0.0, 1.0]
],
  "dcmmeta_shape": [104, 104, 66, 300],
  "dcmmeta_slice_dim": 2,
  "dcmmeta_version": 0.6,
  "global": {
    "const": {
      "AccessionNumber": "Leq8514L",
      "AcquisitionMatrix": [104, 0, 0, 104],
      "AngioFlag": "N",
      "BitsAllocated": 16,
      "BitsStored": 16,
      "BodyPartExamined": "BRAIN",
      "Columns": 936,
      "EchoNumbers": 1,
      "EchoTime": 37.6,
      "EchoTrainLength": 104,
      "FlipAngle": 68.0,
      "HighBit": 15,
      "ImageOrientationPatient": [0.99697791698651, -0.0776720943596, -0.0014418040916, 0.07671322448522, 0.98725804858317, -0.1394153029507],
      "ImagePositionPatient": [-1009.6441422165, -872.07035201801, 93.375928339075],
      "ImageType": [
        "ORIGINAL",
        "PRIMARY",
        "M",
        "MB",
        "ND",
        "MOSAIC"
],
      "ImagedNucleus": "1H",
      "ImagingFrequency": 123.196834,
      "InPlanePhaseEncodingDirection": "COL",
      "MRAcquisitionType": "2D",
      "MagneticFieldStrength": 3.0,
      "Manufacturer": "SIEMENS",
      "ManufacturerModelName": "Prisma",
      "Modality": "MR",
      "NumberOfAverages": 1.0,
      "NumberOfPhaseEncodingSteps": 104,
      "PercentPhaseFieldOfView": 100.0,
      "PercentSampling": 100.0,
      "PerformedProcedureStepStartTime": "160347.264000",
      "PhotometricInterpretation": "MONOCHROME2",
      "PixelBandwidth": 2290.0,
      "PixelRepresentation": 0,
      "PixelSpacing": [2.0, 2.0],
      "ProtocolName": "cmrr_mbepi_s6_2mm_66sl_PA_task-wedgering2",
      "RepetitionTime": 1000.0,
      "Rows": 936,
      "SAR": 0.0685779096982,
      "SamplesPerPixel": 1,
      "ScanOptions": "FS",
      "ScanningSequence": "EP",
      "SequenceName": "epfid2d1_104",
      "SequenceVariant": [
        "SK",
        "SS"
],
      "SeriesDescription": "cmrr_mbepi_s6_2mm_66sl_PA_task-wedgering2",
      "SeriesNumber": 14,
      "SeriesTime": "163533.007000",
      "SliceLocation": -41.022423307457,
      "SliceThickness": 2.0,
      "SmallestImagePixelValue": 0,
      "SoftwareVersions": "syngo MR E11",
      "SpacingBetweenSlices": 1.9999999191058,
      "SpecificCharacterSet": "ISO_IR 100",
      "StudyID": "1",
      "StudyTime": "160347.144000",
      "TransmitCoilName": "Body",
      "VariableFlipAngleFlag": "N",
      "WindowCenterWidthExplanation": "Algo1",
      "dBdt": 0.0},
    "slices": {}
  },
  "time": {
    "samples": {
      "AcquisitionNumber": [1, 2, 3, 4, 5, 6, 7, 8, 9, 10, 11, 12, 13, 14, 15, 16, 17, 18, 19, 20, 21, 22, 23, 24, 25, 26, 27, 28, 29, 30, 31, 32, 33, 34, 35, 36, 37, 38, 39, 40, 41, 42, 43, 44, 45, 46, 47, 48, 49, 50, 51, 52, 53, 54, 55, 56, 57, 58, 59, 60, 61, 62, 63, 64, 65, 66, 67, 68, 69, 70, 71, 72, 73, 74, 75, 76, 77, 78, 79, 80, 81, 82, 83, 84, 85, 86, 87, 88, 89, 90, 91, 92, 93, 94, 95, 96, 97, 98, 99, 100, 101, 102, 103, 104, 105, 106, 107, 108, 109, 110, 111, 112, 113, 114, 115, 116, 117, 118, 119, 120, 121, 122, 123, 124, 125, 126, 127, 128, 129, 130, 131, 132, 133, 134, 135, 136, 137, 138, 139, 140, 141, 142, 143, 144, 145, 146, 147, 148, 149, 150, 151, 152, 153, 154, 155, 156, 157, 158, 159, 160, 161, 162, 163, 164, 165, 166, 167, 168, 169, 170, 171, 172, 173, 174, 175, 176, 177, 178, 179, 180, 181, 182, 183, 184, 185, 186, 187, 188, 189, 190, 191, 192, 193, 194, 195, 196, 197, 198, 199, 200, 201, 202, 203, 204, 205, 206, 207, 208, 209, 210, 211, 212, 213, 214, 215, 216, 217, 218, 219, 220, 221, 222, 223, 224, 225, 226, 227, 228, 229, 230, 231, 232, 233, 234, 235, 236, 237, 238, 239, 240, 241, 242, 243, 244, 245, 246, 247, 248, 249, 250, 251, 252, 253, 254, 255, 256, 257, 258, 259, 260, 261, 262, 263, 264, 265, 266, 267, 268, 269, 270, 271, 272, 273, 274, 275, 276, 277, 278, 279, 280, 281, 282, 283, 284, 285, 286, 287, 288, 289, 290, 291, 292, 293, 294, 295, 296, 297, 298, 299, 300],
      "AcquisitionTime": ["163410.330000", "163411.330000", "163412.330000", "163413.330000", "163414.330000", "163415.330000", "163416.330000", "163417.330000", "163418.330000", "163419.330000", "163420.330000", "163421.330000", "163422.330000", "163423.330000", "163424.330000", "163425.330000", "163426.330000", "163427.330000", "163428.330000", "163429.330000", "163430.330000", "163431.330000", "163432.330000", "163433.330000", "163434.330000", "163435.330000", "163436.330000", "163437.330000", "163438.330000", "163439.330000", "163440.330000", "163441.330000", "163442.330000", "163443.330000", "163444.330000", "163445.330000", "163446.330000", "163447.330000", "163448.330000", "163449.330000", "163450.330000", "163451.330000", "163452.330000", "163453.330000", "163454.330000", "163455.330000", "163456.330000", "163457.330000", "163458.330000", "163459.330000", "163500.330000", "163501.330000", "163502.330000", "163503.330000", "163504.330000", "163505.330000", "163506.330000", "163507.330000", "163508.330000", "163509.330000", "163510.330000", "163511.330000", "163512.330000", "163513.330000", "163514.330000", "163515.330000", "163516.330000", "163517.330000", "163518.330000", "163519.330000", "163520.330000", "163521.330000", "163522.330000", "163523.330000", "163524.330000", "163525.330000", "163526.330000", "163527.330000", "163528.330000", "163529.330000", "163530.330000", "163531.330000", "163532.330000", "163533.330000", "163534.330000", "163535.330000", "163536.330000", "163537.330000", "163538.330000", "163539.330000", "163540.330000", "163541.330000", "163542.330000", "163543.330000", "163544.330000", "163545.330000", "163546.330000", "163547.330000", "163548.330000", "163549.330000", "163550.330000", "163551.330000", "163552.330000", "163553.330000", "163554.330000", "163555.330000", "163556.330000", "163557.330000", "163558.330000", "163559.330000", "163600.330000", "163601.330000", "163602.330000", "163603.330000", "163604.330000", "163605.330000", "163606.330000", "163607.330000", "163608.330000", "163609.330000", "163610.330000", "163611.330000", "163612.330000", "163613.330000", "163614.330000", "163615.330000", "163616.330000", "163617.330000", "163618.330000", "163619.330000", "163620.330000", "163621.330000", "163622.330000", "163623.330000", "163624.330000", "163625.330000", "163626.330000", "163627.330000", "163628.330000", "163629.330000", "163630.330000", "163631.330000", "163632.330000", "163633.330000", "163634.330000", "163635.330000", "163636.330000", "163637.330000", "163638.330000", "163639.330000", "163640.330000", "163641.330000", "163642.330000", "163643.330000", "163644.330000", "163645.330000", "163646.330000", "163647.330000", "163648.330000", "163649.330000", "163650.330000", "163651.330000", "163652.330000", "163653.330000", "163654.330000", "163655.330000", "163656.330000", "163657.330000", "163658.330000", "163659.330000", "163700.330000", "163701.330000", "163702.330000", "163703.330000", "163704.330000", "163705.330000", "163706.330000", "163707.330000", "163708.330000", "163709.330000", "163710.330000", "163711.330000", "163712.330000", "163713.330000", "163714.330000", "163715.330000", "163716.330000", "163717.330000", "163718.330000", "163719.330000", "163720.330000", "163721.330000", "163722.330000", "163723.330000", "163724.330000", "163725.330000", "163726.330000", "163727.330000", "163728.330000", "163729.330000", "163730.330000", "163731.330000", "163732.330000", "163733.330000", "163734.330000", "163735.330000", "163736.330000", "163737.330000", "163738.330000", "163739.330000", "163740.330000", "163741.330000", "163742.330000", "163743.330000", "163744.330000", "163745.330000", "163746.330000", "163747.330000", "163748.330000", "163749.330000", "163750.330000", "163751.330000", "163752.330000", "163753.330000", "163754.330000", "163755.330000", "163756.330000", "163757.330000", "163758.330000", "163759.330000", "163800.330000", "163801.330000", "163802.330000", "163803.330000", "163804.330000", "163805.330000", "163806.330000", "163807.330000", "163808.330000", "163809.330000", "163810.330000", "163811.330000", "163812.330000", "163813.330000", "163814.330000", "163815.330000", "163816.330000", "163817.330000", "163818.330000", "163819.330000", "163820.330000", "163821.330000", "163822.330000", "163823.330000", "163824.330000", "163825.330000", "163826.330000", "163827.330000", "163828.330000", "163829.330000", "163830.330000", "163831.330000", "163832.330000", "163833.330000", "163834.330000", "163835.330000", "163836.330000", "163837.330000", "163838.330000", "163839.330000", "163840.330000", "163841.330000", "163842.330000", "163843.330000", "163844.330000", "163845.330000", "163846.330000", "163847.330000", "163848.330000", "163849.330000", "163850.330000", "163851.330000", "163852.330000", "163853.330000", "163854.330000", "163855.330000", "163856.330000", "163857.330000", "163858.330000", "163859.330000", "163900.330000", "163901.330000", "163902.330000", "163903.330000", "163904.330000", "163905.330000", "163906.330000", "163907.330000", "163908.330000", "163909.330000"],
      "ContentTime": ["163533.010000", "163533.013000", "163533.016000", "163533.019000", "163533.022000", "163533.025000", "163533.029000", "163533.032000", "163533.035000", "163533.038000", "163533.041000", "163533.044000", "163533.063000", "163533.066000", "163533.069000", "163533.072000", "163533.075000", "163533.078000", "163533.081000", "163533.084000", "163533.087000", "163533.090000", "163533.093000", "163533.096000", "163533.099000", "163533.102000", "163533.105000", "163533.108000", "163533.111000", "163533.114000", "163533.117000", "163533.120000", "163533.123000", "163533.126000", "163533.129000", "163533.132000", "163533.135000", "163533.138000", "163533.141000", "163533.144000", "163533.147000", "163533.150000", "163533.153000", "163533.156000", "163533.224000", "163552.981000", "163552.990000", "163552.993000", "163552.996000", "163552.999000", "163553.002000", "163553.005000", "163553.008000", "163553.011000", "163553.014000", "163553.017000", "163553.020000", "163553.023000", "163553.026000", "163553.029000", "163553.032000", "163553.035000", "163553.038000", "163553.041000", "163553.043000", "163553.046000", "163553.049000", "163553.052000", "163553.055000", "163553.058000", "163553.061000", "163553.064000", "163553.067000", "163612.981000", "163612.984000", "163612.987000", "163612.990000", "163612.993000", "163612.996000", "163613.000000", "163613.003000", "163613.006000", "163613.009000", "163613.012000", "163613.015000", "163613.018000", "163613.021000", "163613.024000", "163613.027000", "163613.030000", "163613.033000", "163613.036000", "163613.039000", "163613.042000", "163613.045000", "163613.048000", "163613.052000", "163613.055000", "163613.058000", "163613.061000", "163613.064000", "163613.067000", "163632.981000", "163632.984000", "163632.987000", "163632.990000", "163632.993000", "163632.996000", "163633.000000", "163633.003000", "163633.006000", "163633.009000", "163633.012000", "163633.015000", "163633.018000", "163633.021000", "163633.024000", "163633.028000", "163633.031000", "163633.034000", "163633.037000", "163633.040000", "163633.043000", "163633.046000", "163633.049000", "163633.052000", "163633.055000", "163633.058000", "163633.061000", "163633.064000", "163652.981000", "163652.984000", "163652.998000", "163653.002000", "163653.005000", "163653.008000", "163653.011000", "163653.014000", "163653.017000", "163653.020000", "163653.023000", "163653.026000", "163653.029000", "163653.032000", "163653.035000", "163653.038000", "163653.041000", "163653.044000", "163653.047000", "163653.050000", "163653.053000", "163653.056000", "163653.059000", "163653.062000", "163653.065000", "163653.070000", "163653.074000", "163653.079000", "163712.980000", "163712.983000", "163712.986000", "163712.989000", "163712.992000", "163712.995000", "163712.998000", "163713.002000", "163713.005000", "163713.008000", "163713.011000", "163713.014000", "163713.017000", "163713.020000", "163713.023000", "163713.026000", "163713.029000", "163713.032000", "163713.035000", "163713.038000", "163713.041000", "163713.044000", "163713.047000", "163732.980000", "163732.983000", "163732.986000", "163732.989000", "163732.992000", "163732.995000", "163732.998000", "163733.002000", "163733.005000", "163733.008000", "163733.011000", "163733.014000", "163733.017000", "163733.020000", "163733.023000", "163733.026000", "163733.029000", "163733.032000", "163733.035000", "163733.038000", "163752.980000", "163752.983000", "163752.986000", "163752.989000", "163752.992000", "163752.995000", "163753.007000", "163753.010000", "163753.013000", "163753.016000", "163753.019000", "163753.022000", "163753.025000", "163753.028000", "163753.031000", "163753.034000", "163753.038000", "163753.041000", "163753.044000", "163753.047000", "163812.981000", "163812.984000", "163812.987000", "163812.990000", "163812.993000", "163812.996000", "163812.999000", "163813.002000", "163813.005000", "163813.009000", "163813.012000", "163813.015000", "163813.018000", "163813.021000", "163813.024000", "163813.027000", "163813.030000", "163813.033000", "163813.036000", "163813.039000", "163832.981000", "163832.984000", "163832.987000", "163832.990000", "163832.993000", "163832.996000", "163833.000000", "163833.004000", "163833.007000", "163833.010000", "163833.013000", "163833.016000", "163833.019000", "163833.022000", "163833.025000", "163833.028000", "163833.031000", "163833.034000", "163833.037000", "163833.040000", "163852.981000", "163852.984000", "163852.987000", "163852.990000", "163852.993000", "163852.997000", "163853.001000", "163853.004000", "163853.007000", "163853.010000", "163853.013000", "163853.016000", "163853.019000", "163853.022000", "163853.025000", "163853.028000", "163853.031000", "163853.034000", "163853.037000", "163853.040000", "163911.455000", "163911.458000", "163911.461000", "163911.464000", "163911.467000", "163911.471000", "163911.474000", "163911.476000", "163911.479000", "163911.483000", "163911.486000", "163911.489000", "163911.492000", "163911.495000", "163911.498000", "163911.501000", "163911.504000", "163911.507000", "163911.510000"],
      "InstanceCreationTime": ["163533.010000", "163533.013000", "163533.016000", "163533.019000", "163533.022000", "163533.025000", "163533.029000", "163533.032000", "163533.035000", "163533.038000", "163533.041000", "163533.044000", "163533.063000", "163533.066000", "163533.069000", "163533.072000", "163533.075000", "163533.078000", "163533.081000", "163533.084000", "163533.087000", "163533.090000", "163533.093000", "163533.096000", "163533.099000", "163533.102000", "163533.105000", "163533.108000", "163533.111000", "163533.114000", "163533.117000", "163533.120000", "163533.123000", "163533.126000", "163533.129000", "163533.132000", "163533.135000", "163533.138000", "163533.141000", "163533.144000", "163533.147000", "163533.150000", "163533.153000", "163533.156000", "163533.224000", "163552.981000", "163552.990000", "163552.993000", "163552.996000", "163552.999000", "163553.002000", "163553.005000", "163553.008000", "163553.011000", "163553.014000", "163553.017000", "163553.020000", "163553.023000", "163553.026000", "163553.029000", "163553.032000", "163553.035000", "163553.038000", "163553.041000", "163553.043000", "163553.046000", "163553.049000", "163553.052000", "163553.055000", "163553.058000", "163553.061000", "163553.064000", "163553.067000", "163612.981000", "163612.984000", "163612.987000", "163612.990000", "163612.993000", "163612.996000", "163613.000000", "163613.003000", "163613.006000", "163613.009000", "163613.012000", "163613.015000", "163613.018000", "163613.021000", "163613.024000", "163613.027000", "163613.030000", "163613.033000", "163613.036000", "163613.039000", "163613.042000", "163613.045000", "163613.048000", "163613.052000", "163613.055000", "163613.058000", "163613.061000", "163613.064000", "163613.067000", "163632.981000", "163632.984000", "163632.987000", "163632.990000", "163632.993000", "163632.996000", "163633.000000", "163633.003000", "163633.006000", "163633.009000", "163633.012000", "163633.015000", "163633.018000", "163633.021000", "163633.024000", "163633.028000", "163633.031000", "163633.034000", "163633.037000", "163633.040000", "163633.043000", "163633.046000", "163633.049000", "163633.052000", "163633.055000", "163633.058000", "163633.061000", "163633.064000", "163652.981000", "163652.984000", "163652.998000", "163653.002000", "163653.005000", "163653.008000", "163653.011000", "163653.014000", "163653.017000", "163653.020000", "163653.023000", "163653.026000", "163653.029000", "163653.032000", "163653.035000", "163653.038000", "163653.041000", "163653.044000", "163653.047000", "163653.050000", "163653.053000", "163653.056000", "163653.059000", "163653.062000", "163653.065000", "163653.070000", "163653.074000", "163653.079000", "163712.980000", "163712.983000", "163712.986000", "163712.989000", "163712.992000", "163712.995000", "163712.998000", "163713.002000", "163713.005000", "163713.008000", "163713.011000", "163713.014000", "163713.017000", "163713.020000", "163713.023000", "163713.026000", "163713.029000", "163713.032000", "163713.035000", "163713.038000", "163713.041000", "163713.044000", "163713.047000", "163732.980000", "163732.983000", "163732.986000", "163732.989000", "163732.992000", "163732.995000", "163732.998000", "163733.002000", "163733.005000", "163733.008000", "163733.011000", "163733.014000", "163733.017000", "163733.020000", "163733.023000", "163733.026000", "163733.029000", "163733.032000", "163733.035000", "163733.038000", "163752.980000", "163752.983000", "163752.986000", "163752.989000", "163752.992000", "163752.995000", "163753.007000", "163753.010000", "163753.013000", "163753.016000", "163753.019000", "163753.022000", "163753.025000", "163753.028000", "163753.031000", "163753.034000", "163753.038000", "163753.041000", "163753.044000", "163753.047000", "163812.981000", "163812.984000", "163812.987000", "163812.990000", "163812.993000", "163812.996000", "163812.999000", "163813.002000", "163813.005000", "163813.009000", "163813.012000", "163813.015000", "163813.018000", "163813.021000", "163813.024000", "163813.027000", "163813.030000", "163813.033000", "163813.036000", "163813.039000", "163832.981000", "163832.984000", "163832.987000", "163832.990000", "163832.993000", "163832.996000", "163833.000000", "163833.004000", "163833.007000", "163833.010000", "163833.013000", "163833.016000", "163833.019000", "163833.022000", "163833.025000", "163833.028000", "163833.031000", "163833.034000", "163833.037000", "163833.040000", "163852.981000", "163852.984000", "163852.987000", "163852.990000", "163852.993000", "163852.997000", "163853.001000", "163853.004000", "163853.007000", "163853.010000", "163853.013000", "163853.016000", "163853.019000", "163853.022000", "163853.025000", "163853.028000", "163853.031000", "163853.034000", "163853.037000", "163853.040000", "163911.455000", "163911.458000", "163911.461000", "163911.464000", "163911.467000", "163911.471000", "163911.474000", "163911.476000", "163911.479000", "163911.483000", "163911.486000", "163911.489000", "163911.492000", "163911.495000", "163911.498000", "163911.501000", "163911.504000", "163911.507000", "163911.510000"],
      "InstanceNumber": [1, 2, 3, 4, 5, 6, 7, 8, 9, 10, 11, 12, 13, 14, 15, 16, 17, 18, 19, 20, 21, 22, 23, 24, 25, 26, 27, 28, 29, 30, 31, 32, 33, 34, 35, 36, 37, 38, 39, 40, 41, 42, 43, 44, 45, 46, 47, 48, 49, 50, 51, 52, 53, 54, 55, 56, 57, 58, 59, 60, 61, 62, 63, 64, 65, 66, 67, 68, 69, 70, 71, 72, 73, 74, 75, 76, 77, 78, 79, 80, 81, 82, 83, 84, 85, 86, 87, 88, 89, 90, 91, 92, 93, 94, 95, 96, 97, 98, 99, 100, 101, 102, 103, 104, 105, 106, 107, 108, 109, 110, 111, 112, 113, 114, 115, 116, 117, 118, 119, 120, 121, 122, 123, 124, 125, 126, 127, 128, 129, 130, 131, 132, 133, 134, 135, 136, 137, 138, 139, 140, 141, 142, 143, 144, 145, 146, 147, 148, 149, 150, 151, 152, 153, 154, 155, 156, 157, 158, 159, 160, 161, 162, 163, 164, 165, 166, 167, 168, 169, 170, 171, 172, 173, 174, 175, 176, 177, 178, 179, 180, 181, 182, 183, 184, 185, 186, 187, 188, 189, 190, 191, 192, 193, 194, 195, 196, 197, 198, 199, 200, 201, 202, 203, 204, 205, 206, 207, 208, 209, 210, 211, 212, 213, 214, 215, 216, 217, 218, 219, 220, 221, 222, 223, 224, 225, 226, 227, 228, 229, 230, 231, 232, 233, 234, 235, 236, 237, 238, 239, 240, 241, 242, 243, 244, 245, 246, 247, 248, 249, 250, 251, 252, 253, 254, 255, 256, 257, 258, 259, 260, 261, 262, 263, 264, 265, 266, 267, 268, 269, 270, 271, 272, 273, 274, 275, 276, 277, 278, 279, 280, 281, 282, 283, 284, 285, 286, 287, 288, 289, 290, 291, 292, 293, 294, 295, 296, 297, 298, 299, 300],
      "LargestImagePixelValue": [35002, 33114, 32502, 32295, 32436, 32006, 31867, 31842, 31717, 31836, 32085, 32025, 32365, 31974, 31977, 31595, 31729, 32003, 31663, 32083, 33005, 31725, 31794, 31934, 32053, 31880, 32014, 31921, 31491, 31925, 31791, 31899, 32290, 32271, 31953, 31722, 31840, 31762, 31887, 31771, 32064, 32168, 31777, 31891, 31889, 31957, 31996, 31767, 31928, 31750, 31779, 31975, 32657, 32326, 32250, 32366, 31737, 31931, 31928, 32562, 32177, 32358, 32321, 31843, 32200, 32252, 32109, 32499, 31852, 31809, 31781, 32100, 32188, 32270, 32421, 31723, 31580, 31876, 32074, 32688, 32376, 32267, 32304, 32211, 32214, 32602, 32730, 32768, 31960, 32257, 32053, 32195, 31958, 32589, 31814, 32622, 32565, 32389, 32482, 32777, 32517, 32276, 32244, 32579, 32348, 32763, 32725, 32151, 32155, 32648, 32221, 32558, 32740, 32392, 32108, 32348, 32483, 32220, 32524, 32841, 32477, 33058, 33090, 32699, 32275, 32900, 32737, 32537, 32521, 32755, 32193, 32073, 32626, 32442, 32214, 32529, 32804, 32353, 32037, 32615, 32516, 34193, 32979, 32976, 32237, 32673, 32528, 32366, 32943, 32874, 32241, 32356, 32054, 32300, 32834, 32216, 32578, 31962, 32140, 32109, 32637, 32113, 32347, 32649, 32034, 32112, 33232, 31883, 32237, 33086, 31694, 32281, 32091, 31856, 31915, 32140, 32153, 31838, 31763, 31818, 31991, 31765, 32123, 32335, 31959, 31834, 31963, 32042, 32002, 32078, 32126, 32343, 32236, 32103, 32443, 31997, 32068, 32565, 31987, 31625, 32382, 31808, 31887, 32268, 32472, 32452, 32438, 32310, 31943, 32366, 32375, 32252, 32274, 32215, 31704, 31635, 32409, 32060, 31943, 32218, 32090, 31837, 32332, 31984, 32390, 32646, 32139, 32674, 32292, 32208, 32419, 32546, 32108, 32613, 31995, 31834, 32361, 32356, 31944, 32502, 32707, 32228, 32609, 32267, 31956, 32394, 32324, 32088, 32686, 32475, 32246, 32495, 32520, 32274, 32795, 32527, 32555, 32767, 32148, 32381, 32621, 32125, 32453, 32695, 32280, 32449, 32670, 32587, 32319, 32284, 31670, 32010, 32438, 31761, 31804, 32179, 32007, 32120, 32261, 32012, 31902, 32085, 32199, 31773, 32436, 32402, 32242, 32695, 32182, 31830, 32437, 32098, 32172, 32399, 32224, 31944, 31966, 32540, 32142, 31992],
      "WindowCenter": [9371.0, 9323.0, 9312.0, 9304.0, 9304.0, 9304.0, 9310.0, 9309.0, 9296.0, 9297.0, 9297.0, 9296.0, 9302.0, 9293.0, 9291.0, 9279.0, 9279.0, 9285.0, 9279.0, 9291.0, 9296.0, 9283.0, 9278.0, 9284.0, 9292.0, 9293.0, 9295.0, 9300.0, 9296.0, 9303.0, 9295.0, 9294.0, 9293.0, 9292.0, 9292.0, 9287.0, 9293.0, 9289.0, 9293.0, 9285.0, 9284.0, 9284.0, 9278.0, 9283.0, 9277.0, 9278.0, 9277.0, 9278.0, 9278.0, 9285.0, 9286.0, 9293.0, 9299.0, 9293.0, 9293.0, 9300.0, 9295.0, 9300.0, 9296.0, 9306.0, 9301.0, 9299.0, 9292.0, 9286.0, 9283.0, 9283.0, 9285.0, 9299.0, 9294.0, 9296.0, 9290.0, 9295.0, 9302.0, 9300.0, 9300.0, 9297.0, 9297.0, 9304.0, 9306.0, 9315.0, 9310.0, 9311.0, 9308.0, 9309.0, 9303.0, 9292.0, 9284.0, 9291.0, 9278.0, 9284.0, 9285.0, 9294.0, 9294.0, 9301.0, 9291.0, 9300.0, 9299.0, 9294.0, 9298.0, 9299.0, 9300.0, 9295.0, 9302.0, 9308.0, 9302.0, 9305.0, 9307.0, 9303.0, 9303.0, 9301.0, 9303.0, 9301.0, 9301.0, 9297.0, 9297.0, 9304.0, 9317.0, 9304.0, 9317.0, 9316.0, 9295.0, 9297.0, 9296.0, 9291.0, 9292.0, 9297.0, 9291.0, 9294.0, 9293.0, 9301.0, 9303.0, 9297.0, 9301.0, 9298.0, 9305.0, 9309.0, 9315.0, 9305.0, 9297.0, 9301.0, 9300.0, 9326.0, 9308.0, 9308.0, 9304.0, 9316.0, 9316.0, 9305.0, 9308.0, 9309.0, 9303.0, 9296.0, 9297.0, 9312.0, 9316.0, 9303.0, 9310.0, 9298.0, 9298.0, 9304.0, 9303.0, 9290.0, 9296.0, 9295.0, 9282.0, 9287.0, 9312.0, 9289.0, 9295.0, 9301.0, 9290.0, 9295.0, 9288.0, 9288.0, 9289.0, 9289.0, 9287.0, 9282.0, 9288.0, 9288.0, 9289.0, 9282.0, 9283.0, 9285.0, 9281.0, 9274.0, 9279.0, 9278.0, 9279.0, 9279.0, 9286.0, 9286.0, 9294.0, 9290.0, 9296.0, 9292.0, 9290.0, 9302.0, 9290.0, 9289.0, 9303.0, 9293.0, 9289.0, 9295.0, 9288.0, 9287.0, 9292.0, 9295.0, 9295.0, 9301.0, 9294.0, 9296.0, 9288.0, 9287.0, 9280.0, 9274.0, 9288.0, 9281.0, 9281.0, 9290.0, 9289.0, 9289.0, 9310.0, 9300.0, 9304.0, 9305.0, 9298.0, 9304.0, 9297.0, 9305.0, 9304.0, 9295.0, 9288.0, 9294.0, 9273.0, 9273.0, 9279.0, 9277.0, 9278.0, 9292.0, 9285.0, 9279.0, 9291.0, 9286.0, 9287.0, 9295.0, 9294.0, 9281.0, 9284.0, 9278.0, 9278.0, 9291.0, 9285.0, 9287.0, 9301.0, 9301.0, 9296.0, 9301.0, 9288.0, 9295.0, 9300.0, 9289.0, 9295.0, 9300.0, 9288.0, 9293.0, 9293.0, 9292.0, 9280.0, 9277.0, 9265.0, 9270.0, 9283.0, 9272.0, 9272.0, 9285.0, 9270.0, 9269.0, 9268.0, 9262.0, 9261.0, 9276.0, 9275.0, 9265.0, 9285.0, 9278.0, 9285.0, 9286.0, 9279.0, 9272.0, 9278.0, 9271.0, 9278.0, 9285.0, 9287.0, 9278.0, 9272.0, 9276.0, 9263.0, 9263.0],
