{
  "AcquisitionMatrixPE": 104,
  "AcquisitionNumber": 1,
  "AcquisitionTime": "16:21:6.950000",
  "BandwidthPerPixelPhaseEncode": 16.297,
  "BaseResolution": 104,
  "BodyPartExamined": "BRAIN",
  "ConsistencyInfo": "N4_VE11C_LATEST_20160120",
  "ConversionSoftware": "dcm2niix",
  "ConversionSoftwareVersion": "v1.0.20210317",
  "DerivedVendorReportedEchoSpacing": 0.000590009,
  "DeviceSerialNumber": "166018",
  "DwellTime": 2.1e-06,
  "EchoTime": 0.0376,
  "EchoTrainLength": 104,
  "EffectiveEchoSpacing": 0.000590009,
  "FlipAngle": 68,
  "ImageComments": "Unaliased MB6/PE3/LB",
  "ImageOrientationPatientDICOM": [0.996978, -0.0776721, -0.0014418, 0.0767132, 0.987258, -0.139415],
  "ImageType": [
    "ORIGINAL",
    "PRIMARY",
    "M",
    "MB",
    "ND",
    "MOSAIC"
],
  "ImagingFrequency": 123.197,
  "InPlanePhaseEncodingDirectionDICOM": "COL",
  "InstitutionAddress": "Washington Place 6,NYC,NYC,US,10003",
  "InstitutionName": "NYU - CBI",
  "InstitutionalDepartmentName": "Department",
  "MRAcquisitionType": "2D",
  "MagneticFieldStrength": 3,
  "Manufacturer": "Siemens",
  "ManufacturersModelName": "Prisma",
  "Modality": "MR",
  "MultibandAccelerationFactor": 6,
  "PartialFourier": 1,
  "PatientPosition": "HFS",
  "PercentPhaseFOV": 100,
  "PercentSampling": 100,
  "PhaseEncodingDirection": "j",
  "PhaseEncodingSteps": 104,
  "PhaseResolution": 1,
  "PixelBandwidth": 2290,
  "ProcedureStepDescription": "Investigators^Winawer",
  "ProtocolName": "cmrr_mbepi_s6_2mm_66sl_PA_task-wedgering1",
  "PulseSequenceDetails": "%CustomerSeq%\\cmrr_mbep2d_bold",
  "ReceiveCoilActiveElements": "HC1-7",
  "ReceiveCoilName": "HeadNeck_64",
  "ReconMatrixPE": 104,
  "RepetitionTime": 1,
  "SAR": 0.0685779,
  "ScanOptions": "FS",
  "ScanningSequence": "EP",
  "SequenceName": "epfid2d1_104",
  "SequenceVariant": "SK\\SS",
  "SeriesDescription": "cmrr_mbepi_s6_2mm_66sl_PA_task-wedgering1",
  "SeriesNumber": 10,
  "ShimSetting": [276, -12645, -8504, 317, -20, -60, -113, 21],
  "SliceThickness": 2,
  "SliceTiming": [0, 0.535, 0.09, 0.6225, 0.1775, 0.7125, 0.2675, 0.8025, 0.3575, 0.89, 0.445, 0, 0.535, 0.09, 0.6225, 0.1775, 0.7125, 0.2675, 0.8025, 0.3575, 0.89, 0.445, 0, 0.535, 0.09, 0.6225, 0.1775, 0.7125, 0.2675, 0.8025, 0.3575, 0.89, 0.445, 0, 0.535, 0.09, 0.6225, 0.1775, 0.7125, 0.2675, 0.8025, 0.3575, 0.89, 0.445, 0, 0.535, 0.09, 0.6225, 0.1775, 0.7125, 0.2675, 0.8025, 0.3575, 0.89, 0.445, 0, 0.535, 0.09, 0.6225, 0.1775, 0.7125, 0.2675, 0.8025, 0.3575, 0.89, 0.445],
  "SoftwareVersions": "syngo MR E11",
  "SpacingBetweenSlices": 2,
  "StationName": "AWP166018",
  "TaskName": "wedgering1",
  "TotalReadoutTime": 0.060771,
  "TxRefAmp": 212.527,
  "VendorReportedEchoSpacing": 0.00059,
  "WipMemBlock": "8bccdeb2-ad6d-4a8e-809a-294384b589de||Sequence: R016 ve11c/master r/8780670; Nov 27 2017 15:05:12 by eja",
  "dcmmeta_affine": [
    [-1.9939558506011963, 0.15342645347118378, -0.024504221975803375, 100.53018951416016],
    [0.1553441882133484, 1.9745161533355713, -0.27776673436164856, -88.080322265625],
    [-0.0028836082201451063, 0.2788306176662445, 1.9804657697677612, -52.53673553466797],
    [0.0, 0.0, 0.0, 1.0]
],
  "dcmmeta_reorient_transform": [
    [0.0, -1.0, 0.0, 103.0],
    [1.0, 0.0, 0.0, 0.0],
    [0.0, 0.0, 1.0, 0.0],
    [0.0, 0.0, 0.0, 1.0]
],
  "dcmmeta_shape": [104, 104, 66, 300],
  "dcmmeta_slice_dim": 2,
  "dcmmeta_version": 0.6,
  "global": {
    "const": {
      "AccessionNumber": "Leq8514L",
      "AcquisitionMatrix": [104, 0, 0, 104],
      "AngioFlag": "N",
      "BitsAllocated": 16,
      "BitsStored": 16,
      "BodyPartExamined": "BRAIN",
      "Columns": 936,
      "EchoNumbers": 1,
      "EchoTime": 37.6,
      "EchoTrainLength": 104,
      "FlipAngle": 68.0,
      "HighBit": 15,
      "ImageOrientationPatient": [0.99697791698651, -0.0776720943596, -0.0014418040916, 0.07671322448522, 0.98725804858317, -0.1394153029507],
      "ImagePositionPatient": [-1009.6441422165, -872.07035201801, 93.375928339075],
      "ImageType": [
        "ORIGINAL",
        "PRIMARY",
        "M",
        "MB",
        "ND",
        "MOSAIC"
],
      "ImagedNucleus": "1H",
      "ImagingFrequency": 123.196828,
      "InPlanePhaseEncodingDirection": "COL",
      "MRAcquisitionType": "2D",
      "MagneticFieldStrength": 3.0,
      "Manufacturer": "SIEMENS",
      "ManufacturerModelName": "Prisma",
      "Modality": "MR",
      "NumberOfAverages": 1.0,
      "NumberOfPhaseEncodingSteps": 104,
      "PercentPhaseFieldOfView": 100.0,
      "PercentSampling": 100.0,
      "PerformedProcedureStepStartTime": "160347.264000",
      "PhotometricInterpretation": "MONOCHROME2",
      "PixelBandwidth": 2290.0,
      "PixelRepresentation": 0,
      "PixelSpacing": [2.0, 2.0],
      "ProtocolName": "cmrr_mbepi_s6_2mm_66sl_PA_task-wedgering1",
      "RepetitionTime": 1000.0,
      "Rows": 936,
      "SAR": 0.0685779096982,
      "SamplesPerPixel": 1,
      "ScanOptions": "FS",
      "ScanningSequence": "EP",
      "SequenceName": "epfid2d1_104",
      "SequenceVariant": [
        "SK",
        "SS"
],
      "SeriesDescription": "cmrr_mbepi_s6_2mm_66sl_PA_task-wedgering1",
      "SeriesNumber": 10,
      "SeriesTime": "162232.870000",
      "SliceLocation": -41.022423307457,
      "SliceThickness": 2.0,
      "SmallestImagePixelValue": 0,
      "SoftwareVersions": "syngo MR E11",
      "SpacingBetweenSlices": 1.9999999191058,
      "SpecificCharacterSet": "ISO_IR 100",
      "StudyID": "1",
      "StudyTime": "160347.144000",
      "TransmitCoilName": "Body",
      "VariableFlipAngleFlag": "N",
      "WindowCenterWidthExplanation": "Algo1",
      "dBdt": 0.0},
    "slices": {}
  },
  "time": {
    "samples": {
      "AcquisitionNumber": [1, 2, 3, 4, 5, 6, 7, 8, 9, 10, 11, 12, 13, 14, 15, 16, 17, 18, 19, 20, 21, 22, 23, 24, 25, 26, 27, 28, 29, 30, 31, 32, 33, 34, 35, 36, 37, 38, 39, 40, 41, 42, 43, 44, 45, 46, 47, 48, 49, 50, 51, 52, 53, 54, 55, 56, 57, 58, 59, 60, 61, 62, 63, 64, 65, 66, 67, 68, 69, 70, 71, 72, 73, 74, 75, 76, 77, 78, 79, 80, 81, 82, 83, 84, 85, 86, 87, 88, 89, 90, 91, 92, 93, 94, 95, 96, 97, 98, 99, 100, 101, 102, 103, 104, 105, 106, 107, 108, 109, 110, 111, 112, 113, 114, 115, 116, 117, 118, 119, 120, 121, 122, 123, 124, 125, 126, 127, 128, 129, 130, 131, 132, 133, 134, 135, 136, 137, 138, 139, 140, 141, 142, 143, 144, 145, 146, 147, 148, 149, 150, 151, 152, 153, 154, 155, 156, 157, 158, 159, 160, 161, 162, 163, 164, 165, 166, 167, 168, 169, 170, 171, 172, 173, 174, 175, 176, 177, 178, 179, 180, 181, 182, 183, 184, 185, 186, 187, 188, 189, 190, 191, 192, 193, 194, 195, 196, 197, 198, 199, 200, 201, 202, 203, 204, 205, 206, 207, 208, 209, 210, 211, 212, 213, 214, 215, 216, 217, 218, 219, 220, 221, 222, 223, 224, 225, 226, 227, 228, 229, 230, 231, 232, 233, 234, 235, 236, 237, 238, 239, 240, 241, 242, 243, 244, 245, 246, 247, 248, 249, 250, 251, 252, 253, 254, 255, 256, 257, 258, 259, 260, 261, 262, 263, 264, 265, 266, 267, 268, 269, 270, 271, 272, 273, 274, 275, 276, 277, 278, 279, 280, 281, 282, 283, 284, 285, 286, 287, 288, 289, 290, 291, 292, 293, 294, 295, 296, 297, 298, 299, 300],
      "AcquisitionTime": ["162106.950000", "162107.950000", "162108.950000", "162109.950000", "162110.950000", "162111.950000", "162112.950000", "162113.950000", "162114.950000", "162115.950000", "162116.950000", "162117.950000", "162118.950000", "162119.950000", "162120.950000", "162121.950000", "162122.950000", "162123.950000", "162124.950000", "162125.950000", "162126.950000", "162127.950000", "162128.950000", "162129.950000", "162130.950000", "162131.950000", "162132.950000", "162133.950000", "162134.950000", "162135.950000", "162136.950000", "162137.950000", "162138.950000", "162139.950000", "162140.950000", "162141.950000", "162142.950000", "162143.950000", "162144.950000", "162145.950000", "162146.950000", "162147.950000", "162148.950000", "162149.950000", "162150.950000", "162151.950000", "162152.950000", "162153.950000", "162154.950000", "162155.950000", "162156.950000", "162157.950000", "162158.950000", "162159.950000", "162200.950000", "162201.950000", "162202.950000", "162203.950000", "162204.950000", "162205.950000", "162206.950000", "162207.950000", "162208.950000", "162209.950000", "162210.950000", "162211.950000", "162212.950000", "162213.950000", "162214.950000", "162215.950000", "162216.950000", "162217.950000", "162218.950000", "162219.950000", "162220.950000", "162221.950000", "162222.950000", "162223.950000", "162224.950000", "162225.950000", "162226.950000", "162227.950000", "162228.950000", "162229.950000", "162230.950000", "162231.950000", "162232.950000", "162233.950000", "162234.950000", "162235.950000", "162236.950000", "162237.950000", "162238.950000", "162239.950000", "162240.950000", "162241.950000", "162242.950000", "162243.950000", "162244.950000", "162245.950000", "162246.950000", "162247.950000", "162248.950000", "162249.950000", "162250.950000", "162251.950000", "162252.950000", "162253.950000", "162254.950000", "162255.950000", "162256.950000", "162257.950000", "162258.950000", "162259.950000", "162300.950000", "162301.950000", "162302.950000", "162303.950000", "162304.950000", "162305.950000", "162306.950000", "162307.950000", "162308.950000", "162309.950000", "162310.950000", "162311.950000", "162312.950000", "162313.950000", "162314.950000", "162315.950000", "162316.950000", "162317.950000", "162318.950000", "162319.950000", "162320.950000", "162321.950000", "162322.950000", "162323.950000", "162324.950000", "162325.950000", "162326.950000", "162327.950000", "162328.950000", "162329.950000", "162330.950000", "162331.950000", "162332.950000", "162333.950000", "162334.950000", "162335.950000", "162336.950000", "162337.950000", "162338.950000", "162339.950000", "162340.950000", "162341.950000", "162342.950000", "162343.950000", "162344.950000", "162345.950000", "162346.950000", "162347.950000", "162348.950000", "162349.950000", "162350.950000", "162351.950000", "162352.950000", "162353.950000", "162354.950000", "162355.950000", "162356.950000", "162357.950000", "162358.950000", "162359.950000", "162400.950000", "162401.950000", "162402.950000", "162403.950000", "162404.950000", "162405.950000", "162406.950000", "162407.950000", "162408.950000", "162409.950000", "162410.950000", "162411.950000", "162412.950000", "162413.950000", "162414.950000", "162415.950000", "162416.950000", "162417.950000", "162418.950000", "162419.950000", "162420.950000", "162421.950000", "162422.950000", "162423.950000", "162424.950000", "162425.950000", "162426.950000", "162427.950000", "162428.950000", "162429.950000", "162430.950000", "162431.950000", "162432.950000", "162433.950000", "162434.950000", "162435.950000", "162436.950000", "162437.950000", "162438.950000", "162439.950000", "162440.950000", "162441.950000", "162442.950000", "162443.950000", "162444.950000", "162445.950000", "162446.950000", "162447.950000", "162448.950000", "162449.950000", "162450.950000", "162451.950000", "162452.950000", "162453.950000", "162454.950000", "162455.950000", "162456.950000", "162457.950000", "162458.950000", "162459.950000", "162500.950000", "162501.950000", "162502.950000", "162503.950000", "162504.950000", "162505.950000", "162506.950000", "162507.950000", "162508.950000", "162509.950000", "162510.950000", "162511.950000", "162512.950000", "162513.950000", "162514.950000", "162515.950000", "162516.950000", "162517.950000", "162518.950000", "162519.950000", "162520.950000", "162521.950000", "162522.950000", "162523.950000", "162524.950000", "162525.950000", "162526.950000", "162527.950000", "162528.950000", "162529.950000", "162530.950000", "162531.950000", "162532.950000", "162533.950000", "162534.950000", "162535.950000", "162536.950000", "162537.950000", "162538.950000", "162539.950000", "162540.950000", "162541.950000", "162542.950000", "162543.950000", "162544.950000", "162545.950000", "162546.950000", "162547.950000", "162548.950000", "162549.950000", "162550.950000", "162551.950000", "162552.950000", "162553.950000", "162554.950000", "162555.950000", "162556.950000", "162557.950000", "162558.950000", "162559.950000", "162600.950000", "162601.950000", "162602.950000", "162603.950000", "162604.950000", "162605.950000"],
      "ContentTime": ["162232.872000", "162232.876000", "162232.879000", "162232.882000", "162232.885000", "162232.888000", "162232.891000", "162232.894000", "162232.902000", "162232.909000", "162232.911000", "162232.915000", "162232.918000", "162232.921000", "162232.924000", "162232.927000", "162232.930000", "162232.933000", "162232.936000", "162232.939000", "162232.942000", "162232.945000", "162232.948000", "162232.958000", "162232.961000", "162232.964000", "162232.967000", "162232.970000", "162232.973000", "162232.975000", "162232.978000", "162232.982000", "162232.985000", "162232.988000", "162232.990000", "162232.993000", "162232.996000", "162233.001000", "162233.004000", "162233.007000", "162233.010000", "162233.013000", "162252.836000", "162252.841000", "162252.844000", "162252.847000", "162252.850000", "162252.853000", "162252.856000", "162252.859000", "162252.862000", "162252.865000", "162252.868000", "162252.871000", "162252.874000", "162252.877000", "162252.880000", "162252.883000", "162252.886000", "162252.889000", "162252.892000", "162252.895000", "162252.898000", "162252.901000", "162252.904000", "162252.907000", "162252.910000", "162252.913000", "162252.916000", "162252.919000", "162312.835000", "162312.838000", "162312.841000", "162312.844000", "162312.847000", "162312.850000", "162312.853000", "162312.856000", "162312.859000", "162312.862000", "162312.865000", "162312.868000", "162312.871000", "162312.874000", "162312.878000", "162312.881000", "162312.884000", "162312.887000", "162312.890000", "162312.893000", "162312.896000", "162312.899000", "162312.902000", "162312.905000", "162312.908000", "162312.911000", "162312.914000", "162312.917000", "162332.835000", "162332.838000", "162332.841000", "162332.844000", "162332.847000", "162332.850000", "162332.853000", "162332.856000", "162332.859000", "162332.862000", "162332.865000", "162332.868000", "162332.871000", "162332.874000", "162332.877000", "162332.881000", "162332.884000", "162332.887000", "162332.889000", "162332.892000", "162332.895000", "162332.898000", "162332.902000", "162332.905000", "162332.908000", "162332.910000", "162332.914000", "162332.917000", "162332.919000", "162352.835000", "162352.838000", "162352.841000", "162352.844000", "162352.847000", "162352.850000", "162352.853000", "162352.856000", "162352.859000", "162352.862000", "162352.865000", "162352.868000", "162352.871000", "162352.874000", "162352.877000", "162352.880000", "162352.883000", "162352.887000", "162352.890000", "162352.893000", "162352.896000", "162352.899000", "162352.902000", "162352.905000", "162352.908000", "162352.911000", "162352.914000", "162352.917000", "162412.836000", "162412.839000", "162412.842000", "162412.845000", "162412.848000", "162412.851000", "162412.854000", "162412.857000", "162412.860000", "162412.863000", "162412.866000", "162412.869000", "162412.872000", "162412.875000", "162412.879000", "162412.882000", "162412.885000", "162412.888000", "162412.900000", "162412.903000", "162412.906000", "162412.909000", "162412.912000", "162412.915000", "162412.918000", "162412.921000", "162412.924000", "162412.927000", "162412.930000", "162432.836000", "162432.839000", "162432.842000", "162432.845000", "162432.848000", "162432.851000", "162432.854000", "162432.857000", "162432.860000", "162432.863000", "162432.866000", "162432.869000", "162432.872000", "162432.875000", "162432.878000", "162432.881000", "162432.884000", "162432.887000", "162432.890000", "162432.893000", "162432.896000", "162452.836000", "162452.839000", "162452.842000", "162452.845000", "162452.848000", "162452.851000", "162452.858000", "162452.861000", "162452.864000", "162452.867000", "162452.870000", "162452.873000", "162452.890000", "162452.894000", "162452.897000", "162452.900000", "162452.903000", "162452.906000", "162452.909000", "162452.912000", "162512.836000", "162512.839000", "162512.842000", "162512.845000", "162512.848000", "162512.851000", "162512.854000", "162512.857000", "162512.860000", "162512.863000", "162512.866000", "162512.869000", "162512.872000", "162512.875000", "162512.878000", "162512.881000", "162512.884000", "162512.887000", "162512.891000", "162512.894000", "162532.835000", "162532.838000", "162532.841000", "162532.844000", "162532.847000", "162532.850000", "162532.853000", "162532.856000", "162532.864000", "162532.867000", "162532.870000", "162532.873000", "162532.876000", "162532.879000", "162532.882000", "162532.885000", "162532.888000", "162532.891000", "162532.894000", "162532.897000", "162552.835000", "162552.838000", "162552.841000", "162552.844000", "162552.847000", "162552.850000", "162552.853000", "162552.856000", "162552.859000", "162552.862000", "162552.865000", "162552.868000", "162552.871000", "162552.874000", "162552.877000", "162552.880000", "162552.883000", "162552.886000", "162552.889000", "162552.893000", "162607.810000", "162607.813000", "162607.816000", "162607.819000", "162607.822000", "162607.825000", "162607.828000", "162607.831000", "162607.834000", "162607.837000", "162607.840000", "162607.843000", "162607.846000", "162607.849000", "162607.852000"],
      "InstanceCreationTime": ["162232.872000", "162232.876000", "162232.879000", "162232.882000", "162232.885000", "162232.888000", "162232.891000", "162232.894000", "162232.902000", "162232.909000", "162232.911000", "162232.915000", "162232.918000", "162232.921000", "162232.924000", "162232.927000", "162232.930000", "162232.933000", "162232.936000", "162232.939000", "162232.942000", "162232.945000", "162232.948000", "162232.958000", "162232.961000", "162232.964000", "162232.967000", "162232.970000", "162232.973000", "162232.975000", "162232.978000", "162232.982000", "162232.985000", "162232.988000", "162232.990000", "162232.993000", "162232.996000", "162233.001000", "162233.004000", "162233.007000", "162233.010000", "162233.013000", "162252.836000", "162252.841000", "162252.844000", "162252.847000", "162252.850000", "162252.853000", "162252.856000", "162252.859000", "162252.862000", "162252.865000", "162252.868000", "162252.871000", "162252.874000", "162252.877000", "162252.880000", "162252.883000", "162252.886000", "162252.889000", "162252.892000", "162252.895000", "162252.898000", "162252.901000", "162252.904000", "162252.907000", "162252.910000", "162252.913000", "162252.916000", "162252.919000", "162312.835000", "162312.838000", "162312.841000", "162312.844000", "162312.847000", "162312.850000", "162312.853000", "162312.856000", "162312.859000", "162312.862000", "162312.865000", "162312.868000", "162312.871000", "162312.874000", "162312.878000", "162312.881000", "162312.884000", "162312.887000", "162312.890000", "162312.893000", "162312.896000", "162312.899000", "162312.902000", "162312.905000", "162312.908000", "162312.911000", "162312.914000", "162312.917000", "162332.835000", "162332.838000", "162332.841000", "162332.844000", "162332.847000", "162332.850000", "162332.853000", "162332.856000", "162332.859000", "162332.862000", "162332.865000", "162332.868000", "162332.871000", "162332.874000", "162332.877000", "162332.881000", "162332.884000", "162332.887000", "162332.889000", "162332.892000", "162332.895000", "162332.898000", "162332.902000", "162332.905000", "162332.908000", "162332.910000", "162332.914000", "162332.917000", "162332.919000", "162352.835000", "162352.838000", "162352.841000", "162352.844000", "162352.847000", "162352.850000", "162352.853000", "162352.856000", "162352.859000", "162352.862000", "162352.865000", "162352.868000", "162352.871000", "162352.874000", "162352.877000", "162352.880000", "162352.883000", "162352.887000", "162352.890000", "162352.893000", "162352.896000", "162352.899000", "162352.902000", "162352.905000", "162352.908000", "162352.911000", "162352.914000", "162352.917000", "162412.836000", "162412.839000", "162412.842000", "162412.845000", "162412.848000", "162412.851000", "162412.854000", "162412.857000", "162412.860000", "162412.863000", "162412.866000", "162412.869000", "162412.872000", "162412.875000", "162412.879000", "162412.882000", "162412.885000", "162412.888000", "162412.900000", "162412.903000", "162412.906000", "162412.909000", "162412.912000", "162412.915000", "162412.918000", "162412.921000", "162412.924000", "162412.927000", "162412.930000", "162432.836000", "162432.839000", "162432.842000", "162432.845000", "162432.848000", "162432.851000", "162432.854000", "162432.857000", "162432.860000", "162432.863000", "162432.866000", "162432.869000", "162432.872000", "162432.875000", "162432.878000", "162432.881000", "162432.884000", "162432.887000", "162432.890000", "162432.893000", "162432.896000", "162452.836000", "162452.839000", "162452.842000", "162452.845000", "162452.848000", "162452.851000", "162452.858000", "162452.861000", "162452.864000", "162452.867000", "162452.870000", "162452.873000", "162452.890000", "162452.894000", "162452.897000", "162452.900000", "162452.903000", "162452.906000", "162452.909000", "162452.912000", "162512.836000", "162512.839000", "162512.842000", "162512.845000", "162512.848000", "162512.851000", "162512.854000", "162512.857000", "162512.860000", "162512.863000", "162512.866000", "162512.869000", "162512.872000", "162512.875000", "162512.878000", "162512.881000", "162512.884000", "162512.887000", "162512.891000", "162512.894000", "162532.835000", "162532.838000", "162532.841000", "162532.844000", "162532.847000", "162532.850000", "162532.853000", "162532.856000", "162532.864000", "162532.867000", "162532.870000", "162532.873000", "162532.876000", "162532.879000", "162532.882000", "162532.885000", "162532.888000", "162532.891000", "162532.894000", "162532.897000", "162552.835000", "162552.838000", "162552.841000", "162552.844000", "162552.847000", "162552.850000", "162552.853000", "162552.856000", "162552.859000", "162552.862000", "162552.865000", "162552.868000", "162552.871000", "162552.874000", "162552.877000", "162552.880000", "162552.883000", "162552.886000", "162552.889000", "162552.893000", "162607.810000", "162607.813000", "162607.816000", "162607.819000", "162607.822000", "162607.825000", "162607.828000", "162607.831000", "162607.834000", "162607.837000", "162607.840000", "162607.843000", "162607.846000", "162607.849000", "162607.852000"],
      "InstanceNumber": [1, 2, 3, 4, 5, 6, 7, 8, 9, 10, 11, 12, 13, 14, 15, 16, 17, 18, 19, 20, 21, 22, 23, 24, 25, 26, 27, 28, 29, 30, 31, 32, 33, 34, 35, 36, 37, 38, 39, 40, 41, 42, 43, 44, 45, 46, 47, 48, 49, 50, 51, 52, 53, 54, 55, 56, 57, 58, 59, 60, 61, 62, 63, 64, 65, 66, 67, 68, 69, 70, 71, 72, 73, 74, 75, 76, 77, 78, 79, 80, 81, 82, 83, 84, 85, 86, 87, 88, 89, 90, 91, 92, 93, 94, 95, 96, 97, 98, 99, 100, 101, 102, 103, 104, 105, 106, 107, 108, 109, 110, 111, 112, 113, 114, 115, 116, 117, 118, 119, 120, 121, 122, 123, 124, 125, 126, 127, 128, 129, 130, 131, 132, 133, 134, 135, 136, 137, 138, 139, 140, 141, 142, 143, 144, 145, 146, 147, 148, 149, 150, 151, 152, 153, 154, 155, 156, 157, 158, 159, 160, 161, 162, 163, 164, 165, 166, 167, 168, 169, 170, 171, 172, 173, 174, 175, 176, 177, 178, 179, 180, 181, 182, 183, 184, 185, 186, 187, 188, 189, 190, 191, 192, 193, 194, 195, 196, 197, 198, 199, 200, 201, 202, 203, 204, 205, 206, 207, 208, 209, 210, 211, 212, 213, 214, 215, 216, 217, 218, 219, 220, 221, 222, 223, 224, 225, 226, 227, 228, 229, 230, 231, 232, 233, 234, 235, 236, 237, 238, 239, 240, 241, 242, 243, 244, 245, 246, 247, 248, 249, 250, 251, 252, 253, 254, 255, 256, 257, 258, 259, 260, 261, 262, 263, 264, 265, 266, 267, 268, 269, 270, 271, 272, 273, 274, 275, 276, 277, 278, 279, 280, 281, 282, 283, 284, 285, 286, 287, 288, 289, 290, 291, 292, 293, 294, 295, 296, 297, 298, 299, 300],
      "LargestImagePixelValue": [34777, 33659, 33196, 33173, 33318, 32987, 33021, 33074, 32764, 32669, 32894, 32930, 33230, 33325, 33028, 33054, 33396, 33086, 33183, 32952, 33327, 32788, 32922, 33068, 32975, 32978, 33022, 32957, 32571, 32909, 32827, 32914, 33274, 33062, 33067, 32770, 32893, 33034, 32586, 32682, 32767, 32853, 33023, 32843, 32826, 32521, 33134, 32627, 32978, 32784, 32643, 32853, 32627, 32575, 32556, 32826, 33136, 32775, 32844, 32738, 32659, 32379, 32938, 32679, 33046, 32430, 32955, 32911, 33083, 32922, 32988, 32941, 33158, 32856, 33172, 33214, 33026, 33387, 33222, 33260, 33359, 32834, 33311, 33240, 33213, 32904, 33068, 32984, 33098, 33169, 33011, 32761, 33138, 33032, 33158, 33224, 32976, 33601, 33262, 33004, 33235, 32962, 33124, 32814, 32932, 33196, 32736, 33261, 33251, 32797, 33227, 33154, 32887, 32803, 32820, 33191, 32918, 33140, 32787, 33280, 32824, 33148, 33034, 33403, 33368, 33207, 33081, 33114, 32968, 32742, 32924, 33089, 33071, 32748, 32697, 32453, 32922, 32818, 32799, 32728, 32935, 33325, 33026, 33073, 33561, 33132, 32954, 32918, 32925, 32779, 32915, 32823, 32836, 32998, 32924, 33037, 33402, 33030, 33167, 32952, 32762, 33139, 33084, 33261, 32994, 32991, 33026, 33116, 32935, 33149, 32922, 33083, 32901, 33016, 32843, 33243, 32846, 33180, 33033, 33158, 33145, 33161, 33213, 33546, 32812, 33191, 33111, 33039, 32850, 32785, 33004, 32545, 33708, 32827, 32586, 32661, 32720, 32561, 32745, 32923, 32758, 32240, 32559, 32819, 32616, 33222, 33244, 32804, 33095, 33193, 32841, 33482, 33108, 33292, 33363, 33566, 33150, 33170, 33350, 33124, 33319, 33084, 33040, 33297, 33176, 32886, 32968, 32797, 33116, 32807, 32984, 33119, 33083, 32993, 33068, 33178, 32989, 33277, 33255, 33062, 32634, 32986, 33050, 33186, 33011, 33271, 33120, 33078, 33285, 33145, 33207, 33112, 33244, 32979, 33080, 32890, 33216, 33172, 33209, 33124, 33202, 33198, 33186, 33174, 33445, 32985, 32886, 33141, 32965, 32955, 33046, 32874, 32778, 32943, 32888, 33238, 33394, 33209, 32853, 33402, 33078, 33095, 33081, 33013, 33005, 32717, 32666, 33032, 32813, 33149, 33260, 33565, 33276, 33321, 33168, 33033, 33203, 32966, 33380, 33246],
      "WindowCenter": [9374.0, 9337.0, 9326.0, 9324.0, 9325.0, 9316.0, 9315.0, 9315.0, 9317.0, 9310.0, 9317.0, 9325.0, 9329.0, 9313.0, 9314.0, 9315.0, 9321.0, 9306.0, 9312.0, 9312.0, 9313.0, 9298.0, 9310.0, 9312.0, 9312.0, 9304.0, 9311.0, 9314.0, 9307.0, 9313.0, 9314.0, 9314.0, 9311.0, 9305.0, 9307.0, 9314.0, 9307.0, 9306.0, 9306.0, 9305.0, 9307.0, 9321.0, 9322.0, 9314.0, 9314.0, 9308.0, 9320.0, 9306.0, 9313.0, 9308.0, 9310.0, 9312.0, 9314.0, 9316.0, 9310.0, 9314.0, 9312.0, 9306.0, 9303.0, 9290.0, 9297.0, 9291.0, 9295.0, 9295.0, 9301.0, 9291.0, 9298.0, 9304.0, 9304.0, 9305.0, 9305.0, 9312.0, 9320.0, 9323.0, 9322.0, 9330.0, 9324.0, 9331.0, 9323.0, 9323.0, 9324.0, 9319.0, 9321.0, 9321.0, 9323.0, 9321.0, 9315.0, 9317.0, 9315.0, 9313.0, 9308.0, 9309.0, 9313.0, 9309.0, 9321.0, 9316.0, 9315.0, 9328.0, 9323.0, 9317.0, 9315.0, 9315.0, 9316.0, 9307.0, 9307.0, 9320.0, 9315.0, 9322.0, 9323.0, 9319.0, 9322.0, 9322.0, 9324.0, 9318.0, 9316.0, 9322.0, 9324.0, 9316.0, 9316.0, 9321.0, 9315.0, 9305.0, 9306.0, 9313.0, 9306.0, 9312.0, 9307.0, 9306.0, 9304.0, 9292.0, 9298.0, 9304.0, 9306.0, 9309.0, 9301.0, 9302.0, 9308.0, 9312.0, 9308.0, 9316.0, 9315.0, 9322.0, 9324.0, 9319.0, 9330.0, 9324.0, 9317.0, 9316.0, 9300.0, 9298.0, 9298.0, 9298.0, 9306.0, 9308.0, 9309.0, 9308.0, 9316.0, 9316.0, 9314.0, 9316.0, 9311.0, 9323.0, 9308.0, 9315.0, 9310.0, 9308.0, 9307.0, 9307.0, 9309.0, 9306.0, 9306.0, 9308.0, 9307.0, 9315.0, 9316.0, 9316.0, 9309.0, 9315.0, 9317.0, 9308.0, 9308.0, 9307.0, 9300.0, 9305.0, 9294.0, 9301.0, 9300.0, 9299.0, 9301.0, 9294.0, 9299.0, 9293.0, 9304.0, 9296.0, 9291.0, 9294.0, 9291.0, 9291.0, 9285.0, 9288.0, 9282.0, 9284.0, 9285.0, 9299.0, 9294.0, 9304.0, 9298.0, 9307.0, 9308.0, 9315.0, 9311.0, 9315.0, 9310.0, 9316.0, 9308.0, 9313.0, 9307.0, 9308.0, 9307.0, 9307.0, 9308.0, 9300.0, 9301.0, 9308.0, 9307.0, 9307.0, 9306.0, 9301.0, 9300.0, 9307.0, 9302.0, 9300.0, 9300.0, 9301.0, 9300.0, 9305.0, 9299.0, 9305.0, 9305.0, 9300.0, 9301.0, 9307.0, 9301.0, 9307.0, 9299.0, 9307.0, 9308.0, 9300.0, 9307.0, 9309.0, 9313.0, 9315.0, 9315.0, 9309.0, 9308.0, 9308.0, 9307.0, 9314.0, 9307.0, 9307.0, 9305.0, 9298.0, 9305.0, 9296.0, 9303.0, 9298.0, 9291.0, 9297.0, 9298.0, 9298.0, 9296.0, 9290.0, 9284.0, 9288.0, 9297.0, 9304.0, 9307.0, 9304.0, 9299.0, 9307.0, 9298.0, 9298.0, 9294.0, 9301.0, 9299.0, 9294.0, 9301.0, 9301.0, 9306.0, 9308.0, 9307.0, 9305.0, 9307.0, 9313.0, 9306.0, 9308.0, 9309.0, 9301.0, 9306.0, 9306.0],
